# TOPAS Version: 3.3.p1
# Parameter File: Simple_Pattern.txt
# Results for scorer MLIC_Scorer
# Scored in component: MLIC
# X in 180 bins of 0.222222 cm
# Y in 1 bin  of 10 cm
# Z in 1 bin  of 10 cm
# EnergyDeposit ( MeV ) : Sum   
0, 0, 0, 34.29218292236328
1, 0, 0, 35.34196853637695
2, 0, 0, 36.26390838623047
3, 0, 0, 37.30280685424805
4, 0, 0, 35.84724426269531
5, 0, 0, 33.77676010131836
6, 0, 0, 35.86984634399414
7, 0, 0, 35.13989639282227
8, 0, 0, 36.58754348754883
9, 0, 0, 36.6643180847168
10, 0, 0, 35.11478042602539
11, 0, 0, 37.34633636474609
12, 0, 0, 38.00965118408203
13, 0, 0, 37.02196884155273
14, 0, 0, 38.09529495239258
15, 0, 0, 36.99687957763672
16, 0, 0, 36.30788803100586
17, 0, 0, 38.94809341430664
18, 0, 0, 39.44715118408203
19, 0, 0, 38.05488204956055
20, 0, 0, 38.53586959838867
21, 0, 0, 39.49368667602539
22, 0, 0, 39.03414154052734
23, 0, 0, 37.25148010253906
24, 0, 0, 38.8321418762207
25, 0, 0, 40.98350143432617
26, 0, 0, 40.72707748413086
27, 0, 0, 39.65044021606445
28, 0, 0, 39.72160720825195
29, 0, 0, 41.10703277587891
30, 0, 0, 40.07931900024414
31, 0, 0, 39.95101547241211
32, 0, 0, 39.51325225830078
33, 0, 0, 39.37922286987305
34, 0, 0, 40.06739044189453
35, 0, 0, 40.43835830688477
36, 0, 0, 41.13809585571289
37, 0, 0, 40.78255081176758
38, 0, 0, 40.66132354736328
39, 0, 0, 43.78901290893555
40, 0, 0, 40.82848358154297
41, 0, 0, 41.86739349365234
42, 0, 0, 41.56540298461914
43, 0, 0, 41.71816635131836
44, 0, 0, 42.19196701049805
45, 0, 0, 41.6231689453125
46, 0, 0, 43.24265289306641
47, 0, 0, 44.48522567749023
48, 0, 0, 44.32812881469727
49, 0, 0, 45.17710876464844
50, 0, 0, 45.05086517333984
51, 0, 0, 43.86656951904297
52, 0, 0, 46.07598114013672
53, 0, 0, 46.09806060791016
54, 0, 0, 45.8129768371582
55, 0, 0, 47.27162170410156
56, 0, 0, 47.52558135986328
57, 0, 0, 49.77974319458008
58, 0, 0, 49.64230346679688
59, 0, 0, 47.17913436889648
60, 0, 0, 47.62489700317383
61, 0, 0, 48.75445556640625
62, 0, 0, 48.46337127685547
63, 0, 0, 50.68157577514648
64, 0, 0, 50.8204460144043
65, 0, 0, 53.22788619995117
66, 0, 0, 51.46723556518555
67, 0, 0, 52.33176422119141
68, 0, 0, 54.3511962890625
69, 0, 0, 56.29779815673828
70, 0, 0, 56.06410980224609
71, 0, 0, 56.10886001586914
72, 0, 0, 58.38480377197266
73, 0, 0, 59.05058670043945
74, 0, 0, 61.34148788452148
75, 0, 0, 62.09478759765625
76, 0, 0, 62.58392715454102
77, 0, 0, 63.0025634765625
78, 0, 0, 66.36679840087891
79, 0, 0, 68.65640258789062
80, 0, 0, 71.84944152832031
81, 0, 0, 74.17500305175781
82, 0, 0, 73.52622222900391
83, 0, 0, 77.53836059570312
84, 0, 0, 82.58596801757812
85, 0, 0, 87.56196594238281
86, 0, 0, 92.51343536376953
87, 0, 0, 103.0699996948242
88, 0, 0, 115.5776214599609
89, 0, 0, 123.8046340942383
90, 0, 0, 144.2362670898438
91, 0, 0, 165.6545104980469
92, 0, 0, 164.8150939941406
93, 0, 0, 106.3926467895508
94, 0, 0, 38.42208099365234
95, 0, 0, 25.51879692077637
96, 0, 0, 0
97, 0, 0, 0.001980698434635997
98, 0, 0, 0
99, 0, 0, 0
100, 0, 0, 0
101, 0, 0, 0
102, 0, 0, 0
103, 0, 0, 0
104, 0, 0, 0
105, 0, 0, 0
106, 0, 0, 0
107, 0, 0, 0
108, 0, 0, 0
109, 0, 0, 0
110, 0, 0, 0
111, 0, 0, 0
112, 0, 0, 0
113, 0, 0, 0
114, 0, 0, 0
115, 0, 0, 0
116, 0, 0, 0
117, 0, 0, 0
118, 0, 0, 0
119, 0, 0, 0
120, 0, 0, 0
121, 0, 0, 0
122, 0, 0, 0
123, 0, 0, 0
124, 0, 0, 0
125, 0, 0, 0
126, 0, 0, 0
127, 0, 0, 0
128, 0, 0, 0
129, 0, 0, 0
130, 0, 0, 0
131, 0, 0, 0
132, 0, 0, 0
133, 0, 0, 0
134, 0, 0, 0
135, 0, 0, 0
136, 0, 0, 0
137, 0, 0, 0
138, 0, 0, 0
139, 0, 0, 0
140, 0, 0, 0
141, 0, 0, 0
142, 0, 0, 0
143, 0, 0, 0
144, 0, 0, 0
145, 0, 0, 0
146, 0, 0, 0
147, 0, 0, 0
148, 0, 0, 0
149, 0, 0, 0
150, 0, 0, 0
151, 0, 0, 0
152, 0, 0, 0
153, 0, 0, 0
154, 0, 0, 0
155, 0, 0, 0
156, 0, 0, 0
157, 0, 0, 0
158, 0, 0, 0
159, 0, 0, 0
160, 0, 0, 0
161, 0, 0, 0
162, 0, 0, 0
163, 0, 0, 0
164, 0, 0, 0
165, 0, 0, 0
166, 0, 0, 0
167, 0, 0, 0
168, 0, 0, 0
169, 0, 0, 0
170, 0, 0, 0
171, 0, 0, 0
172, 0, 0, 0
173, 0, 0, 0
174, 0, 0, 0
175, 0, 0, 0
176, 0, 0, 0
177, 0, 0, 0
178, 0, 0, 0
179, 0, 0, 0
