# TOPAS Version: 3.3.p1
# Parameter File: Simple_Pattern.txt
# Results for scorer MLIC_Scorer
# Scored in component: MLIC
# X in 180 bins of 0.222222 cm
# Y in 1 bin  of 10 cm
# Z in 1 bin  of 10 cm
# EnergyDeposit ( MeV ) : Sum   
0, 0, 0, 27.20151138305664
1, 0, 0, 28.23773765563965
2, 0, 0, 27.90963745117188
3, 0, 0, 29.8521842956543
4, 0, 0, 28.88416862487793
5, 0, 0, 27.57208061218262
6, 0, 0, 29.44044876098633
7, 0, 0, 27.90473747253418
8, 0, 0, 29.32637023925781
9, 0, 0, 31.11630821228027
10, 0, 0, 29.50493812561035
11, 0, 0, 30.78909301757812
12, 0, 0, 29.64860153198242
13, 0, 0, 30.92595672607422
14, 0, 0, 30.10795974731445
15, 0, 0, 29.23194885253906
16, 0, 0, 28.87847328186035
17, 0, 0, 30.73726654052734
18, 0, 0, 30.97596740722656
19, 0, 0, 31.48744201660156
20, 0, 0, 30.98334312438965
21, 0, 0, 31.34960174560547
22, 0, 0, 31.89015960693359
23, 0, 0, 31.3125057220459
24, 0, 0, 31.9231014251709
25, 0, 0, 30.66471862792969
26, 0, 0, 31.5570068359375
27, 0, 0, 32.32782363891602
28, 0, 0, 32.15656280517578
29, 0, 0, 31.96173286437988
30, 0, 0, 32.97191619873047
31, 0, 0, 33.36184692382812
32, 0, 0, 33.77558517456055
33, 0, 0, 32.98680114746094
34, 0, 0, 34.45584106445312
35, 0, 0, 34.01544952392578
36, 0, 0, 33.77770233154297
37, 0, 0, 33.67820739746094
38, 0, 0, 34.93506622314453
39, 0, 0, 36.12742614746094
40, 0, 0, 35.59734725952148
41, 0, 0, 34.70498657226562
42, 0, 0, 35.32342529296875
43, 0, 0, 36.19052505493164
44, 0, 0, 36.06143951416016
45, 0, 0, 36.6555061340332
46, 0, 0, 37.04481887817383
47, 0, 0, 37.61337661743164
48, 0, 0, 37.41268920898438
49, 0, 0, 38.52133941650391
50, 0, 0, 37.44415283203125
51, 0, 0, 38.1494026184082
52, 0, 0, 38.83358001708984
53, 0, 0, 39.93990325927734
54, 0, 0, 40.00681304931641
55, 0, 0, 42.48290634155273
56, 0, 0, 41.17507171630859
57, 0, 0, 41.30685806274414
58, 0, 0, 41.79441070556641
59, 0, 0, 43.32492446899414
60, 0, 0, 42.23421478271484
61, 0, 0, 45.50808334350586
62, 0, 0, 45.52199935913086
63, 0, 0, 45.28364181518555
64, 0, 0, 45.32637405395508
65, 0, 0, 45.99048614501953
66, 0, 0, 47.5892333984375
67, 0, 0, 48.49623870849609
68, 0, 0, 48.87240600585938
69, 0, 0, 49.24132919311523
70, 0, 0, 49.85499954223633
71, 0, 0, 49.80051422119141
72, 0, 0, 52.09028625488281
73, 0, 0, 53.26469802856445
74, 0, 0, 55.38646697998047
75, 0, 0, 56.30538940429688
76, 0, 0, 58.01155471801758
77, 0, 0, 58.49705505371094
78, 0, 0, 60.27773284912109
79, 0, 0, 62.91347503662109
80, 0, 0, 63.79218673706055
81, 0, 0, 67.02992248535156
82, 0, 0, 69.40749359130859
83, 0, 0, 72.78777313232422
84, 0, 0, 75.64942932128906
85, 0, 0, 81.55483245849609
86, 0, 0, 88.41698455810547
87, 0, 0, 94.71014404296875
88, 0, 0, 105.0538558959961
89, 0, 0, 112.9505157470703
90, 0, 0, 129.9178161621094
91, 0, 0, 152.9394683837891
92, 0, 0, 172.1027526855469
93, 0, 0, 135.6592407226562
94, 0, 0, 79.92819213867188
95, 0, 0, 18.91592025756836
96, 0, 0, 0
97, 0, 0, 0
98, 0, 0, 0
99, 0, 0, 0
100, 0, 0, 0
101, 0, 0, 0
102, 0, 0, 0
103, 0, 0, 0
104, 0, 0, 0
105, 0, 0, 0
106, 0, 0, 0
107, 0, 0, 0
108, 0, 0, 0
109, 0, 0, 0
110, 0, 0, 0
111, 0, 0, 0
112, 0, 0, 0
113, 0, 0, 0
114, 0, 0, 0
115, 0, 0, 0
116, 0, 0, 0
117, 0, 0, 0
118, 0, 0, 0
119, 0, 0, 0
120, 0, 0, 0
121, 0, 0, 0
122, 0, 0, 0
123, 0, 0, 0
124, 0, 0, 0
125, 0, 0, 0
126, 0, 0, 0
127, 0, 0, 0
128, 0, 0, 0
129, 0, 0, 0
130, 0, 0, 0
131, 0, 0, 0
132, 0, 0, 0
133, 0, 0, 0
134, 0, 0, 0
135, 0, 0, 0
136, 0, 0, 0
137, 0, 0, 0
138, 0, 0, 0
139, 0, 0, 0
140, 0, 0, 0
141, 0, 0, 0
142, 0, 0, 0
143, 0, 0, 0
144, 0, 0, 0
145, 0, 0, 0
146, 0, 0, 0
147, 0, 0, 0
148, 0, 0, 0
149, 0, 0, 0
150, 0, 0, 0
151, 0, 0, 0
152, 0, 0, 0
153, 0, 0, 0
154, 0, 0, 0
155, 0, 0, 0
156, 0, 0, 0
157, 0, 0, 0
158, 0, 0, 0
159, 0, 0, 0
160, 0, 0, 0
161, 0, 0, 0
162, 0, 0, 0
163, 0, 0, 0
164, 0, 0, 0
165, 0, 0, 0
166, 0, 0, 0
167, 0, 0, 0
168, 0, 0, 0
169, 0, 0, 0
170, 0, 0, 0
171, 0, 0, 0
172, 0, 0, 0
173, 0, 0, 0
174, 0, 0, 0
175, 0, 0, 0
176, 0, 0, 0
177, 0, 0, 0
178, 0, 0, 0
179, 0, 0, 0
