# TOPAS Version: 3.3.p1
# Parameter File: Simple_Pattern.txt
# Results for scorer MLIC_Scorer
# Scored in component: MLIC
# X in 165 bins of 0.2 cm
# Y in 1 bin  of 10 cm
# Z in 1 bin  of 10 cm
# EnergyDeposit ( MeV ) : Sum   
0, 0, 0, 934.3399658203125
1, 0, 0, 942.2179565429688
2, 0, 0, 946.93994140625
3, 0, 0, 938.4483032226562
4, 0, 0, 952.5487670898438
5, 0, 0, 952.6001586914062
6, 0, 0, 952.6237182617188
7, 0, 0, 964.4671020507812
8, 0, 0, 964.7919311523438
9, 0, 0, 969.5900268554688
10, 0, 0, 964.892578125
11, 0, 0, 975.3782958984375
12, 0, 0, 981.4390258789062
13, 0, 0, 973.2457885742188
14, 0, 0, 982.1371459960938
15, 0, 0, 987.1133422851562
16, 0, 0, 995.6121826171875
17, 0, 0, 995.0138549804688
18, 0, 0, 1001.368469238281
19, 0, 0, 1005.896179199219
20, 0, 0, 1009.753295898438
21, 0, 0, 1020.910888671875
22, 0, 0, 1018.779052734375
23, 0, 0, 1015.69189453125
24, 0, 0, 1026.739501953125
25, 0, 0, 1038.030639648438
26, 0, 0, 1038.411254882812
27, 0, 0, 1039.0390625
28, 0, 0, 1042.364135742188
29, 0, 0, 1051.524169921875
30, 0, 0, 1059.356811523438
31, 0, 0, 1057.937744140625
32, 0, 0, 1065.56982421875
33, 0, 0, 1069.303955078125
34, 0, 0, 1072.194091796875
35, 0, 0, 1087.928833007812
36, 0, 0, 1079.110473632812
37, 0, 0, 1091.340454101562
38, 0, 0, 1099.102783203125
39, 0, 0, 1105.996948242188
40, 0, 0, 1113.426635742188
41, 0, 0, 1111.292846679688
42, 0, 0, 1111.649169921875
43, 0, 0, 1128.39501953125
44, 0, 0, 1132.91015625
45, 0, 0, 1139.463012695312
46, 0, 0, 1146.431640625
47, 0, 0, 1145.88671875
48, 0, 0, 1159.268310546875
49, 0, 0, 1162.989868164062
50, 0, 0, 1166.605224609375
51, 0, 0, 1184.23486328125
52, 0, 0, 1188.130126953125
53, 0, 0, 1199.803100585938
54, 0, 0, 1207.246704101562
55, 0, 0, 1207.802001953125
56, 0, 0, 1222.827758789062
57, 0, 0, 1227.909545898438
58, 0, 0, 1242.039184570312
59, 0, 0, 1245.528076171875
60, 0, 0, 1256.582153320312
61, 0, 0, 1259.802612304688
62, 0, 0, 1269.797607421875
63, 0, 0, 1280.184204101562
64, 0, 0, 1293.937744140625
65, 0, 0, 1311.612915039062
66, 0, 0, 1308.775756835938
67, 0, 0, 1323.780029296875
68, 0, 0, 1338.86767578125
69, 0, 0, 1344.115966796875
70, 0, 0, 1373.108520507812
71, 0, 0, 1367.055908203125
72, 0, 0, 1392.345458984375
73, 0, 0, 1405.28173828125
74, 0, 0, 1416.660888671875
75, 0, 0, 1433.267333984375
76, 0, 0, 1449.853271484375
77, 0, 0, 1464.887817382812
78, 0, 0, 1482.920288085938
79, 0, 0, 1503.103271484375
80, 0, 0, 1516.265014648438
81, 0, 0, 1533.050903320312
82, 0, 0, 1552.009399414062
83, 0, 0, 1573.631103515625
84, 0, 0, 1594.947387695312
85, 0, 0, 1620.968017578125
86, 0, 0, 1628.589477539062
87, 0, 0, 1669.265747070312
88, 0, 0, 1688.588500976562
89, 0, 0, 1719.814575195312
90, 0, 0, 1748.918212890625
91, 0, 0, 1781.012817382812
92, 0, 0, 1813.223754882812
93, 0, 0, 1843.60498046875
94, 0, 0, 1887.462646484375
95, 0, 0, 1928.008544921875
96, 0, 0, 1967.184448242188
97, 0, 0, 2012.633178710938
98, 0, 0, 2067.04833984375
99, 0, 0, 2121.47607421875
100, 0, 0, 2186.486572265625
101, 0, 0, 2248.986328125
102, 0, 0, 2331.604248046875
103, 0, 0, 2423.580810546875
104, 0, 0, 2520.100341796875
105, 0, 0, 2632.8251953125
106, 0, 0, 2765.092529296875
107, 0, 0, 2924.35595703125
108, 0, 0, 3125.069091796875
109, 0, 0, 3383.35400390625
110, 0, 0, 3774.936767578125
111, 0, 0, 4252.5361328125
112, 0, 0, 4805.548828125
113, 0, 0, 5489.52001953125
114, 0, 0, 5258.70751953125
115, 0, 0, 4608.287109375
116, 0, 0, 2969.35302734375
117, 0, 0, 1430.23095703125
118, 0, 0, 497.3434753417969
119, 0, 0, 146.1249389648438
120, 0, 0, 10.02005863189697
121, 0, 0, 0.006234076805412769
122, 0, 0, 0
123, 0, 0, 0
124, 0, 0, 0
125, 0, 0, 0
126, 0, 0, 0
127, 0, 0, 0
128, 0, 0, 0
129, 0, 0, 0
130, 0, 0, 0
131, 0, 0, 0
132, 0, 0, 0
133, 0, 0, 0
134, 0, 0, 0
135, 0, 0, 0
136, 0, 0, 0
137, 0, 0, 0.03203367069363594
138, 0, 0, 0
139, 0, 0, 0
140, 0, 0, 0
141, 0, 0, 0
142, 0, 0, 0
143, 0, 0, 0
144, 0, 0, 0
145, 0, 0, 0
146, 0, 0, 0
147, 0, 0, 0
148, 0, 0, 0
149, 0, 0, 0
150, 0, 0, 0
151, 0, 0, 0
152, 0, 0, 0
153, 0, 0, 0
154, 0, 0, 0
155, 0, 0, 0
156, 0, 0, 0
157, 0, 0, 0
158, 0, 0, 0
159, 0, 0, 0
160, 0, 0, 0
161, 0, 0, 0
162, 0, 0, 0
163, 0, 0, 0
164, 0, 0, 0
