# TOPAS Version: 3.3.p1
# Parameter File: Simple_Pattern.txt
# Results for scorer MLIC_Scorer
# Scored in component: MLIC
# X in 180 bins of 0.222222 cm
# Y in 1 bin  of 10 cm
# Z in 1 bin  of 10 cm
# EnergyDeposit ( MeV ) : Sum   
0, 0, 0, 70.57611846923828
1, 0, 0, 70.15196228027344
2, 0, 0, 71.09976196289062
3, 0, 0, 72.29408264160156
4, 0, 0, 70.66477966308594
5, 0, 0, 72.97337341308594
6, 0, 0, 69.76597595214844
7, 0, 0, 73.82794952392578
8, 0, 0, 74.06138610839844
9, 0, 0, 73.23219299316406
10, 0, 0, 74.26792907714844
11, 0, 0, 72.17733764648438
12, 0, 0, 74.817626953125
13, 0, 0, 73.69758605957031
14, 0, 0, 75.58572387695312
15, 0, 0, 74.68573760986328
16, 0, 0, 75.16366577148438
17, 0, 0, 77.72556304931641
18, 0, 0, 77.08122253417969
19, 0, 0, 77.49872589111328
20, 0, 0, 77.52237701416016
21, 0, 0, 77.99079132080078
22, 0, 0, 77.82711029052734
23, 0, 0, 79.39250183105469
24, 0, 0, 78.76844024658203
25, 0, 0, 80.68126678466797
26, 0, 0, 81.47113800048828
27, 0, 0, 77.55506134033203
28, 0, 0, 80.03810882568359
29, 0, 0, 83.23628234863281
30, 0, 0, 82.76854705810547
31, 0, 0, 81.92393493652344
32, 0, 0, 83.14556121826172
33, 0, 0, 82.98136901855469
34, 0, 0, 83.86422729492188
35, 0, 0, 84.5394287109375
36, 0, 0, 86.12271118164062
37, 0, 0, 85.89453125
38, 0, 0, 86.64096069335938
39, 0, 0, 87.23344421386719
40, 0, 0, 87.88999938964844
41, 0, 0, 89.77218627929688
42, 0, 0, 88.45365905761719
43, 0, 0, 89.50196838378906
44, 0, 0, 92.07842254638672
45, 0, 0, 92.77061462402344
46, 0, 0, 93.19735717773438
47, 0, 0, 92.06083679199219
48, 0, 0, 92.36932373046875
49, 0, 0, 96.75628662109375
50, 0, 0, 95.61705017089844
51, 0, 0, 96.66021728515625
52, 0, 0, 98.41923522949219
53, 0, 0, 98.52076721191406
54, 0, 0, 101.2777557373047
55, 0, 0, 100.8749542236328
56, 0, 0, 103.5431137084961
57, 0, 0, 104.9132537841797
58, 0, 0, 105.7291564941406
59, 0, 0, 107.3029098510742
60, 0, 0, 107.0369567871094
61, 0, 0, 108.8325042724609
62, 0, 0, 112.0291748046875
63, 0, 0, 110.4857711791992
64, 0, 0, 114.2518081665039
65, 0, 0, 114.0948791503906
66, 0, 0, 118.1532287597656
67, 0, 0, 120.7427978515625
68, 0, 0, 121.4769973754883
69, 0, 0, 124.9066314697266
70, 0, 0, 124.7263412475586
71, 0, 0, 129.3222961425781
72, 0, 0, 132.0316314697266
73, 0, 0, 135.0956115722656
74, 0, 0, 136.1542816162109
75, 0, 0, 141.1136627197266
76, 0, 0, 144.1797180175781
77, 0, 0, 149.038330078125
78, 0, 0, 151.0960845947266
79, 0, 0, 158.9055328369141
80, 0, 0, 162.2223510742188
81, 0, 0, 171.3842926025391
82, 0, 0, 176.2701263427734
83, 0, 0, 182.8408355712891
84, 0, 0, 192.7276611328125
85, 0, 0, 204.4799041748047
86, 0, 0, 220.2422027587891
87, 0, 0, 239.0429382324219
88, 0, 0, 266.0340270996094
89, 0, 0, 320.7026062011719
90, 0, 0, 329.2760314941406
91, 0, 0, 398.3590087890625
92, 0, 0, 401.7150268554688
93, 0, 0, 285.8669738769531
94, 0, 0, 164.06787109375
95, 0, 0, 52.02846145629883
96, 0, 0, 3.99127197265625
97, 0, 0, 0
98, 0, 0, 0
99, 0, 0, 0
100, 0, 0, 0
101, 0, 0, 0
102, 0, 0, 0
103, 0, 0, 0
104, 0, 0, 0
105, 0, 0, 0
106, 0, 0, 0
107, 0, 0, 0
108, 0, 0, 0
109, 0, 0, 0
110, 0, 0, 0
111, 0, 0, 0
112, 0, 0, 0
113, 0, 0, 0
114, 0, 0, 0
115, 0, 0, 0
116, 0, 0, 0
117, 0, 0, 0
118, 0, 0, 0
119, 0, 0, 0
120, 0, 0, 0
121, 0, 0, 0
122, 0, 0, 0
123, 0, 0, 0
124, 0, 0, 0
125, 0, 0, 0
126, 0, 0, 0
127, 0, 0, 0
128, 0, 0, 0
129, 0, 0, 0
130, 0, 0, 0
131, 0, 0, 0
132, 0, 0, 0
133, 0, 0, 0
134, 0, 0, 0
135, 0, 0, 0
136, 0, 0, 0
137, 0, 0, 0
138, 0, 0, 0
139, 0, 0, 0
140, 0, 0, 0
141, 0, 0, 0
142, 0, 0, 0
143, 0, 0, 0
144, 0, 0, 0
145, 0, 0, 0
146, 0, 0, 0
147, 0, 0, 0
148, 0, 0, 0
149, 0, 0, 0
150, 0, 0, 0
151, 0, 0, 0
152, 0, 0, 0
153, 0, 0, 0
154, 0, 0, 0
155, 0, 0, 0
156, 0, 0, 0
157, 0, 0, 0
158, 0, 0, 0
159, 0, 0, 0
160, 0, 0, 0
161, 0, 0, 0
162, 0, 0, 0
163, 0, 0, 0
164, 0, 0, 0
165, 0, 0, 0
166, 0, 0, 0
167, 0, 0, 0
168, 0, 0, 0
169, 0, 0, 0
170, 0, 0, 0
171, 0, 0, 0
172, 0, 0, 0
173, 0, 0, 0
174, 0, 0, 0
175, 0, 0, 0
176, 0, 0, 0
177, 0, 0, 0
178, 0, 0, 0
179, 0, 0, 0
