# TOPAS Version: 3.3.p1
# Parameter File: Simple_Pattern.txt
# Results for scorer MLIC_Scorer
# Scored in component: MLIC
# X in 180 bins of 0.222222 cm
# Y in 1 bin  of 10 cm
# Z in 1 bin  of 10 cm
# EnergyDeposit ( MeV ) : Sum   
0, 0, 0, 45.79922485351562
1, 0, 0, 47.2354850769043
2, 0, 0, 47.07800674438477
3, 0, 0, 49.25820541381836
4, 0, 0, 47.60260772705078
5, 0, 0, 47.40005111694336
6, 0, 0, 47.88722610473633
7, 0, 0, 47.70368957519531
8, 0, 0, 48.04334259033203
9, 0, 0, 50.90804290771484
10, 0, 0, 49.06805419921875
11, 0, 0, 49.41372680664062
12, 0, 0, 49.87906646728516
13, 0, 0, 47.71247100830078
14, 0, 0, 48.08708953857422
15, 0, 0, 47.84984588623047
16, 0, 0, 48.00851058959961
17, 0, 0, 49.82240295410156
18, 0, 0, 50.20379638671875
19, 0, 0, 48.68033599853516
20, 0, 0, 50.61664581298828
21, 0, 0, 50.88921356201172
22, 0, 0, 50.65601348876953
23, 0, 0, 48.71003723144531
24, 0, 0, 50.40854263305664
25, 0, 0, 47.97402191162109
26, 0, 0, 50.18007278442383
27, 0, 0, 50.17666625976562
28, 0, 0, 48.32270431518555
29, 0, 0, 50.16628646850586
30, 0, 0, 48.86659622192383
31, 0, 0, 50.4943962097168
32, 0, 0, 49.75614166259766
33, 0, 0, 50.06471252441406
34, 0, 0, 49.92824172973633
35, 0, 0, 51.44472122192383
36, 0, 0, 52.99179458618164
37, 0, 0, 51.31616973876953
38, 0, 0, 51.80641937255859
39, 0, 0, 54.19732284545898
40, 0, 0, 53.47959518432617
41, 0, 0, 53.30662536621094
42, 0, 0, 53.89510345458984
43, 0, 0, 53.36029434204102
44, 0, 0, 54.75724029541016
45, 0, 0, 56.60117340087891
46, 0, 0, 55.70509719848633
47, 0, 0, 56.53177642822266
48, 0, 0, 57.29945373535156
49, 0, 0, 58.11178207397461
50, 0, 0, 58.58406448364258
51, 0, 0, 58.88711929321289
52, 0, 0, 59.97088241577148
53, 0, 0, 60.1312141418457
54, 0, 0, 58.67246627807617
55, 0, 0, 60.85896301269531
56, 0, 0, 59.67043304443359
57, 0, 0, 60.70322036743164
58, 0, 0, 61.42335891723633
59, 0, 0, 62.82434463500977
60, 0, 0, 63.10781097412109
61, 0, 0, 64.67937469482422
62, 0, 0, 66.03844451904297
63, 0, 0, 63.96409606933594
64, 0, 0, 65.59774017333984
65, 0, 0, 67.18647003173828
66, 0, 0, 67.88591766357422
67, 0, 0, 71.22545623779297
68, 0, 0, 70.32505035400391
69, 0, 0, 73.35446166992188
70, 0, 0, 73.60653686523438
71, 0, 0, 74.36466979980469
72, 0, 0, 74.42893981933594
73, 0, 0, 77.25144958496094
74, 0, 0, 77.72029876708984
75, 0, 0, 79.97367095947266
76, 0, 0, 82.03664398193359
77, 0, 0, 82.67215728759766
78, 0, 0, 84.57835388183594
79, 0, 0, 89.84650421142578
80, 0, 0, 92.54286193847656
81, 0, 0, 96.66836547851562
82, 0, 0, 97.53590393066406
83, 0, 0, 102.2251205444336
84, 0, 0, 107.2796478271484
85, 0, 0, 113.1445693969727
86, 0, 0, 117.8717346191406
87, 0, 0, 123.6571884155273
88, 0, 0, 137.3600463867188
89, 0, 0, 161.5531921386719
90, 0, 0, 190.3228607177734
91, 0, 0, 222.3196868896484
92, 0, 0, 186.2436218261719
93, 0, 0, 122.8274536132812
94, 0, 0, 43.03507614135742
95, 0, 0, 29.70808601379395
96, 0, 0, 7.459335327148438
97, 0, 0, 0
98, 0, 0, 0
99, 0, 0, 0
100, 0, 0, 0
101, 0, 0, 0
102, 0, 0, 0
103, 0, 0, 0
104, 0, 0, 0
105, 0, 0, 0
106, 0, 0, 0
107, 0, 0, 0
108, 0, 0, 0
109, 0, 0, 0
110, 0, 0, 0
111, 0, 0, 0
112, 0, 0, 0
113, 0, 0, 0
114, 0, 0, 0
115, 0, 0, 0
116, 0, 0, 0
117, 0, 0, 0
118, 0, 0, 0
119, 0, 0, 0
120, 0, 0, 0
121, 0, 0, 0
122, 0, 0, 0
123, 0, 0, 0
124, 0, 0, 0
125, 0, 0, 0
126, 0, 0, 0
127, 0, 0, 0.0211827140301466
128, 0, 0, 0
129, 0, 0, 0
130, 0, 0, 0
131, 0, 0, 0
132, 0, 0, 0
133, 0, 0, 0
134, 0, 0, 0
135, 0, 0, 0
136, 0, 0, 0
137, 0, 0, 0
138, 0, 0, 0
139, 0, 0, 0
140, 0, 0, 0
141, 0, 0, 0
142, 0, 0, 0
143, 0, 0, 0
144, 0, 0, 0
145, 0, 0, 0
146, 0, 0, 0
147, 0, 0, 0
148, 0, 0, 0
149, 0, 0, 0
150, 0, 0, 0
151, 0, 0, 0
152, 0, 0, 0
153, 0, 0, 0
154, 0, 0, 0
155, 0, 0, 0
156, 0, 0, 0
157, 0, 0, 0
158, 0, 0, 0
159, 0, 0, 0
160, 0, 0, 0
161, 0, 0, 0
162, 0, 0, 0
163, 0, 0, 0
164, 0, 0, 0
165, 0, 0, 0
166, 0, 0, 0
167, 0, 0, 0
168, 0, 0, 0
169, 0, 0, 0
170, 0, 0, 0
171, 0, 0, 0
172, 0, 0, 0
173, 0, 0, 0
174, 0, 0, 0
175, 0, 0, 0
176, 0, 0, 0
177, 0, 0, 0
178, 0, 0, 0
179, 0, 0, 0
