# TOPAS Version: 3.3.p1
# Parameter File: Simple_Pattern.txt
# Results for scorer MLIC_Scorer
# Scored in component: MLIC
# X in 180 bins of 0.222222 cm
# Y in 1 bin  of 10 cm
# Z in 1 bin  of 10 cm
# EnergyDeposit ( MeV ) : Sum   
0, 0, 0, 1090.972778320312
1, 0, 0, 1093.821655273438
2, 0, 0, 1093.39404296875
3, 0, 0, 1096.365966796875
4, 0, 0, 1099.577758789062
5, 0, 0, 1111.771728515625
6, 0, 0, 1122.818237304688
7, 0, 0, 1120.892944335938
8, 0, 0, 1122.62353515625
9, 0, 0, 1136.452880859375
10, 0, 0, 1126.408935546875
11, 0, 0, 1141.97216796875
12, 0, 0, 1144.759033203125
13, 0, 0, 1146.69091796875
14, 0, 0, 1158.367797851562
15, 0, 0, 1159.616088867188
16, 0, 0, 1168.19482421875
17, 0, 0, 1179.944702148438
18, 0, 0, 1176.908569335938
19, 0, 0, 1189.289794921875
20, 0, 0, 1197.549194335938
21, 0, 0, 1200.291137695312
22, 0, 0, 1216.208740234375
23, 0, 0, 1214.464599609375
24, 0, 0, 1225.369750976562
25, 0, 0, 1222.204223632812
26, 0, 0, 1232.50830078125
27, 0, 0, 1232.328979492188
28, 0, 0, 1243.563354492188
29, 0, 0, 1262.109008789062
30, 0, 0, 1263.385131835938
31, 0, 0, 1278.836181640625
32, 0, 0, 1280.06982421875
33, 0, 0, 1292.851806640625
34, 0, 0, 1305.680053710938
35, 0, 0, 1301.4541015625
36, 0, 0, 1315.10107421875
37, 0, 0, 1321.173461914062
38, 0, 0, 1345.4326171875
39, 0, 0, 1353.051025390625
40, 0, 0, 1361.501220703125
41, 0, 0, 1368.593505859375
42, 0, 0, 1382.859252929688
43, 0, 0, 1389.0322265625
44, 0, 0, 1416.058837890625
45, 0, 0, 1419.367309570312
46, 0, 0, 1425.846069335938
47, 0, 0, 1432.997314453125
48, 0, 0, 1458.804443359375
49, 0, 0, 1469.945068359375
50, 0, 0, 1492.50341796875
51, 0, 0, 1497.224487304688
52, 0, 0, 1509.814575195312
53, 0, 0, 1536.483764648438
54, 0, 0, 1552.991088867188
55, 0, 0, 1563.056640625
56, 0, 0, 1587.312133789062
57, 0, 0, 1603.081787109375
58, 0, 0, 1618.769653320312
59, 0, 0, 1643.381103515625
60, 0, 0, 1665.984252929688
61, 0, 0, 1675.473876953125
62, 0, 0, 1701.081176757812
63, 0, 0, 1729.187622070312
64, 0, 0, 1754.0107421875
65, 0, 0, 1780.737426757812
66, 0, 0, 1811.0458984375
67, 0, 0, 1839.707397460938
68, 0, 0, 1873.800537109375
69, 0, 0, 1895.263427734375
70, 0, 0, 1937.53173828125
71, 0, 0, 1975.958374023438
72, 0, 0, 2015.519165039062
73, 0, 0, 2066.6728515625
74, 0, 0, 2104.585693359375
75, 0, 0, 2165.3125
76, 0, 0, 2224.377685546875
77, 0, 0, 2276.87353515625
78, 0, 0, 2353.486572265625
79, 0, 0, 2421.213134765625
80, 0, 0, 2508.117919921875
81, 0, 0, 2603.78662109375
82, 0, 0, 2709.442626953125
83, 0, 0, 2833.640380859375
84, 0, 0, 2977.723388671875
85, 0, 0, 3160.064208984375
86, 0, 0, 3385.857421875
87, 0, 0, 3674.1689453125
88, 0, 0, 4091.805908203125
89, 0, 0, 4680.14892578125
90, 0, 0, 5492.57177734375
91, 0, 0, 6218.568359375
92, 0, 0, 6025.60107421875
93, 0, 0, 4305.84326171875
94, 0, 0, 2201.281982421875
95, 0, 0, 767.5840454101562
96, 0, 0, 182.8177337646484
97, 0, 0, 2.663676500320435
98, 0, 0, 0
99, 0, 0, 0
100, 0, 0, 0
101, 0, 0, 0
102, 0, 0, 0
103, 0, 0, 0
104, 0, 0, 0
105, 0, 0, 0
106, 0, 0, 0
107, 0, 0, 0
108, 0, 0, 0
109, 0, 0, 0
110, 0, 0, 0
111, 0, 0, 0
112, 0, 0, 0
113, 0, 0, 0
114, 0, 0, 0
115, 0, 0, 0
116, 0, 0, 0
117, 0, 0, 0
118, 0, 0, 0
119, 0, 0, 0
120, 0, 0, 0
121, 0, 0, 0
122, 0, 0, 0
123, 0, 0, 0
124, 0, 0, 0
125, 0, 0, 0
126, 0, 0, 0
127, 0, 0, 0
128, 0, 0, 0
129, 0, 0, 0
130, 0, 0, 0
131, 0, 0, 0
132, 0, 0, 0
133, 0, 0, 0
134, 0, 0, 0
135, 0, 0, 0
136, 0, 0, 0
137, 0, 0, 0
138, 0, 0, 0
139, 0, 0, 0
140, 0, 0, 0
141, 0, 0, 0
142, 0, 0, 0
143, 0, 0, 0
144, 0, 0, 0
145, 0, 0, 0
146, 0, 0, 0
147, 0, 0, 0
148, 0, 0, 0
149, 0, 0, 0
150, 0, 0, 0
151, 0, 0, 0
152, 0, 0, 0
153, 0, 0, 0
154, 0, 0, 0
155, 0, 0, 0
156, 0, 0, 0
157, 0, 0, 0
158, 0, 0, 0
159, 0, 0, 0
160, 0, 0, 0
161, 0, 0, 0
162, 0, 0, 0
163, 0, 0, 0
164, 0, 0, 0
165, 0, 0, 0
166, 0, 0, 0
167, 0, 0, 0
168, 0, 0, 0
169, 0, 0, 0
170, 0, 0, 0
171, 0, 0, 0
172, 0, 0, 0
173, 0, 0, 0
174, 0, 0, 0
175, 0, 0, 0
176, 0, 0, 0
177, 0, 0, 0
178, 0, 0, 0
179, 0, 0, 0
