# TOPAS Version: 3.3.p1
# Parameter File: Simple_Pattern.txt
# Results for scorer MLIC_Scorer
# Scored in component: MLIC
# X in 165 bins of 0.2 cm
# Y in 1 bin  of 10 cm
# Z in 1 bin  of 10 cm
# EnergyDeposit ( MeV ) : Sum   
0, 0, 0, 942.3558959960938
1, 0, 0, 937.158447265625
2, 0, 0, 955.03955078125
3, 0, 0, 954.2603759765625
4, 0, 0, 951.5298461914062
5, 0, 0, 956.7200317382812
6, 0, 0, 960.1919555664062
7, 0, 0, 964.7122192382812
8, 0, 0, 969.569091796875
9, 0, 0, 967.8663940429688
10, 0, 0, 971.1444702148438
11, 0, 0, 984.1499633789062
12, 0, 0, 985.70458984375
13, 0, 0, 986.5140380859375
14, 0, 0, 982.3998413085938
15, 0, 0, 993.4481201171875
16, 0, 0, 988.94091796875
17, 0, 0, 999.5055541992188
18, 0, 0, 1001.710083007812
19, 0, 0, 1000.346069335938
20, 0, 0, 1005.992065429688
21, 0, 0, 1015.466735839844
22, 0, 0, 1012.385009765625
23, 0, 0, 1023.374328613281
24, 0, 0, 1017.729858398438
25, 0, 0, 1023.661315917969
26, 0, 0, 1030.113403320312
27, 0, 0, 1036.13232421875
28, 0, 0, 1047.656494140625
29, 0, 0, 1051.504638671875
30, 0, 0, 1048.771606445312
31, 0, 0, 1054.26806640625
32, 0, 0, 1064.703002929688
33, 0, 0, 1067.12255859375
34, 0, 0, 1071.1845703125
35, 0, 0, 1087.080932617188
36, 0, 0, 1080.8056640625
37, 0, 0, 1087.101196289062
38, 0, 0, 1087.750854492188
39, 0, 0, 1105.412963867188
40, 0, 0, 1101.966796875
41, 0, 0, 1108.87353515625
42, 0, 0, 1115.105834960938
43, 0, 0, 1126.406372070312
44, 0, 0, 1137.581909179688
45, 0, 0, 1141.464233398438
46, 0, 0, 1142.510498046875
47, 0, 0, 1147.843994140625
48, 0, 0, 1154.609252929688
49, 0, 0, 1160.944946289062
50, 0, 0, 1171.259033203125
51, 0, 0, 1182.454345703125
52, 0, 0, 1184.662963867188
53, 0, 0, 1192.494873046875
54, 0, 0, 1199.208862304688
55, 0, 0, 1209.05029296875
56, 0, 0, 1222.88134765625
57, 0, 0, 1222.736694335938
58, 0, 0, 1239.243774414062
59, 0, 0, 1239.846435546875
60, 0, 0, 1257.480346679688
61, 0, 0, 1261.29052734375
62, 0, 0, 1263.280029296875
63, 0, 0, 1283.098510742188
64, 0, 0, 1297.951049804688
65, 0, 0, 1299.883544921875
66, 0, 0, 1311.97705078125
67, 0, 0, 1334.260864257812
68, 0, 0, 1335.23583984375
69, 0, 0, 1344.931762695312
70, 0, 0, 1359.940795898438
71, 0, 0, 1372.444946289062
72, 0, 0, 1379.3974609375
73, 0, 0, 1396.84326171875
74, 0, 0, 1403.593383789062
75, 0, 0, 1424.43359375
76, 0, 0, 1428.489135742188
77, 0, 0, 1457.839965820312
78, 0, 0, 1476.393188476562
79, 0, 0, 1483.039672851562
80, 0, 0, 1513.292236328125
81, 0, 0, 1524.373046875
82, 0, 0, 1542.022216796875
83, 0, 0, 1559.935668945312
84, 0, 0, 1575.822875976562
85, 0, 0, 1599.027465820312
86, 0, 0, 1619.78759765625
87, 0, 0, 1648.56787109375
88, 0, 0, 1669.70751953125
89, 0, 0, 1695.760009765625
90, 0, 0, 1714.2607421875
91, 0, 0, 1760.277221679688
92, 0, 0, 1785.704711914062
93, 0, 0, 1825.156860351562
94, 0, 0, 1856.75146484375
95, 0, 0, 1892.659057617188
96, 0, 0, 1935.494140625
97, 0, 0, 1980.337158203125
98, 0, 0, 2031.837158203125
99, 0, 0, 2088.208251953125
100, 0, 0, 2141.906494140625
101, 0, 0, 2211.28564453125
102, 0, 0, 2284.412353515625
103, 0, 0, 2369.9560546875
104, 0, 0, 2453.28515625
105, 0, 0, 2562.694091796875
106, 0, 0, 2695.737060546875
107, 0, 0, 2859.02099609375
108, 0, 0, 3045.911376953125
109, 0, 0, 3307.344970703125
110, 0, 0, 3654.154052734375
111, 0, 0, 4050.6513671875
112, 0, 0, 4660.88134765625
113, 0, 0, 5140.5146484375
114, 0, 0, 5361.72021484375
115, 0, 0, 4340.8212890625
116, 0, 0, 2778.38330078125
117, 0, 0, 1452.915283203125
118, 0, 0, 511.7414855957031
119, 0, 0, 95.36071014404297
120, 0, 0, 22.56538772583008
121, 0, 0, 0
122, 0, 0, 0.01750046946108341
123, 0, 0, 0
124, 0, 0, 0
125, 0, 0, 0.01367918308824301
126, 0, 0, 0
127, 0, 0, 0
128, 0, 0, 0
129, 0, 0, 0.03073990158736706
130, 0, 0, 0
131, 0, 0, 0
132, 0, 0, 0
133, 0, 0, 0
134, 0, 0, 0
135, 0, 0, 0
136, 0, 0, 0.002419417956843972
137, 0, 0, 0
138, 0, 0, 0
139, 0, 0, 0
140, 0, 0, 0
141, 0, 0, 0
142, 0, 0, 0
143, 0, 0, 0
144, 0, 0, 0
145, 0, 0, 0
146, 0, 0, 0
147, 0, 0, 0
148, 0, 0, 0
149, 0, 0, 0
150, 0, 0, 0
151, 0, 0, 0.02283345721662045
152, 0, 0, 0
153, 0, 0, 0
154, 0, 0, 0
155, 0, 0, 0
156, 0, 0, 0
157, 0, 0, 0
158, 0, 0, 0
159, 0, 0, 0
160, 0, 0, 0
161, 0, 0, 0
162, 0, 0, 0
163, 0, 0, 0
164, 0, 0, 0
