# TOPAS Version: 3.3.p1
# Parameter File: Simple_Pattern.txt
# Results for scorer MLIC_Scorer
# Scored in component: MLIC
# X in 180 bins of 0.222222 cm
# Y in 1 bin  of 10 cm
# Z in 1 bin  of 10 cm
# EnergyDeposit ( MeV ) : Sum   
0, 0, 0, 42.40187454223633
1, 0, 0, 41.1461181640625
2, 0, 0, 44.04640197753906
3, 0, 0, 42.47046661376953
4, 0, 0, 43.16094589233398
5, 0, 0, 41.73299026489258
6, 0, 0, 41.77664566040039
7, 0, 0, 42.0036506652832
8, 0, 0, 42.76437759399414
9, 0, 0, 42.34207916259766
10, 0, 0, 43.50666427612305
11, 0, 0, 44.35540771484375
12, 0, 0, 42.57395935058594
13, 0, 0, 44.82064819335938
14, 0, 0, 46.14587020874023
15, 0, 0, 45.81270217895508
16, 0, 0, 44.69901657104492
17, 0, 0, 45.20091247558594
18, 0, 0, 46.98257446289062
19, 0, 0, 45.94740676879883
20, 0, 0, 45.60738372802734
21, 0, 0, 46.49548721313477
22, 0, 0, 48.35752868652344
23, 0, 0, 48.31687164306641
24, 0, 0, 48.26544570922852
25, 0, 0, 48.64322662353516
26, 0, 0, 48.53878784179688
27, 0, 0, 50.10149383544922
28, 0, 0, 51.1934814453125
29, 0, 0, 48.8316650390625
30, 0, 0, 50.62755584716797
31, 0, 0, 49.33946228027344
32, 0, 0, 50.79467391967773
33, 0, 0, 52.13272476196289
34, 0, 0, 52.4232063293457
35, 0, 0, 52.91659164428711
36, 0, 0, 53.10222625732422
37, 0, 0, 52.61867904663086
38, 0, 0, 55.45601272583008
39, 0, 0, 54.59895324707031
40, 0, 0, 55.54388046264648
41, 0, 0, 54.36080932617188
42, 0, 0, 56.96428298950195
43, 0, 0, 56.26641082763672
44, 0, 0, 56.50742721557617
45, 0, 0, 58.87485122680664
46, 0, 0, 59.44459915161133
47, 0, 0, 60.9854850769043
48, 0, 0, 60.27101898193359
49, 0, 0, 60.33403778076172
50, 0, 0, 62.3225212097168
51, 0, 0, 62.34047698974609
52, 0, 0, 62.75332641601562
53, 0, 0, 64.90773773193359
54, 0, 0, 65.06316375732422
55, 0, 0, 67.68365478515625
56, 0, 0, 67.59090423583984
57, 0, 0, 70.20989990234375
58, 0, 0, 72.17112731933594
59, 0, 0, 73.29441070556641
60, 0, 0, 74.563720703125
61, 0, 0, 76.09600830078125
62, 0, 0, 78.08160400390625
63, 0, 0, 78.48451232910156
64, 0, 0, 81.59960174560547
65, 0, 0, 85.58399963378906
66, 0, 0, 87.94755554199219
67, 0, 0, 91.02438354492188
68, 0, 0, 93.66072082519531
69, 0, 0, 98.18009948730469
70, 0, 0, 103.8257293701172
71, 0, 0, 107.4352951049805
72, 0, 0, 114.9817810058594
73, 0, 0, 123.9758377075195
74, 0, 0, 134.6547241210938
75, 0, 0, 153.3091125488281
76, 0, 0, 171.8009033203125
77, 0, 0, 200.9913787841797
78, 0, 0, 212.9139251708984
79, 0, 0, 186.1187438964844
80, 0, 0, 145.6921234130859
81, 0, 0, 67.71104431152344
82, 0, 0, 40.79797744750977
83, 0, 0, 20.86672973632812
84, 0, 0, 11.32620716094971
85, 0, 0, 0
86, 0, 0, 0
87, 0, 0, 0
88, 0, 0, 0
89, 0, 0, 0
90, 0, 0, 0
91, 0, 0, 0
92, 0, 0, 0
93, 0, 0, 0
94, 0, 0, 0
95, 0, 0, 0
96, 0, 0, 0
97, 0, 0, 0
98, 0, 0, 0
99, 0, 0, 0
100, 0, 0, 0
101, 0, 0, 0
102, 0, 0, 0
103, 0, 0, 0
104, 0, 0, 0
105, 0, 0, 0
106, 0, 0, 0
107, 0, 0, 0
108, 0, 0, 0
109, 0, 0, 0
110, 0, 0, 0
111, 0, 0, 0
112, 0, 0, 0
113, 0, 0, 0
114, 0, 0, 0
115, 0, 0, 0
116, 0, 0, 0
117, 0, 0, 0
118, 0, 0, 0
119, 0, 0, 0
120, 0, 0, 0
121, 0, 0, 0
122, 0, 0, 0
123, 0, 0, 0
124, 0, 0, 0
125, 0, 0, 0
126, 0, 0, 0
127, 0, 0, 0
128, 0, 0, 0
129, 0, 0, 0
130, 0, 0, 0
131, 0, 0, 0
132, 0, 0, 0
133, 0, 0, 0
134, 0, 0, 0
135, 0, 0, 0
136, 0, 0, 0
137, 0, 0, 0
138, 0, 0, 0
139, 0, 0, 0
140, 0, 0, 0
141, 0, 0, 0
142, 0, 0, 0
143, 0, 0, 0
144, 0, 0, 0
145, 0, 0, 0
146, 0, 0, 0
147, 0, 0, 0
148, 0, 0, 0
149, 0, 0, 0
150, 0, 0, 0
151, 0, 0, 0
152, 0, 0, 0
153, 0, 0, 0
154, 0, 0, 0
155, 0, 0, 0
156, 0, 0, 0
157, 0, 0, 0
158, 0, 0, 0
159, 0, 0, 0
160, 0, 0, 0
161, 0, 0, 0
162, 0, 0, 0
163, 0, 0, 0
164, 0, 0, 0
165, 0, 0, 0
166, 0, 0, 0
167, 0, 0, 0
168, 0, 0, 0
169, 0, 0, 0
170, 0, 0, 0
171, 0, 0, 0
172, 0, 0, 0
173, 0, 0, 0
174, 0, 0, 0
175, 0, 0, 0
176, 0, 0, 0
177, 0, 0, 0
178, 0, 0, 0
179, 0, 0, 0
