# TOPAS Version: 3.3.p1
# Parameter File: Simple_Pattern.txt
# Results for scorer MLIC_Scorer
# Scored in component: MLIC
# X in 180 bins of 0.222222 cm
# Y in 1 bin  of 10 cm
# Z in 1 bin  of 10 cm
# EnergyDeposit ( MeV ) : Sum   
0, 0, 0, 1082.391357421875
1, 0, 0, 1092.929931640625
2, 0, 0, 1099.860107421875
3, 0, 0, 1098.764892578125
4, 0, 0, 1099.206420898438
5, 0, 0, 1105.488647460938
6, 0, 0, 1115.721923828125
7, 0, 0, 1119.579345703125
8, 0, 0, 1122.309936523438
9, 0, 0, 1130.35009765625
10, 0, 0, 1135.16357421875
11, 0, 0, 1140.108520507812
12, 0, 0, 1144.778442382812
13, 0, 0, 1147.140991210938
14, 0, 0, 1155.551513671875
15, 0, 0, 1163.675537109375
16, 0, 0, 1172.081176757812
17, 0, 0, 1185.841796875
18, 0, 0, 1185.294799804688
19, 0, 0, 1187.872802734375
20, 0, 0, 1193.94287109375
21, 0, 0, 1191.48974609375
22, 0, 0, 1208.35986328125
23, 0, 0, 1214.673950195312
24, 0, 0, 1224.0556640625
25, 0, 0, 1233.6650390625
26, 0, 0, 1232.269897460938
27, 0, 0, 1236.150756835938
28, 0, 0, 1252.864624023438
29, 0, 0, 1254.98486328125
30, 0, 0, 1267.176025390625
31, 0, 0, 1276.504028320312
32, 0, 0, 1282.84033203125
33, 0, 0, 1285.314697265625
34, 0, 0, 1299.57861328125
35, 0, 0, 1305.857666015625
36, 0, 0, 1322.388671875
37, 0, 0, 1338.304077148438
38, 0, 0, 1339.25927734375
39, 0, 0, 1354.399047851562
40, 0, 0, 1366.250610351562
41, 0, 0, 1371.958251953125
42, 0, 0, 1383.590942382812
43, 0, 0, 1393.382568359375
44, 0, 0, 1403.861083984375
45, 0, 0, 1417.086791992188
46, 0, 0, 1434.473266601562
47, 0, 0, 1443.91455078125
48, 0, 0, 1453.785522460938
49, 0, 0, 1465.356079101562
50, 0, 0, 1485.851440429688
51, 0, 0, 1502.723876953125
52, 0, 0, 1508.028076171875
53, 0, 0, 1532.379272460938
54, 0, 0, 1545.577270507812
55, 0, 0, 1570.085571289062
56, 0, 0, 1572.534790039062
57, 0, 0, 1596.882690429688
58, 0, 0, 1615.819702148438
59, 0, 0, 1637.396850585938
60, 0, 0, 1659.105224609375
61, 0, 0, 1680.554809570312
62, 0, 0, 1707.37451171875
63, 0, 0, 1733.57666015625
64, 0, 0, 1761.775024414062
65, 0, 0, 1772.281494140625
66, 0, 0, 1813.892456054688
67, 0, 0, 1844.439331054688
68, 0, 0, 1870.949462890625
69, 0, 0, 1903.202270507812
70, 0, 0, 1933.435913085938
71, 0, 0, 1969.481079101562
72, 0, 0, 2022.122802734375
73, 0, 0, 2060.54931640625
74, 0, 0, 2108.0029296875
75, 0, 0, 2158.536865234375
76, 0, 0, 2216.178955078125
77, 0, 0, 2280.519775390625
78, 0, 0, 2347.004638671875
79, 0, 0, 2420.2451171875
80, 0, 0, 2511.4638671875
81, 0, 0, 2601.498779296875
82, 0, 0, 2710.66064453125
83, 0, 0, 2830.03173828125
84, 0, 0, 2986.176513671875
85, 0, 0, 3161.120361328125
86, 0, 0, 3377.70263671875
87, 0, 0, 3666.706298828125
88, 0, 0, 4091.759521484375
89, 0, 0, 4711.19384765625
90, 0, 0, 5482.83447265625
91, 0, 0, 6035.3603515625
92, 0, 0, 6085.6083984375
93, 0, 0, 4352.62451171875
94, 0, 0, 2283.031494140625
95, 0, 0, 694.3818969726562
96, 0, 0, 106.0678482055664
97, 0, 0, 6.099928855895996
98, 0, 0, 0.04093353450298309
99, 0, 0, 0
100, 0, 0, 0
101, 0, 0, 0
102, 0, 0, 0
103, 0, 0, 0
104, 0, 0, 0
105, 0, 0, 0
106, 0, 0, 0
107, 0, 0, 0
108, 0, 0, 0
109, 0, 0, 0
110, 0, 0, 0.003262266982346773
111, 0, 0, 0
112, 0, 0, 0
113, 0, 0, 0
114, 0, 0, 0
115, 0, 0, 0
116, 0, 0, 0
117, 0, 0, 0
118, 0, 0, 0
119, 0, 0, 0.04549503698945045
120, 0, 0, 0
121, 0, 0, 0
122, 0, 0, 0
123, 0, 0, 0
124, 0, 0, 0
125, 0, 0, 0
126, 0, 0, 0
127, 0, 0, 0
128, 0, 0, 0
129, 0, 0, 0
130, 0, 0, 0
131, 0, 0, 0
132, 0, 0, 0
133, 0, 0, 0
134, 0, 0, 0
135, 0, 0, 0
136, 0, 0, 0
137, 0, 0, 0
138, 0, 0, 0
139, 0, 0, 0
140, 0, 0, 0
141, 0, 0, 0
142, 0, 0, 0
143, 0, 0, 0
144, 0, 0, 0
145, 0, 0, 0
146, 0, 0, 0
147, 0, 0, 0
148, 0, 0, 0
149, 0, 0, 0
150, 0, 0, 0
151, 0, 0, 0
152, 0, 0, 0
153, 0, 0, 0
154, 0, 0, 0
155, 0, 0, 0
156, 0, 0, 0
157, 0, 0, 0
158, 0, 0, 0
159, 0, 0, 0
160, 0, 0, 0
161, 0, 0, 0
162, 0, 0, 0
163, 0, 0, 0
164, 0, 0, 0
165, 0, 0, 0
166, 0, 0, 0
167, 0, 0, 0
168, 0, 0, 0
169, 0, 0, 0
170, 0, 0, 0
171, 0, 0, 0
172, 0, 0, 0
173, 0, 0, 0
174, 0, 0, 0
175, 0, 0, 0
176, 0, 0, 0
177, 0, 0, 0
178, 0, 0, 0
179, 0, 0, 0
