# TOPAS Version: 3.3.p1
# Parameter File: Simple_Pattern.txt
# Results for scorer MLIC_Scorer
# Scored in component: MLIC
# X in 180 bins of 0.222222 cm
# Y in 1 bin  of 10 cm
# Z in 1 bin  of 10 cm
# EnergyDeposit ( MeV ) : Sum   
0, 0, 0, 96.22180938720703
1, 0, 0, 99.26824951171875
2, 0, 0, 99.24051666259766
3, 0, 0, 98.38646697998047
4, 0, 0, 100.4783401489258
5, 0, 0, 102.1428985595703
6, 0, 0, 103.7555160522461
7, 0, 0, 102.5860595703125
8, 0, 0, 101.2580184936523
9, 0, 0, 102.6729125976562
10, 0, 0, 103.3108215332031
11, 0, 0, 104.5616607666016
12, 0, 0, 105.2800140380859
13, 0, 0, 104.4377517700195
14, 0, 0, 105.7382888793945
15, 0, 0, 105.1019744873047
16, 0, 0, 106.9244613647461
17, 0, 0, 106.5586318969727
18, 0, 0, 109.7881088256836
19, 0, 0, 111.0677337646484
20, 0, 0, 110.3742370605469
21, 0, 0, 112.1587066650391
22, 0, 0, 110.3867034912109
23, 0, 0, 111.2775650024414
24, 0, 0, 113.0977325439453
25, 0, 0, 113.9364624023438
26, 0, 0, 116.712028503418
27, 0, 0, 114.921630859375
28, 0, 0, 115.3620758056641
29, 0, 0, 117.7486801147461
30, 0, 0, 119.0159530639648
31, 0, 0, 117.3727493286133
32, 0, 0, 119.7433013916016
33, 0, 0, 123.2334289550781
34, 0, 0, 123.1318893432617
35, 0, 0, 123.381706237793
36, 0, 0, 123.1586990356445
37, 0, 0, 124.1544723510742
38, 0, 0, 124.5414352416992
39, 0, 0, 128.0409545898438
40, 0, 0, 131.1430206298828
41, 0, 0, 132.1703338623047
42, 0, 0, 132.0090789794922
43, 0, 0, 132.1383209228516
44, 0, 0, 136.4121856689453
45, 0, 0, 139.4548797607422
46, 0, 0, 136.4207000732422
47, 0, 0, 139.5079193115234
48, 0, 0, 144.5631408691406
49, 0, 0, 145.0331115722656
50, 0, 0, 146.4391937255859
51, 0, 0, 150.4415435791016
52, 0, 0, 151.5790710449219
53, 0, 0, 152.9809417724609
54, 0, 0, 155.8635559082031
55, 0, 0, 160.2430725097656
56, 0, 0, 162.5995025634766
57, 0, 0, 164.2199249267578
58, 0, 0, 168.7472839355469
59, 0, 0, 171.1662902832031
60, 0, 0, 176.6062774658203
61, 0, 0, 179.3462371826172
62, 0, 0, 184.1249847412109
63, 0, 0, 187.6609191894531
64, 0, 0, 193.0159759521484
65, 0, 0, 198.3861999511719
66, 0, 0, 207.9788208007812
67, 0, 0, 213.8331756591797
68, 0, 0, 222.7268218994141
69, 0, 0, 231.7227478027344
70, 0, 0, 242.8449249267578
71, 0, 0, 254.2499237060547
72, 0, 0, 270.0094299316406
73, 0, 0, 290.291748046875
74, 0, 0, 313.8190307617188
75, 0, 0, 354.9965209960938
76, 0, 0, 409.1089477539062
77, 0, 0, 444.1163024902344
78, 0, 0, 525.7068481445312
79, 0, 0, 533.7180786132812
80, 0, 0, 344.3477172851562
81, 0, 0, 174.025390625
82, 0, 0, 67.49053192138672
83, 0, 0, 17.53200149536133
84, 0, 0, 0
85, 0, 0, 0
86, 0, 0, 0
87, 0, 0, 0
88, 0, 0, 0
89, 0, 0, 0
90, 0, 0, 0
91, 0, 0, 0
92, 0, 0, 0
93, 0, 0, 0
94, 0, 0, 0
95, 0, 0, 0
96, 0, 0, 0
97, 0, 0, 0
98, 0, 0, 0
99, 0, 0, 0
100, 0, 0, 0
101, 0, 0, 0
102, 0, 0, 0
103, 0, 0, 0
104, 0, 0, 0
105, 0, 0, 0
106, 0, 0, 0
107, 0, 0, 0
108, 0, 0, 0
109, 0, 0, 0
110, 0, 0, 0
111, 0, 0, 0
112, 0, 0, 0
113, 0, 0, 0
114, 0, 0, 0
115, 0, 0, 0
116, 0, 0, 0
117, 0, 0, 0
118, 0, 0, 0
119, 0, 0, 0
120, 0, 0, 0
121, 0, 0, 0
122, 0, 0, 0
123, 0, 0, 0
124, 0, 0, 0
125, 0, 0, 0
126, 0, 0, 0
127, 0, 0, 0
128, 0, 0, 0
129, 0, 0, 0
130, 0, 0, 0
131, 0, 0, 0
132, 0, 0, 0
133, 0, 0, 0
134, 0, 0, 0
135, 0, 0, 0
136, 0, 0, 0
137, 0, 0, 0
138, 0, 0, 0
139, 0, 0, 0
140, 0, 0, 0
141, 0, 0, 0
142, 0, 0, 0
143, 0, 0, 0
144, 0, 0, 0
145, 0, 0, 0
146, 0, 0, 0
147, 0, 0, 0
148, 0, 0, 0
149, 0, 0, 0
150, 0, 0, 0
151, 0, 0, 0
152, 0, 0, 0
153, 0, 0, 0
154, 0, 0, 0
155, 0, 0, 0
156, 0, 0, 0
157, 0, 0, 0
158, 0, 0, 0
159, 0, 0, 0
160, 0, 0, 0
161, 0, 0, 0
162, 0, 0, 0
163, 0, 0, 0
164, 0, 0, 0
165, 0, 0, 0
166, 0, 0, 0
167, 0, 0, 0
168, 0, 0, 0
169, 0, 0, 0
170, 0, 0, 0
171, 0, 0, 0
172, 0, 0, 0
173, 0, 0, 0
174, 0, 0, 0
175, 0, 0, 0
176, 0, 0, 0
177, 0, 0, 0
178, 0, 0, 0
179, 0, 0, 0
