# TOPAS Version: 3.3.p1
# Parameter File: Simple_Pattern.txt
# Results for scorer MLIC_Scorer
# Scored in component: MLIC
# X in 165 bins of 0.2 cm
# Y in 1 bin  of 10 cm
# Z in 1 bin  of 10 cm
# EnergyDeposit ( MeV ) : Sum   
0, 0, 0, 934.0106201171875
1, 0, 0, 943.8848266601562
2, 0, 0, 948.4511108398438
3, 0, 0, 947.1100463867188
4, 0, 0, 947.8107299804688
5, 0, 0, 956.4725952148438
6, 0, 0, 971.1458129882812
7, 0, 0, 966.6229248046875
8, 0, 0, 962.2105712890625
9, 0, 0, 963.3826904296875
10, 0, 0, 975.528076171875
11, 0, 0, 970.4188842773438
12, 0, 0, 982.0718383789062
13, 0, 0, 984.2993774414062
14, 0, 0, 981.5322265625
15, 0, 0, 988.4105224609375
16, 0, 0, 988.4981689453125
17, 0, 0, 994.0029296875
18, 0, 0, 998.8761596679688
19, 0, 0, 1003.811767578125
20, 0, 0, 1010.066711425781
21, 0, 0, 1010.587097167969
22, 0, 0, 1012.85595703125
23, 0, 0, 1020.288269042969
24, 0, 0, 1029.157104492188
25, 0, 0, 1030.243896484375
26, 0, 0, 1041.218139648438
27, 0, 0, 1033.654296875
28, 0, 0, 1046.7177734375
29, 0, 0, 1052.695678710938
30, 0, 0, 1054.487426757812
31, 0, 0, 1052.550048828125
32, 0, 0, 1060.925170898438
33, 0, 0, 1069.552978515625
34, 0, 0, 1067.068237304688
35, 0, 0, 1086.93017578125
36, 0, 0, 1080.699584960938
37, 0, 0, 1091.636474609375
38, 0, 0, 1091.734985351562
39, 0, 0, 1100.888671875
40, 0, 0, 1110.79541015625
41, 0, 0, 1111.700805664062
42, 0, 0, 1116.334106445312
43, 0, 0, 1124.6494140625
44, 0, 0, 1126.734741210938
45, 0, 0, 1141.629028320312
46, 0, 0, 1142.800537109375
47, 0, 0, 1158.017700195312
48, 0, 0, 1164.419067382812
49, 0, 0, 1171.01171875
50, 0, 0, 1174.834716796875
51, 0, 0, 1177.602661132812
52, 0, 0, 1190.217529296875
53, 0, 0, 1199.412231445312
54, 0, 0, 1200.093383789062
55, 0, 0, 1213.3115234375
56, 0, 0, 1221.64306640625
57, 0, 0, 1229.644653320312
58, 0, 0, 1237.5927734375
59, 0, 0, 1245.236083984375
60, 0, 0, 1247.245849609375
61, 0, 0, 1268.148193359375
62, 0, 0, 1269.253051757812
63, 0, 0, 1290.588745117188
64, 0, 0, 1298.063110351562
65, 0, 0, 1302.458251953125
66, 0, 0, 1321.73876953125
67, 0, 0, 1323.442993164062
68, 0, 0, 1339.749267578125
69, 0, 0, 1348.199951171875
70, 0, 0, 1357.864135742188
71, 0, 0, 1375.304443359375
72, 0, 0, 1382.171020507812
73, 0, 0, 1414.74951171875
74, 0, 0, 1427.426879882812
75, 0, 0, 1430.40966796875
76, 0, 0, 1442.878051757812
77, 0, 0, 1454.945068359375
78, 0, 0, 1475.315673828125
79, 0, 0, 1507.767333984375
80, 0, 0, 1513.684814453125
81, 0, 0, 1536.141357421875
82, 0, 0, 1557.895751953125
83, 0, 0, 1577.122680664062
84, 0, 0, 1602.870849609375
85, 0, 0, 1617.044311523438
86, 0, 0, 1640.935546875
87, 0, 0, 1672.1416015625
88, 0, 0, 1688.472778320312
89, 0, 0, 1724.619995117188
90, 0, 0, 1758.72265625
91, 0, 0, 1784.479614257812
92, 0, 0, 1828.711059570312
93, 0, 0, 1852.385375976562
94, 0, 0, 1891.66845703125
95, 0, 0, 1937.418579101562
96, 0, 0, 1978.484619140625
97, 0, 0, 2021.904907226562
98, 0, 0, 2070.901123046875
99, 0, 0, 2129.795654296875
100, 0, 0, 2197.56787109375
101, 0, 0, 2254.85595703125
102, 0, 0, 2335.804443359375
103, 0, 0, 2430.144775390625
104, 0, 0, 2531.02783203125
105, 0, 0, 2642.190185546875
106, 0, 0, 2782.500732421875
107, 0, 0, 2938.9365234375
108, 0, 0, 3147.927734375
109, 0, 0, 3432.599609375
110, 0, 0, 3790.287353515625
111, 0, 0, 4278.1279296875
112, 0, 0, 4849.40771484375
113, 0, 0, 5452.7548828125
114, 0, 0, 5354.83154296875
115, 0, 0, 4461.9443359375
116, 0, 0, 2780.116943359375
117, 0, 0, 1346.353393554688
118, 0, 0, 457.6167297363281
119, 0, 0, 138.2148284912109
120, 0, 0, 31.87545394897461
121, 0, 0, 8.994053840637207
122, 0, 0, 6.021318435668945
123, 0, 0, 0
124, 0, 0, 0
125, 0, 0, 0
126, 0, 0, 0.0009599478216841817
127, 0, 0, 0
128, 0, 0, 0
129, 0, 0, 0.01298377104103565
130, 0, 0, 0
131, 0, 0, 0
132, 0, 0, 0
133, 0, 0, 0
134, 0, 0, 0
135, 0, 0, 0
136, 0, 0, 0
137, 0, 0, 0
138, 0, 0, 0.005842161364853382
139, 0, 0, 0
140, 0, 0, 0
141, 0, 0, 0
142, 0, 0, 0
143, 0, 0, 0
144, 0, 0, 0
145, 0, 0, 0
146, 0, 0, 0
147, 0, 0, 0
148, 0, 0, 0
149, 0, 0, 0
150, 0, 0, 0
151, 0, 0, 0
152, 0, 0, 0
153, 0, 0, 0
154, 0, 0, 0
155, 0, 0, 0
156, 0, 0, 0
157, 0, 0, 0
158, 0, 0, 0
159, 0, 0, 0
160, 0, 0, 0
161, 0, 0, 0
162, 0, 0, 0
163, 0, 0, 0
164, 0, 0, 0
