# TOPAS Version: 3.3.p1
# Parameter File: Simple_Pattern.txt
# Results for scorer MLIC_Scorer
# Scored in component: MLIC
# X in 180 bins of 0.222222 cm
# Y in 1 bin  of 10 cm
# Z in 1 bin  of 10 cm
# EnergyDeposit ( MeV ) : Sum   
0, 0, 0, 44.84272384643555
1, 0, 0, 44.92035293579102
2, 0, 0, 43.85163879394531
3, 0, 0, 45.0950927734375
4, 0, 0, 45.63664245605469
5, 0, 0, 44.80340576171875
6, 0, 0, 46.87762451171875
7, 0, 0, 45.80171966552734
8, 0, 0, 46.21000671386719
9, 0, 0, 48.39826202392578
10, 0, 0, 46.98939895629883
11, 0, 0, 49.60714721679688
12, 0, 0, 49.3436164855957
13, 0, 0, 49.37740325927734
14, 0, 0, 49.88092422485352
15, 0, 0, 47.81673812866211
16, 0, 0, 48.71460723876953
17, 0, 0, 48.43254470825195
18, 0, 0, 49.88923263549805
19, 0, 0, 50.01232147216797
20, 0, 0, 48.59055328369141
21, 0, 0, 50.75865936279297
22, 0, 0, 51.98273086547852
23, 0, 0, 51.34391021728516
24, 0, 0, 52.15915298461914
25, 0, 0, 52.73559188842773
26, 0, 0, 52.96409225463867
27, 0, 0, 51.86556243896484
28, 0, 0, 53.49761581420898
29, 0, 0, 52.50265502929688
30, 0, 0, 53.11506271362305
31, 0, 0, 55.55618667602539
32, 0, 0, 54.77103042602539
33, 0, 0, 56.13261032104492
34, 0, 0, 55.59423828125
35, 0, 0, 55.37765884399414
36, 0, 0, 56.60321044921875
37, 0, 0, 57.11651992797852
38, 0, 0, 56.52242279052734
39, 0, 0, 58.48922729492188
40, 0, 0, 58.02386093139648
41, 0, 0, 58.96321105957031
42, 0, 0, 61.60028839111328
43, 0, 0, 62.32289505004883
44, 0, 0, 62.12976455688477
45, 0, 0, 62.69816589355469
46, 0, 0, 61.34197235107422
47, 0, 0, 63.24978256225586
48, 0, 0, 64.38677215576172
49, 0, 0, 65.8037109375
50, 0, 0, 65.75502777099609
51, 0, 0, 66.68244171142578
52, 0, 0, 67.441650390625
53, 0, 0, 69.2762451171875
54, 0, 0, 72.09497833251953
55, 0, 0, 71.86232757568359
56, 0, 0, 73.06062316894531
57, 0, 0, 73.91905212402344
58, 0, 0, 75.83528900146484
59, 0, 0, 77.36191558837891
60, 0, 0, 79.23282623291016
61, 0, 0, 81.9241943359375
62, 0, 0, 82.34392547607422
63, 0, 0, 85.56487274169922
64, 0, 0, 86.15850067138672
65, 0, 0, 90.60871887207031
66, 0, 0, 92.67523193359375
67, 0, 0, 94.51863861083984
68, 0, 0, 100.615966796875
69, 0, 0, 103.3152770996094
70, 0, 0, 108.101448059082
71, 0, 0, 113.7658081054688
72, 0, 0, 119.7844772338867
73, 0, 0, 126.3128280639648
74, 0, 0, 136.5792083740234
75, 0, 0, 152.8403015136719
76, 0, 0, 169.6071624755859
77, 0, 0, 175.7528228759766
78, 0, 0, 222.7886810302734
79, 0, 0, 248.3128967285156
80, 0, 0, 225.8407745361328
81, 0, 0, 117.5637130737305
82, 0, 0, 49.59057235717773
83, 0, 0, 19.54633522033691
84, 0, 0, 3.186948776245117
85, 0, 0, 3.04069972038269
86, 0, 0, 3.792090892791748
87, 0, 0, 4.277089595794678
88, 0, 0, 4.801496505737305
89, 0, 0, 6.159835815429688
90, 0, 0, 9.208515167236328
91, 0, 0, 6.900588512420654
92, 0, 0, 0
93, 0, 0, 0
94, 0, 0, 0
95, 0, 0, 0
96, 0, 0, 0
97, 0, 0, 0
98, 0, 0, 0
99, 0, 0, 0
100, 0, 0, 0
101, 0, 0, 0
102, 0, 0, 0
103, 0, 0, 0
104, 0, 0, 0
105, 0, 0, 0
106, 0, 0, 0
107, 0, 0, 0
108, 0, 0, 0
109, 0, 0, 0
110, 0, 0, 0
111, 0, 0, 0
112, 0, 0, 0
113, 0, 0, 0
114, 0, 0, 0
115, 0, 0, 0
116, 0, 0, 0
117, 0, 0, 0
118, 0, 0, 0
119, 0, 0, 0
120, 0, 0, 0
121, 0, 0, 0
122, 0, 0, 0
123, 0, 0, 0
124, 0, 0, 0
125, 0, 0, 0
126, 0, 0, 0
127, 0, 0, 0
128, 0, 0, 0
129, 0, 0, 0
130, 0, 0, 0
131, 0, 0, 0
132, 0, 0, 0
133, 0, 0, 0
134, 0, 0, 0
135, 0, 0, 0
136, 0, 0, 0
137, 0, 0, 0
138, 0, 0, 0
139, 0, 0, 0
140, 0, 0, 0
141, 0, 0, 0
142, 0, 0, 0
143, 0, 0, 0
144, 0, 0, 0
145, 0, 0, 0
146, 0, 0, 0
147, 0, 0, 0
148, 0, 0, 0
149, 0, 0, 0
150, 0, 0, 0
151, 0, 0, 0
152, 0, 0, 0
153, 0, 0, 0
154, 0, 0, 0
155, 0, 0, 0
156, 0, 0, 0
157, 0, 0, 0
158, 0, 0, 0
159, 0, 0, 0
160, 0, 0, 0
161, 0, 0, 0
162, 0, 0, 0
163, 0, 0, 0
164, 0, 0, 0
165, 0, 0, 0
166, 0, 0, 0
167, 0, 0, 0
168, 0, 0, 0
169, 0, 0, 0
170, 0, 0, 0
171, 0, 0, 0
172, 0, 0, 0
173, 0, 0, 0
174, 0, 0, 0
175, 0, 0, 0
176, 0, 0, 0
177, 0, 0, 0
178, 0, 0, 0
179, 0, 0, 0
