# TOPAS Version: 3.3.p1
# Parameter File: Simple_Pattern.txt
# Results for scorer MLIC_Scorer
# Scored in component: MLIC
# X in 180 bins of 0.222222 cm
# Y in 1 bin  of 10 cm
# Z in 1 bin  of 10 cm
# EnergyDeposit ( MeV ) : Sum   
0, 0, 0, 1089.912719726562
1, 0, 0, 1092.43603515625
2, 0, 0, 1097.38037109375
3, 0, 0, 1102.61328125
4, 0, 0, 1108.435302734375
5, 0, 0, 1104.854858398438
6, 0, 0, 1113.546264648438
7, 0, 0, 1120.97412109375
8, 0, 0, 1131.16748046875
9, 0, 0, 1135.676879882812
10, 0, 0, 1137.226806640625
11, 0, 0, 1144.038208007812
12, 0, 0, 1143.872924804688
13, 0, 0, 1161.647216796875
14, 0, 0, 1151.535766601562
15, 0, 0, 1175.676147460938
16, 0, 0, 1168.968627929688
17, 0, 0, 1176.775268554688
18, 0, 0, 1179.211669921875
19, 0, 0, 1189.626953125
20, 0, 0, 1187.219360351562
21, 0, 0, 1202.948120117188
22, 0, 0, 1199.997924804688
23, 0, 0, 1209.833618164062
24, 0, 0, 1226.80224609375
25, 0, 0, 1220.228393554688
26, 0, 0, 1238.560180664062
27, 0, 0, 1243.932983398438
28, 0, 0, 1254.08203125
29, 0, 0, 1250.211181640625
30, 0, 0, 1263.502319335938
31, 0, 0, 1264.151000976562
32, 0, 0, 1289.736206054688
33, 0, 0, 1292.5576171875
34, 0, 0, 1291.931396484375
35, 0, 0, 1302.970703125
36, 0, 0, 1318.344360351562
37, 0, 0, 1332.385498046875
38, 0, 0, 1334.869140625
39, 0, 0, 1355.604736328125
40, 0, 0, 1359.399658203125
41, 0, 0, 1364.090576171875
42, 0, 0, 1380.91015625
43, 0, 0, 1392.365478515625
44, 0, 0, 1408.34375
45, 0, 0, 1409.54931640625
46, 0, 0, 1418.61572265625
47, 0, 0, 1439.026977539062
48, 0, 0, 1445.857543945312
49, 0, 0, 1458.547729492188
50, 0, 0, 1472.547241210938
51, 0, 0, 1488.911010742188
52, 0, 0, 1499.943115234375
53, 0, 0, 1517.84228515625
54, 0, 0, 1538.204833984375
55, 0, 0, 1545.4248046875
56, 0, 0, 1576.36865234375
57, 0, 0, 1582.888549804688
58, 0, 0, 1608.197509765625
59, 0, 0, 1633.125
60, 0, 0, 1652.36572265625
61, 0, 0, 1671.844482421875
62, 0, 0, 1695.467895507812
63, 0, 0, 1710.914916992188
64, 0, 0, 1746.257568359375
65, 0, 0, 1773.810180664062
66, 0, 0, 1806.543212890625
67, 0, 0, 1823.577026367188
68, 0, 0, 1849.719116210938
69, 0, 0, 1884.03759765625
70, 0, 0, 1911.06396484375
71, 0, 0, 1947.877197265625
72, 0, 0, 1994.903076171875
73, 0, 0, 2032.254638671875
74, 0, 0, 2075.554931640625
75, 0, 0, 2132.620849609375
76, 0, 0, 2177.0341796875
77, 0, 0, 2228.94970703125
78, 0, 0, 2297.3818359375
79, 0, 0, 2355.583251953125
80, 0, 0, 2448.7451171875
81, 0, 0, 2538.044189453125
82, 0, 0, 2644.713623046875
83, 0, 0, 2758.149658203125
84, 0, 0, 2896.467529296875
85, 0, 0, 3063.655029296875
86, 0, 0, 3273.269287109375
87, 0, 0, 3545.450927734375
88, 0, 0, 3911.718994140625
89, 0, 0, 4521.13330078125
90, 0, 0, 5268.68994140625
91, 0, 0, 5930.49267578125
92, 0, 0, 5677.99169921875
93, 0, 0, 4139.56787109375
94, 0, 0, 2144.293701171875
95, 0, 0, 836.463134765625
96, 0, 0, 169.4909973144531
97, 0, 0, 18.36373901367188
98, 0, 0, 0
99, 0, 0, 0.03647557646036148
100, 0, 0, 0.001820696168579161
101, 0, 0, 0
102, 0, 0, 0
103, 0, 0, 0
104, 0, 0, 0
105, 0, 0, 0
106, 0, 0, 0
107, 0, 0, 0
108, 0, 0, 0
109, 0, 0, 0.004626944195479155
110, 0, 0, 0
111, 0, 0, 0
112, 0, 0, 0
113, 0, 0, 0
114, 0, 0, 0
115, 0, 0, 0
116, 0, 0, 0
117, 0, 0, 0
118, 0, 0, 0
119, 0, 0, 0.01140179578214884
120, 0, 0, 0
121, 0, 0, 0
122, 0, 0, 0
123, 0, 0, 0
124, 0, 0, 0
125, 0, 0, 0
126, 0, 0, 0
127, 0, 0, 0
128, 0, 0, 0
129, 0, 0, 0.08703335374593735
130, 0, 0, 0
131, 0, 0, 0
132, 0, 0, 0
133, 0, 0, 0.03584008663892746
134, 0, 0, 0
135, 0, 0, 0
136, 0, 0, 0
137, 0, 0, 0
138, 0, 0, 0
139, 0, 0, 0
140, 0, 0, 0
141, 0, 0, 0
142, 0, 0, 0
143, 0, 0, 0
144, 0, 0, 0
145, 0, 0, 0
146, 0, 0, 0
147, 0, 0, 0
148, 0, 0, 0
149, 0, 0, 0
150, 0, 0, 0
151, 0, 0, 0
152, 0, 0, 0
153, 0, 0, 0
154, 0, 0, 0
155, 0, 0, 0
156, 0, 0, 0
157, 0, 0, 0
158, 0, 0, 0
159, 0, 0, 0
160, 0, 0, 0
161, 0, 0, 0
162, 0, 0, 0
163, 0, 0, 0
164, 0, 0, 0
165, 0, 0, 0
166, 0, 0, 0
167, 0, 0, 0
168, 0, 0, 0
169, 0, 0, 0
170, 0, 0, 0
171, 0, 0, 0
172, 0, 0, 0
173, 0, 0, 0
174, 0, 0, 0
175, 0, 0, 0
176, 0, 0, 0
177, 0, 0, 0
178, 0, 0, 0
179, 0, 0, 0
