# TOPAS Version: 3.3.p1
# Parameter File: Simple_Pattern.txt
# Results for scorer MLIC_Scorer
# Scored in component: MLIC
# X in 180 bins of 0.222222 cm
# Y in 1 bin  of 10 cm
# Z in 1 bin  of 10 cm
# EnergyDeposit ( MeV ) : Sum   
0, 0, 0, 1089.035522460938
1, 0, 0, 1090.726928710938
2, 0, 0, 1091.407104492188
3, 0, 0, 1106.194580078125
4, 0, 0, 1102.810302734375
5, 0, 0, 1106.169555664062
6, 0, 0, 1111.970581054688
7, 0, 0, 1111.236083984375
8, 0, 0, 1122.523559570312
9, 0, 0, 1133.8779296875
10, 0, 0, 1120.041137695312
11, 0, 0, 1137.4775390625
12, 0, 0, 1139.82275390625
13, 0, 0, 1138.13720703125
14, 0, 0, 1149.53466796875
15, 0, 0, 1152.093994140625
16, 0, 0, 1153.022705078125
17, 0, 0, 1169.038452148438
18, 0, 0, 1166.2548828125
19, 0, 0, 1186.495849609375
20, 0, 0, 1176.365600585938
21, 0, 0, 1182.535278320312
22, 0, 0, 1189.423583984375
23, 0, 0, 1192.026611328125
24, 0, 0, 1199.626708984375
25, 0, 0, 1202.530029296875
26, 0, 0, 1206.890502929688
27, 0, 0, 1210.121948242188
28, 0, 0, 1219.916137695312
29, 0, 0, 1216.296630859375
30, 0, 0, 1217.519287109375
31, 0, 0, 1222.900634765625
32, 0, 0, 1232.03125
33, 0, 0, 1232.477905273438
34, 0, 0, 1235.475952148438
35, 0, 0, 1239.829467773438
36, 0, 0, 1242.890014648438
37, 0, 0, 1248.234130859375
38, 0, 0, 1254.070556640625
39, 0, 0, 1268.620849609375
40, 0, 0, 1269.951782226562
41, 0, 0, 1267.19677734375
42, 0, 0, 1290.189819335938
43, 0, 0, 1281.130493164062
44, 0, 0, 1298.06201171875
45, 0, 0, 1308.859741210938
46, 0, 0, 1305.181396484375
47, 0, 0, 1319.402221679688
48, 0, 0, 1322.538940429688
49, 0, 0, 1338.007446289062
50, 0, 0, 1342.671264648438
51, 0, 0, 1348.094482421875
52, 0, 0, 1360.377197265625
53, 0, 0, 1358.119262695312
54, 0, 0, 1382.503051757812
55, 0, 0, 1383.513427734375
56, 0, 0, 1392.95458984375
57, 0, 0, 1415.4091796875
58, 0, 0, 1429.845581054688
59, 0, 0, 1434.53369140625
60, 0, 0, 1455.130493164062
61, 0, 0, 1459.715454101562
62, 0, 0, 1479.968383789062
63, 0, 0, 1499.1943359375
64, 0, 0, 1506.702026367188
65, 0, 0, 1527.35693359375
66, 0, 0, 1542.767700195312
67, 0, 0, 1555.284545898438
68, 0, 0, 1579.086303710938
69, 0, 0, 1595.814819335938
70, 0, 0, 1618.789428710938
71, 0, 0, 1653.225830078125
72, 0, 0, 1672.944946289062
73, 0, 0, 1706.16357421875
74, 0, 0, 1732.388916015625
75, 0, 0, 1770.89404296875
76, 0, 0, 1807.246704101562
77, 0, 0, 1854.219482421875
78, 0, 0, 1893.262329101562
79, 0, 0, 1949.314697265625
80, 0, 0, 1998.09521484375
81, 0, 0, 2069.672119140625
82, 0, 0, 2157.613037109375
83, 0, 0, 2235.1689453125
84, 0, 0, 2335.114990234375
85, 0, 0, 2459.486572265625
86, 0, 0, 2617.859619140625
87, 0, 0, 2841.7734375
88, 0, 0, 3142.2041015625
89, 0, 0, 3545.790771484375
90, 0, 0, 4171.6201171875
91, 0, 0, 4699.06396484375
92, 0, 0, 4666.29345703125
93, 0, 0, 3395.95263671875
94, 0, 0, 1730.394287109375
95, 0, 0, 513.3308715820312
96, 0, 0, 77.16543579101562
97, 0, 0, 16.54727363586426
98, 0, 0, 4.749892711639404
99, 0, 0, 0.0524270124733448
100, 0, 0, 0.02588079124689102
101, 0, 0, 0.03435775637626648
102, 0, 0, 0.04770153388381004
103, 0, 0, 0.01020860392600298
104, 0, 0, 0.02685471251606941
105, 0, 0, 0.03001686371862888
106, 0, 0, 0
107, 0, 0, 0
108, 0, 0, 0.003514009993523359
109, 0, 0, 0.006302435416728258
110, 0, 0, 0.03234423696994781
111, 0, 0, 0.04864168167114258
112, 0, 0, 0
113, 0, 0, 0.01672034896910191
114, 0, 0, 0
115, 0, 0, 0
116, 0, 0, 0
117, 0, 0, 0
118, 0, 0, 0.02378472127020359
119, 0, 0, 0
120, 0, 0, 0.009186184965074062
121, 0, 0, 0
122, 0, 0, 0
123, 0, 0, 0
124, 0, 0, 0.1405271589756012
125, 0, 0, 0
126, 0, 0, 0.2183191180229187
127, 0, 0, 0
128, 0, 0, 0
129, 0, 0, 0
130, 0, 0, 0
131, 0, 0, 0
132, 0, 0, 0
133, 0, 0, 0
134, 0, 0, 0
135, 0, 0, 0.1058468371629715
136, 0, 0, 0.002509567188099027
137, 0, 0, 0.001387508469633758
138, 0, 0, 0
139, 0, 0, 0
140, 0, 0, 0.01568292267620564
141, 0, 0, 0.01173126976937056
142, 0, 0, 0
143, 0, 0, 0.04682862013578415
144, 0, 0, 0.005364253651350737
145, 0, 0, 0.00561963627114892
146, 0, 0, 0
147, 0, 0, 0.01163574773818254
148, 0, 0, 0
149, 0, 0, 0
150, 0, 0, 0
151, 0, 0, 0
152, 0, 0, 0.0124007873237133
153, 0, 0, 0
154, 0, 0, 0
155, 0, 0, 0
156, 0, 0, 0.00904556829482317
157, 0, 0, 0
158, 0, 0, 0
159, 0, 0, 0
160, 0, 0, 0
161, 0, 0, 0.04212726280093193
162, 0, 0, 0
163, 0, 0, 0
164, 0, 0, 0.1141619756817818
165, 0, 0, 0.01636480167508125
166, 0, 0, 0
167, 0, 0, 0
168, 0, 0, 0
169, 0, 0, 0
170, 0, 0, 0
171, 0, 0, 0
172, 0, 0, 0.004363901447504759
173, 0, 0, 0
174, 0, 0, 0
175, 0, 0, 0
176, 0, 0, 0
177, 0, 0, 0
178, 0, 0, 0.06505268067121506
179, 0, 0, 0.00521172909066081
