# TOPAS Version: 3.3.p1
# Parameter File: Simple_Pattern.txt
# Results for scorer MLIC_Scorer
# Scored in component: MLIC
# X in 180 bins of 0.222222 cm
# Y in 1 bin  of 10 cm
# Z in 1 bin  of 10 cm
# EnergyDeposit ( MeV ) : Sum   
0, 0, 0, 1155.38623046875
1, 0, 0, 1174.02099609375
2, 0, 0, 1164.100708007812
3, 0, 0, 1166.689086914062
4, 0, 0, 1177.187622070312
5, 0, 0, 1181.542602539062
6, 0, 0, 1188.609130859375
7, 0, 0, 1195.0234375
8, 0, 0, 1199.796630859375
9, 0, 0, 1206.794067382812
10, 0, 0, 1215.035034179688
11, 0, 0, 1221.976440429688
12, 0, 0, 1228.267211914062
13, 0, 0, 1243.106201171875
14, 0, 0, 1240.768798828125
15, 0, 0, 1251.238525390625
16, 0, 0, 1257.521728515625
17, 0, 0, 1265.529907226562
18, 0, 0, 1269.669677734375
19, 0, 0, 1293.907958984375
20, 0, 0, 1298.664672851562
21, 0, 0, 1290.43701171875
22, 0, 0, 1307.838256835938
23, 0, 0, 1316.747314453125
24, 0, 0, 1329.390991210938
25, 0, 0, 1336.396728515625
26, 0, 0, 1351.455078125
27, 0, 0, 1357.7626953125
28, 0, 0, 1369.772094726562
29, 0, 0, 1379.5029296875
30, 0, 0, 1392.46337890625
31, 0, 0, 1402.655883789062
32, 0, 0, 1421.746215820312
33, 0, 0, 1424.9638671875
34, 0, 0, 1439.530883789062
35, 0, 0, 1448.23193359375
36, 0, 0, 1471.949340820312
37, 0, 0, 1477.997802734375
38, 0, 0, 1491.336303710938
39, 0, 0, 1504.980102539062
40, 0, 0, 1523.166259765625
41, 0, 0, 1543.470947265625
42, 0, 0, 1562.931884765625
43, 0, 0, 1575.786987304688
44, 0, 0, 1599.410522460938
45, 0, 0, 1613.751220703125
46, 0, 0, 1641.2705078125
47, 0, 0, 1656.789794921875
48, 0, 0, 1678.939819335938
49, 0, 0, 1700.561157226562
50, 0, 0, 1731.498779296875
51, 0, 0, 1748.849853515625
52, 0, 0, 1775.8037109375
53, 0, 0, 1807.649536132812
54, 0, 0, 1834.84619140625
55, 0, 0, 1864.269409179688
56, 0, 0, 1903.315551757812
57, 0, 0, 1935.54541015625
58, 0, 0, 1969.148681640625
59, 0, 0, 2009.821044921875
60, 0, 0, 2060.414794921875
61, 0, 0, 2100.88916015625
62, 0, 0, 2153.44873046875
63, 0, 0, 2210.2041015625
64, 0, 0, 2268.632080078125
65, 0, 0, 2334.104736328125
66, 0, 0, 2414.05859375
67, 0, 0, 2490.13525390625
68, 0, 0, 2587.906494140625
69, 0, 0, 2696.636474609375
70, 0, 0, 2813.010009765625
71, 0, 0, 2972.833251953125
72, 0, 0, 3140.1474609375
73, 0, 0, 3358.239501953125
74, 0, 0, 3652.60888671875
75, 0, 0, 4059.304931640625
76, 0, 0, 4681.31884765625
77, 0, 0, 5524.390625
78, 0, 0, 5978.38525390625
79, 0, 0, 5720.35498046875
80, 0, 0, 4499.42822265625
81, 0, 0, 2376.07763671875
82, 0, 0, 909.7482299804688
83, 0, 0, 298.7271423339844
84, 0, 0, 70.32727813720703
85, 0, 0, 53.83269882202148
86, 0, 0, 42.86118698120117
87, 0, 0, 42.84132385253906
88, 0, 0, 43.791748046875
89, 0, 0, 30.66627311706543
90, 0, 0, 42.75010681152344
91, 0, 0, 38.05434799194336
92, 0, 0, 33.86355590820312
93, 0, 0, 31.11111640930176
94, 0, 0, 31.95004463195801
95, 0, 0, 11.67857646942139
96, 0, 0, 0
97, 0, 0, 0
98, 0, 0, 0
99, 0, 0, 0
100, 0, 0, 0
101, 0, 0, 0
102, 0, 0, 0
103, 0, 0, 0
104, 0, 0, 0
105, 0, 0, 0
106, 0, 0, 0
107, 0, 0, 0.02305560931563377
108, 0, 0, 0
109, 0, 0, 0.02624591439962387
110, 0, 0, 0
111, 0, 0, 0
112, 0, 0, 0
113, 0, 0, 0
114, 0, 0, 0
115, 0, 0, 0
116, 0, 0, 0
117, 0, 0, 0
118, 0, 0, 0
119, 0, 0, 0
120, 0, 0, 0
121, 0, 0, 0
122, 0, 0, 0
123, 0, 0, 0
124, 0, 0, 0
125, 0, 0, 0
126, 0, 0, 0
127, 0, 0, 0
128, 0, 0, 0
129, 0, 0, 0
130, 0, 0, 0
131, 0, 0, 0
132, 0, 0, 0
133, 0, 0, 0
134, 0, 0, 0
135, 0, 0, 0
136, 0, 0, 0
137, 0, 0, 0
138, 0, 0, 0
139, 0, 0, 0
140, 0, 0, 0
141, 0, 0, 0
142, 0, 0, 0
143, 0, 0, 0
144, 0, 0, 0
145, 0, 0, 0
146, 0, 0, 0
147, 0, 0, 0
148, 0, 0, 0
149, 0, 0, 0
150, 0, 0, 0
151, 0, 0, 0
152, 0, 0, 0
153, 0, 0, 0
154, 0, 0, 0
155, 0, 0, 0
156, 0, 0, 0
157, 0, 0, 0
158, 0, 0, 0
159, 0, 0, 0
160, 0, 0, 0
161, 0, 0, 0
162, 0, 0, 0
163, 0, 0, 0
164, 0, 0, 0
165, 0, 0, 0
166, 0, 0, 0
167, 0, 0, 0
168, 0, 0, 0
169, 0, 0, 0
170, 0, 0, 0
171, 0, 0, 0
172, 0, 0, 0
173, 0, 0, 0
174, 0, 0, 0
175, 0, 0, 0
176, 0, 0, 0
177, 0, 0, 0
178, 0, 0, 0
179, 0, 0, 0
