# TOPAS Version: 3.3.p1
# Parameter File: Simple_Pattern.txt
# Results for scorer MLIC_Scorer
# Scored in component: MLIC
# X in 165 bins of 0.2 cm
# Y in 1 bin  of 10 cm
# Z in 1 bin  of 10 cm
# EnergyDeposit ( MeV ) : Sum   
0, 0, 0, 936.9798583984375
1, 0, 0, 935.9161987304688
2, 0, 0, 953.7354736328125
3, 0, 0, 949.771728515625
4, 0, 0, 949.4546508789062
5, 0, 0, 955.8842163085938
6, 0, 0, 951.76025390625
7, 0, 0, 958.7455444335938
8, 0, 0, 964.9977416992188
9, 0, 0, 971.1463623046875
10, 0, 0, 966.3637084960938
11, 0, 0, 974.2955322265625
12, 0, 0, 967.7091064453125
13, 0, 0, 980.5806884765625
14, 0, 0, 984.4890747070312
15, 0, 0, 990.9244995117188
16, 0, 0, 993.7660522460938
17, 0, 0, 997.6643676757812
18, 0, 0, 998.4620971679688
19, 0, 0, 1004.176940917969
20, 0, 0, 1007.848388671875
21, 0, 0, 1008.881469726562
22, 0, 0, 1015.35498046875
23, 0, 0, 1028.380249023438
24, 0, 0, 1029.38818359375
25, 0, 0, 1034.602905273438
26, 0, 0, 1039.646484375
27, 0, 0, 1044.908935546875
28, 0, 0, 1048.924194335938
29, 0, 0, 1055.31640625
30, 0, 0, 1058.8330078125
31, 0, 0, 1058.828125
32, 0, 0, 1065.25048828125
33, 0, 0, 1069.193725585938
34, 0, 0, 1074.809936523438
35, 0, 0, 1072.10400390625
36, 0, 0, 1085.763916015625
37, 0, 0, 1093.90380859375
38, 0, 0, 1100.708740234375
39, 0, 0, 1100.315673828125
40, 0, 0, 1106.28515625
41, 0, 0, 1109.28466796875
42, 0, 0, 1119.542602539062
43, 0, 0, 1127.106567382812
44, 0, 0, 1125.630981445312
45, 0, 0, 1139.260131835938
46, 0, 0, 1139.89697265625
47, 0, 0, 1160.233276367188
48, 0, 0, 1154.053100585938
49, 0, 0, 1163.290161132812
50, 0, 0, 1175.524169921875
51, 0, 0, 1182.640991210938
52, 0, 0, 1191.990478515625
53, 0, 0, 1195.809326171875
54, 0, 0, 1200.756958007812
55, 0, 0, 1211.555541992188
56, 0, 0, 1221.991943359375
57, 0, 0, 1225.3583984375
58, 0, 0, 1226.57666015625
59, 0, 0, 1243.347778320312
60, 0, 0, 1259.599731445312
61, 0, 0, 1269.832885742188
62, 0, 0, 1271.262329101562
63, 0, 0, 1282.51123046875
64, 0, 0, 1291.457153320312
65, 0, 0, 1309.144409179688
66, 0, 0, 1307.962280273438
67, 0, 0, 1329.286499023438
68, 0, 0, 1329.695556640625
69, 0, 0, 1346.615356445312
70, 0, 0, 1363.457641601562
71, 0, 0, 1381.397216796875
72, 0, 0, 1393.546875
73, 0, 0, 1394.88720703125
74, 0, 0, 1409.863647460938
75, 0, 0, 1427.878051757812
76, 0, 0, 1442.999267578125
77, 0, 0, 1459.669677734375
78, 0, 0, 1483.083374023438
79, 0, 0, 1497.40869140625
80, 0, 0, 1519.53759765625
81, 0, 0, 1537.31005859375
82, 0, 0, 1552.643920898438
83, 0, 0, 1574.89501953125
84, 0, 0, 1588.295654296875
85, 0, 0, 1610.558471679688
86, 0, 0, 1626.552856445312
87, 0, 0, 1668.557495117188
88, 0, 0, 1684.056762695312
89, 0, 0, 1708.039428710938
90, 0, 0, 1742.074340820312
91, 0, 0, 1767.146118164062
92, 0, 0, 1795.84912109375
93, 0, 0, 1829.262451171875
94, 0, 0, 1871.66650390625
95, 0, 0, 1911.565307617188
96, 0, 0, 1948.751708984375
97, 0, 0, 2009.290283203125
98, 0, 0, 2053.90087890625
99, 0, 0, 2114.73486328125
100, 0, 0, 2173.721435546875
101, 0, 0, 2238.643310546875
102, 0, 0, 2314.286865234375
103, 0, 0, 2400.049072265625
104, 0, 0, 2497.267333984375
105, 0, 0, 2598.263671875
106, 0, 0, 2734.008544921875
107, 0, 0, 2894.023681640625
108, 0, 0, 3091.628173828125
109, 0, 0, 3358.609619140625
110, 0, 0, 3736.8447265625
111, 0, 0, 4224.09033203125
112, 0, 0, 4794.95068359375
113, 0, 0, 5277.8857421875
114, 0, 0, 5066.4560546875
115, 0, 0, 4184.615234375
116, 0, 0, 3049.173828125
117, 0, 0, 1457.592163085938
118, 0, 0, 557.0415649414062
119, 0, 0, 109.7266845703125
120, 0, 0, 20.52429389953613
121, 0, 0, 0
122, 0, 0, 0
123, 0, 0, 0
124, 0, 0, 0.06695160269737244
125, 0, 0, 0.02550411783158779
126, 0, 0, 0
127, 0, 0, 0
128, 0, 0, 0.01888192258775234
129, 0, 0, 0
130, 0, 0, 0
131, 0, 0, 0
132, 0, 0, 0
133, 0, 0, 0
134, 0, 0, 0
135, 0, 0, 0
136, 0, 0, 0
137, 0, 0, 0
138, 0, 0, 0
139, 0, 0, 0
140, 0, 0, 0
141, 0, 0, 0
142, 0, 0, 0
143, 0, 0, 0.001720128580927849
144, 0, 0, 0
145, 0, 0, 0
146, 0, 0, 0
147, 0, 0, 0
148, 0, 0, 0
149, 0, 0, 0
150, 0, 0, 0
151, 0, 0, 0
152, 0, 0, 0
153, 0, 0, 0
154, 0, 0, 0
155, 0, 0, 0
156, 0, 0, 0
157, 0, 0, 0
158, 0, 0, 0
159, 0, 0, 0
160, 0, 0, 0
161, 0, 0, 0
162, 0, 0, 0
163, 0, 0, 0
164, 0, 0, 0
