# TOPAS Version: 3.3.p1
# Parameter File: Simple_Pattern.txt
# Results for scorer MLIC_Scorer
# Scored in component: MLIC
# X in 180 bins of 0.222222 cm
# Y in 1 bin  of 10 cm
# Z in 1 bin  of 10 cm
# EnergyDeposit ( MeV ) : Sum   
0, 0, 0, 58.12659072875977
1, 0, 0, 59.52824783325195
2, 0, 0, 59.50644302368164
3, 0, 0, 60.27162170410156
4, 0, 0, 61.38628768920898
5, 0, 0, 61.58077621459961
6, 0, 0, 60.28963851928711
7, 0, 0, 61.37352752685547
8, 0, 0, 62.29086303710938
9, 0, 0, 64.37120056152344
10, 0, 0, 63.8326530456543
11, 0, 0, 62.24924087524414
12, 0, 0, 66.31797790527344
13, 0, 0, 63.66684722900391
14, 0, 0, 61.76555633544922
15, 0, 0, 64.22921752929688
16, 0, 0, 65.63780975341797
17, 0, 0, 65.364013671875
18, 0, 0, 67.12773132324219
19, 0, 0, 66.64830017089844
20, 0, 0, 65.81945037841797
21, 0, 0, 67.2620849609375
22, 0, 0, 69.16342163085938
23, 0, 0, 67.30448150634766
24, 0, 0, 70.11363983154297
25, 0, 0, 70.59031677246094
26, 0, 0, 68.82503509521484
27, 0, 0, 71.12445068359375
28, 0, 0, 71.49740600585938
29, 0, 0, 72.16825103759766
30, 0, 0, 70.34523010253906
31, 0, 0, 73.59320068359375
32, 0, 0, 73.57122802734375
33, 0, 0, 76.12743377685547
34, 0, 0, 74.661376953125
35, 0, 0, 75.62491607666016
36, 0, 0, 77.04484558105469
37, 0, 0, 76.81187438964844
38, 0, 0, 77.9295654296875
39, 0, 0, 76.85974884033203
40, 0, 0, 79.6693115234375
41, 0, 0, 79.60143280029297
42, 0, 0, 80.43150329589844
43, 0, 0, 82.42513275146484
44, 0, 0, 82.81231689453125
45, 0, 0, 84.799072265625
46, 0, 0, 83.95313262939453
47, 0, 0, 86.24237823486328
48, 0, 0, 88.09672546386719
49, 0, 0, 89.20736694335938
50, 0, 0, 90.52349090576172
51, 0, 0, 89.29343414306641
52, 0, 0, 92.93412780761719
53, 0, 0, 92.39055633544922
54, 0, 0, 96.24391937255859
55, 0, 0, 97.96991729736328
56, 0, 0, 99.15213012695312
57, 0, 0, 99.07228851318359
58, 0, 0, 103.7089233398438
59, 0, 0, 105.7369995117188
60, 0, 0, 108.8352661132812
61, 0, 0, 110.5636215209961
62, 0, 0, 113.5249176025391
63, 0, 0, 115.2961196899414
64, 0, 0, 118.1440124511719
65, 0, 0, 121.5599899291992
66, 0, 0, 123.5984268188477
67, 0, 0, 129.8854064941406
68, 0, 0, 134.9795837402344
69, 0, 0, 140.2406158447266
70, 0, 0, 147.5753784179688
71, 0, 0, 154.6287689208984
72, 0, 0, 162.7364349365234
73, 0, 0, 176.155029296875
74, 0, 0, 188.5557861328125
75, 0, 0, 209.3397216796875
76, 0, 0, 241.2097473144531
77, 0, 0, 293.8106689453125
78, 0, 0, 306.67041015625
79, 0, 0, 305.4931335449219
80, 0, 0, 235.4848937988281
81, 0, 0, 141.2867126464844
82, 0, 0, 47.16613006591797
83, 0, 0, 5.834794998168945
84, 0, 0, 0
85, 0, 0, 0
86, 0, 0, 0
87, 0, 0, 0
88, 0, 0, 0
89, 0, 0, 0
90, 0, 0, 0
91, 0, 0, 0
92, 0, 0, 0
93, 0, 0, 0
94, 0, 0, 0
95, 0, 0, 0
96, 0, 0, 0
97, 0, 0, 0
98, 0, 0, 0
99, 0, 0, 0
100, 0, 0, 0
101, 0, 0, 0
102, 0, 0, 0
103, 0, 0, 0
104, 0, 0, 0
105, 0, 0, 0
106, 0, 0, 0
107, 0, 0, 0
108, 0, 0, 0
109, 0, 0, 0
110, 0, 0, 0
111, 0, 0, 0
112, 0, 0, 0
113, 0, 0, 0
114, 0, 0, 0
115, 0, 0, 0
116, 0, 0, 0
117, 0, 0, 0
118, 0, 0, 0
119, 0, 0, 0
120, 0, 0, 0
121, 0, 0, 0
122, 0, 0, 0
123, 0, 0, 0
124, 0, 0, 0
125, 0, 0, 0
126, 0, 0, 0
127, 0, 0, 0
128, 0, 0, 0
129, 0, 0, 0
130, 0, 0, 0
131, 0, 0, 0
132, 0, 0, 0
133, 0, 0, 0
134, 0, 0, 0
135, 0, 0, 0
136, 0, 0, 0
137, 0, 0, 0
138, 0, 0, 0
139, 0, 0, 0
140, 0, 0, 0
141, 0, 0, 0
142, 0, 0, 0
143, 0, 0, 0
144, 0, 0, 0
145, 0, 0, 0
146, 0, 0, 0
147, 0, 0, 0
148, 0, 0, 0
149, 0, 0, 0
150, 0, 0, 0
151, 0, 0, 0
152, 0, 0, 0
153, 0, 0, 0
154, 0, 0, 0
155, 0, 0, 0
156, 0, 0, 0
157, 0, 0, 0
158, 0, 0, 0
159, 0, 0, 0
160, 0, 0, 0
161, 0, 0, 0
162, 0, 0, 0
163, 0, 0, 0
164, 0, 0, 0
165, 0, 0, 0
166, 0, 0, 0
167, 0, 0, 0
168, 0, 0, 0
169, 0, 0, 0
170, 0, 0, 0
171, 0, 0, 0
172, 0, 0, 0
173, 0, 0, 0
174, 0, 0, 0
175, 0, 0, 0
176, 0, 0, 0
177, 0, 0, 0
178, 0, 0, 0
179, 0, 0, 0
