# TOPAS Version: 3.3.p1
# Parameter File: Simple_Pattern.txt
# Results for scorer MLIC_Scorer
# Scored in component: MLIC
# X in 180 bins of 0.222222 cm
# Y in 1 bin  of 10 cm
# Z in 1 bin  of 10 cm
# EnergyDeposit ( MeV ) : Sum   
0, 0, 0, 51.34020233154297
1, 0, 0, 52.13597106933594
2, 0, 0, 52.30449676513672
3, 0, 0, 52.30305862426758
4, 0, 0, 51.21926116943359
5, 0, 0, 52.17845153808594
6, 0, 0, 51.28753662109375
7, 0, 0, 53.0487060546875
8, 0, 0, 55.00053405761719
9, 0, 0, 53.37070846557617
10, 0, 0, 53.74259185791016
11, 0, 0, 53.11720657348633
12, 0, 0, 53.80879974365234
13, 0, 0, 55.40761947631836
14, 0, 0, 54.03572845458984
15, 0, 0, 54.75149154663086
16, 0, 0, 55.32854461669922
17, 0, 0, 55.18714141845703
18, 0, 0, 53.41528701782227
19, 0, 0, 54.24691390991211
20, 0, 0, 57.23291778564453
21, 0, 0, 55.81343078613281
22, 0, 0, 56.20819473266602
23, 0, 0, 56.72804260253906
24, 0, 0, 57.87344741821289
25, 0, 0, 59.33382415771484
26, 0, 0, 56.54169464111328
27, 0, 0, 57.46841812133789
28, 0, 0, 58.06622695922852
29, 0, 0, 59.31577301025391
30, 0, 0, 60.58896636962891
31, 0, 0, 60.27523040771484
32, 0, 0, 60.56320953369141
33, 0, 0, 62.20642471313477
34, 0, 0, 60.89357376098633
35, 0, 0, 63.12342071533203
36, 0, 0, 62.93665313720703
37, 0, 0, 63.4743537902832
38, 0, 0, 63.86093139648438
39, 0, 0, 66.44813537597656
40, 0, 0, 64.52894592285156
41, 0, 0, 66.63743591308594
42, 0, 0, 65.19423675537109
43, 0, 0, 67.52674102783203
44, 0, 0, 67.68367767333984
45, 0, 0, 69.52496337890625
46, 0, 0, 71.68022155761719
47, 0, 0, 70.012451171875
48, 0, 0, 70.19112396240234
49, 0, 0, 73.27452087402344
50, 0, 0, 72.21333312988281
51, 0, 0, 71.38094329833984
52, 0, 0, 74.00041961669922
53, 0, 0, 75.662109375
54, 0, 0, 75.46291351318359
55, 0, 0, 76.03195190429688
56, 0, 0, 79.55584716796875
57, 0, 0, 81.588623046875
58, 0, 0, 81.35852813720703
59, 0, 0, 80.15994262695312
60, 0, 0, 83.18508911132812
61, 0, 0, 86.2569580078125
62, 0, 0, 89.25125122070312
63, 0, 0, 89.49681091308594
64, 0, 0, 90.18897247314453
65, 0, 0, 93.81329345703125
66, 0, 0, 96.29387664794922
67, 0, 0, 98.49547576904297
68, 0, 0, 100.446533203125
69, 0, 0, 103.692253112793
70, 0, 0, 107.9884719848633
71, 0, 0, 112.8740005493164
72, 0, 0, 115.822639465332
73, 0, 0, 122.7218933105469
74, 0, 0, 131.7602233886719
75, 0, 0, 139.5807495117188
76, 0, 0, 157.259033203125
77, 0, 0, 187.8456268310547
78, 0, 0, 207.2716064453125
79, 0, 0, 171.2751159667969
80, 0, 0, 165.5420379638672
81, 0, 0, 90.61582946777344
82, 0, 0, 79.96084594726562
83, 0, 0, 75.49398040771484
84, 0, 0, 67.38933563232422
85, 0, 0, 71.56402587890625
86, 0, 0, 77.75076293945312
87, 0, 0, 85.287109375
88, 0, 0, 100.6909942626953
89, 0, 0, 101.1838073730469
90, 0, 0, 108.5193328857422
91, 0, 0, 127.0492782592773
92, 0, 0, 165.0305023193359
93, 0, 0, 61.45096206665039
94, 0, 0, 34.6780891418457
95, 0, 0, 11.0161018371582
96, 0, 0, 9.867467880249023
97, 0, 0, 0
98, 0, 0, 0
99, 0, 0, 0
100, 0, 0, 0
101, 0, 0, 0
102, 0, 0, 0
103, 0, 0, 0
104, 0, 0, 0
105, 0, 0, 0
106, 0, 0, 0
107, 0, 0, 0
108, 0, 0, 0
109, 0, 0, 0
110, 0, 0, 0
111, 0, 0, 0
112, 0, 0, 0
113, 0, 0, 0
114, 0, 0, 0
115, 0, 0, 0
116, 0, 0, 0
117, 0, 0, 0
118, 0, 0, 0
119, 0, 0, 0
120, 0, 0, 0
121, 0, 0, 0
122, 0, 0, 0
123, 0, 0, 0
124, 0, 0, 0
125, 0, 0, 0
126, 0, 0, 0
127, 0, 0, 0
128, 0, 0, 0
129, 0, 0, 0
130, 0, 0, 0
131, 0, 0, 0
132, 0, 0, 0
133, 0, 0, 0
134, 0, 0, 0
135, 0, 0, 0
136, 0, 0, 0
137, 0, 0, 0
138, 0, 0, 0
139, 0, 0, 0
140, 0, 0, 0
141, 0, 0, 0
142, 0, 0, 0
143, 0, 0, 0
144, 0, 0, 0
145, 0, 0, 0
146, 0, 0, 0
147, 0, 0, 0
148, 0, 0, 0
149, 0, 0, 0
150, 0, 0, 0
151, 0, 0, 0
152, 0, 0, 0
153, 0, 0, 0
154, 0, 0, 0
155, 0, 0, 0
156, 0, 0, 0
157, 0, 0, 0
158, 0, 0, 0
159, 0, 0, 0
160, 0, 0, 0
161, 0, 0, 0
162, 0, 0, 0
163, 0, 0, 0
164, 0, 0, 0
165, 0, 0, 0
166, 0, 0, 0
167, 0, 0, 0
168, 0, 0, 0
169, 0, 0, 0
170, 0, 0, 0
171, 0, 0, 0
172, 0, 0, 0
173, 0, 0, 0
174, 0, 0, 0
175, 0, 0, 0
176, 0, 0, 0
177, 0, 0, 0
178, 0, 0, 0
179, 0, 0, 0
