# TOPAS Version: 3.3.p1
# Parameter File: Simple_Pattern.txt
# Results for scorer MLIC_Scorer
# Scored in component: MLIC
# X in 180 bins of 0.222222 cm
# Y in 1 bin  of 10 cm
# Z in 1 bin  of 10 cm
# EnergyDeposit ( MeV ) : Sum   
0, 0, 0, 160.34033203125
1, 0, 0, 159.6620483398438
2, 0, 0, 162.1800537109375
3, 0, 0, 165.5382537841797
4, 0, 0, 164.0700836181641
5, 0, 0, 164.6181488037109
6, 0, 0, 166.2666625976562
7, 0, 0, 168.5054321289062
8, 0, 0, 166.1441497802734
9, 0, 0, 166.140869140625
10, 0, 0, 170.5018310546875
11, 0, 0, 169.7863006591797
12, 0, 0, 169.9849243164062
13, 0, 0, 173.5256195068359
14, 0, 0, 170.5549468994141
15, 0, 0, 174.2324676513672
16, 0, 0, 173.2570648193359
17, 0, 0, 175.3079223632812
18, 0, 0, 175.8036346435547
19, 0, 0, 175.6077423095703
20, 0, 0, 178.1982574462891
21, 0, 0, 176.6082305908203
22, 0, 0, 180.5526885986328
23, 0, 0, 181.1691589355469
24, 0, 0, 179.7735290527344
25, 0, 0, 183.6682739257812
26, 0, 0, 184.2808837890625
27, 0, 0, 180.3020324707031
28, 0, 0, 184.7634735107422
29, 0, 0, 184.4801025390625
30, 0, 0, 188.7703704833984
31, 0, 0, 186.8073272705078
32, 0, 0, 189.5621490478516
33, 0, 0, 193.1392364501953
34, 0, 0, 191.8739624023438
35, 0, 0, 197.0241394042969
36, 0, 0, 192.9741363525391
37, 0, 0, 192.2971496582031
38, 0, 0, 198.4704895019531
39, 0, 0, 198.8856658935547
40, 0, 0, 200.0719909667969
41, 0, 0, 203.2157897949219
42, 0, 0, 200.1892547607422
43, 0, 0, 204.6304473876953
44, 0, 0, 210.2798461914062
45, 0, 0, 208.5092620849609
46, 0, 0, 214.4217376708984
47, 0, 0, 210.6320037841797
48, 0, 0, 218.9693603515625
49, 0, 0, 216.9771118164062
50, 0, 0, 216.9139099121094
51, 0, 0, 221.3685607910156
52, 0, 0, 224.7602233886719
53, 0, 0, 226.9814147949219
54, 0, 0, 228.0567016601562
55, 0, 0, 229.0082092285156
56, 0, 0, 232.0386962890625
57, 0, 0, 236.1803741455078
58, 0, 0, 236.5369262695312
59, 0, 0, 244.2273559570312
60, 0, 0, 247.4095764160156
61, 0, 0, 249.1238861083984
62, 0, 0, 250.4671173095703
63, 0, 0, 255.5536346435547
64, 0, 0, 262.4166564941406
65, 0, 0, 264.4751892089844
66, 0, 0, 263.9102783203125
67, 0, 0, 271.703857421875
68, 0, 0, 271.9432983398438
69, 0, 0, 276.5498962402344
70, 0, 0, 280.7814636230469
71, 0, 0, 284.2075500488281
72, 0, 0, 291.3796997070312
73, 0, 0, 299.9482421875
74, 0, 0, 304.2410888671875
75, 0, 0, 311.9953002929688
76, 0, 0, 318.71826171875
77, 0, 0, 328.8332214355469
78, 0, 0, 337.9154663085938
79, 0, 0, 352.8236999511719
80, 0, 0, 363.3858337402344
81, 0, 0, 377.5579528808594
82, 0, 0, 390.4543762207031
83, 0, 0, 409.642822265625
84, 0, 0, 435.2524719238281
85, 0, 0, 456.9198608398438
86, 0, 0, 491.4059448242188
87, 0, 0, 520.2625122070312
88, 0, 0, 563.90087890625
89, 0, 0, 648.3270263671875
90, 0, 0, 796.383056640625
91, 0, 0, 891.4988403320312
92, 0, 0, 836.6196899414062
93, 0, 0, 747.556640625
94, 0, 0, 351.2501525878906
95, 0, 0, 63.17645263671875
96, 0, 0, 18.01002311706543
97, 0, 0, 0
98, 0, 0, 0
99, 0, 0, 0
100, 0, 0, 0
101, 0, 0, 0
102, 0, 0, 0
103, 0, 0, 0
104, 0, 0, 0
105, 0, 0, 0
106, 0, 0, 0.0002039375540334731
107, 0, 0, 0
108, 0, 0, 0
109, 0, 0, 0
110, 0, 0, 0
111, 0, 0, 0
112, 0, 0, 0
113, 0, 0, 0
114, 0, 0, 0
115, 0, 0, 0
116, 0, 0, 0
117, 0, 0, 0
118, 0, 0, 0
119, 0, 0, 0
120, 0, 0, 0
121, 0, 0, 0
122, 0, 0, 0
123, 0, 0, 0
124, 0, 0, 0
125, 0, 0, 0
126, 0, 0, 0
127, 0, 0, 0
128, 0, 0, 0
129, 0, 0, 0
130, 0, 0, 0
131, 0, 0, 0
132, 0, 0, 0
133, 0, 0, 0
134, 0, 0, 0
135, 0, 0, 0
136, 0, 0, 0
137, 0, 0, 0
138, 0, 0, 0
139, 0, 0, 0
140, 0, 0, 0
141, 0, 0, 0
142, 0, 0, 0
143, 0, 0, 0
144, 0, 0, 0
145, 0, 0, 0
146, 0, 0, 0
147, 0, 0, 0
148, 0, 0, 0
149, 0, 0, 0
150, 0, 0, 0
151, 0, 0, 0
152, 0, 0, 0
153, 0, 0, 0
154, 0, 0, 0
155, 0, 0, 0
156, 0, 0, 0
157, 0, 0, 0
158, 0, 0, 0
159, 0, 0, 0
160, 0, 0, 0
161, 0, 0, 0
162, 0, 0, 0
163, 0, 0, 0
164, 0, 0, 0
165, 0, 0, 0
166, 0, 0, 0
167, 0, 0, 0
168, 0, 0, 0
169, 0, 0, 0
170, 0, 0, 0
171, 0, 0, 0
172, 0, 0, 0
173, 0, 0, 0
174, 0, 0, 0
175, 0, 0, 0
176, 0, 0, 0
177, 0, 0, 0
178, 0, 0, 0
179, 0, 0, 0
