# TOPAS Version: 3.3.p1
# Parameter File: Simple_Pattern.txt
# Results for scorer MLIC_Scorer
# Scored in component: MLIC
# X in 180 bins of 0.222222 cm
# Y in 1 bin  of 10 cm
# Z in 1 bin  of 10 cm
# EnergyDeposit ( MeV ) : Sum   
0, 0, 0, 97.00909423828125
1, 0, 0, 94.39530944824219
2, 0, 0, 97.31290435791016
3, 0, 0, 96.40338897705078
4, 0, 0, 95.63984680175781
5, 0, 0, 98.46402740478516
6, 0, 0, 96.57701873779297
7, 0, 0, 96.6085205078125
8, 0, 0, 96.8543701171875
9, 0, 0, 98.97465515136719
10, 0, 0, 98.40001678466797
11, 0, 0, 98.4658203125
12, 0, 0, 101.9744873046875
13, 0, 0, 99.10002136230469
14, 0, 0, 100.22802734375
15, 0, 0, 103.6190032958984
16, 0, 0, 100.768684387207
17, 0, 0, 105.2518157958984
18, 0, 0, 102.9558029174805
19, 0, 0, 103.1196517944336
20, 0, 0, 102.9755401611328
21, 0, 0, 106.4279632568359
22, 0, 0, 102.4221801757812
23, 0, 0, 105.7279357910156
24, 0, 0, 107.7180023193359
25, 0, 0, 108.181755065918
26, 0, 0, 108.5394897460938
27, 0, 0, 107.9599151611328
28, 0, 0, 111.0418853759766
29, 0, 0, 109.886962890625
30, 0, 0, 108.3164596557617
31, 0, 0, 112.5485916137695
32, 0, 0, 110.6331634521484
33, 0, 0, 110.6601028442383
34, 0, 0, 112.5678482055664
35, 0, 0, 113.0436096191406
36, 0, 0, 114.7721710205078
37, 0, 0, 116.3358612060547
38, 0, 0, 113.4587173461914
39, 0, 0, 117.3293533325195
40, 0, 0, 118.3232498168945
41, 0, 0, 119.4505462646484
42, 0, 0, 118.0804977416992
43, 0, 0, 119.4499588012695
44, 0, 0, 121.9881820678711
45, 0, 0, 123.7591857910156
46, 0, 0, 125.0494689941406
47, 0, 0, 127.7670288085938
48, 0, 0, 127.5498352050781
49, 0, 0, 127.1471405029297
50, 0, 0, 128.4546813964844
51, 0, 0, 131.9920806884766
52, 0, 0, 132.3099060058594
53, 0, 0, 131.2297821044922
54, 0, 0, 134.7738494873047
55, 0, 0, 136.456787109375
56, 0, 0, 139.027099609375
57, 0, 0, 140.36865234375
58, 0, 0, 142.4901275634766
59, 0, 0, 142.9304351806641
60, 0, 0, 144.3322906494141
61, 0, 0, 147.6604766845703
62, 0, 0, 147.605224609375
63, 0, 0, 152.4169464111328
64, 0, 0, 151.6939697265625
65, 0, 0, 156.2023773193359
66, 0, 0, 156.6092529296875
67, 0, 0, 162.0467987060547
68, 0, 0, 163.8115234375
69, 0, 0, 166.8430938720703
70, 0, 0, 169.8442993164062
71, 0, 0, 172.8294525146484
72, 0, 0, 174.5982666015625
73, 0, 0, 179.4548187255859
74, 0, 0, 183.1288604736328
75, 0, 0, 188.0986938476562
76, 0, 0, 194.5238952636719
77, 0, 0, 200.3418731689453
78, 0, 0, 204.3264312744141
79, 0, 0, 210.5605621337891
80, 0, 0, 217.2151489257812
81, 0, 0, 223.3999633789062
82, 0, 0, 232.9773254394531
83, 0, 0, 244.5337371826172
84, 0, 0, 257.2557067871094
85, 0, 0, 276.0902099609375
86, 0, 0, 291.6359252929688
87, 0, 0, 318.744140625
88, 0, 0, 354.8258666992188
89, 0, 0, 421.2606201171875
90, 0, 0, 476.8474731445312
91, 0, 0, 515.8158569335938
92, 0, 0, 503.5413818359375
93, 0, 0, 360.5191345214844
94, 0, 0, 206.4988403320312
95, 0, 0, 41.53631591796875
96, 0, 0, 18.89189720153809
97, 0, 0, 0
98, 0, 0, 0
99, 0, 0, 0
100, 0, 0, 0
101, 0, 0, 0
102, 0, 0, 0
103, 0, 0, 0
104, 0, 0, 0
105, 0, 0, 0
106, 0, 0, 0
107, 0, 0, 0
108, 0, 0, 0
109, 0, 0, 0
110, 0, 0, 0
111, 0, 0, 0
112, 0, 0, 0
113, 0, 0, 0
114, 0, 0, 0
115, 0, 0, 0
116, 0, 0, 0
117, 0, 0, 0
118, 0, 0, 0
119, 0, 0, 0
120, 0, 0, 0
121, 0, 0, 0
122, 0, 0, 0
123, 0, 0, 0
124, 0, 0, 0
125, 0, 0, 0
126, 0, 0, 0
127, 0, 0, 0
128, 0, 0, 0
129, 0, 0, 0
130, 0, 0, 0
131, 0, 0, 0
132, 0, 0, 0
133, 0, 0, 0
134, 0, 0, 0
135, 0, 0, 0
136, 0, 0, 0
137, 0, 0, 0
138, 0, 0, 0
139, 0, 0, 0
140, 0, 0, 0
141, 0, 0, 0
142, 0, 0, 0
143, 0, 0, 0
144, 0, 0, 0
145, 0, 0, 0
146, 0, 0, 0
147, 0, 0, 0
148, 0, 0, 0
149, 0, 0, 0
150, 0, 0, 0
151, 0, 0, 0
152, 0, 0, 0
153, 0, 0, 0
154, 0, 0, 0
155, 0, 0, 0
156, 0, 0, 0
157, 0, 0, 0
158, 0, 0, 0
159, 0, 0, 0
160, 0, 0, 0
161, 0, 0, 0
162, 0, 0, 0
163, 0, 0, 0
164, 0, 0, 0
165, 0, 0, 0
166, 0, 0, 0
167, 0, 0, 0
168, 0, 0, 0
169, 0, 0, 0
170, 0, 0, 0
171, 0, 0, 0
172, 0, 0, 0
173, 0, 0, 0
174, 0, 0, 0
175, 0, 0, 0
176, 0, 0, 0
177, 0, 0, 0
178, 0, 0, 0
179, 0, 0, 0
