# TOPAS Version: 3.3.p1
# Parameter File: Simple_Pattern.txt
# Results for scorer MLIC_Scorer
# Scored in component: MLIC
# X in 180 bins of 0.222222 cm
# Y in 1 bin  of 10 cm
# Z in 1 bin  of 10 cm
# EnergyDeposit ( MeV ) : Sum   
0, 0, 0, 1154.24365234375
1, 0, 0, 1164.342651367188
2, 0, 0, 1162.173706054688
3, 0, 0, 1171.7001953125
4, 0, 0, 1169.79052734375
5, 0, 0, 1182.267700195312
6, 0, 0, 1192.265625
7, 0, 0, 1196.762329101562
8, 0, 0, 1197.592163085938
9, 0, 0, 1205.891357421875
10, 0, 0, 1214.4482421875
11, 0, 0, 1221.9169921875
12, 0, 0, 1230.715454101562
13, 0, 0, 1241.777099609375
14, 0, 0, 1242.9951171875
15, 0, 0, 1245.694458007812
16, 0, 0, 1263.871215820312
17, 0, 0, 1263.02783203125
18, 0, 0, 1278.663940429688
19, 0, 0, 1286.835693359375
20, 0, 0, 1291.78466796875
21, 0, 0, 1299.366333007812
22, 0, 0, 1304.743286132812
23, 0, 0, 1325.803833007812
24, 0, 0, 1331.386474609375
25, 0, 0, 1336.531616210938
26, 0, 0, 1340.535400390625
27, 0, 0, 1356.725219726562
28, 0, 0, 1369.453247070312
29, 0, 0, 1387.205810546875
30, 0, 0, 1398.696533203125
31, 0, 0, 1406.596923828125
32, 0, 0, 1424.940795898438
33, 0, 0, 1437.55029296875
34, 0, 0, 1443.295532226562
35, 0, 0, 1455.111450195312
36, 0, 0, 1472.546752929688
37, 0, 0, 1493.684936523438
38, 0, 0, 1496.808837890625
39, 0, 0, 1508.936279296875
40, 0, 0, 1531.981567382812
41, 0, 0, 1546.166015625
42, 0, 0, 1567.620239257812
43, 0, 0, 1580.272094726562
44, 0, 0, 1604.744873046875
45, 0, 0, 1613.144409179688
46, 0, 0, 1636.3134765625
47, 0, 0, 1666.557250976562
48, 0, 0, 1674.859008789062
49, 0, 0, 1705.084350585938
50, 0, 0, 1728.659423828125
51, 0, 0, 1755.72021484375
52, 0, 0, 1783.337768554688
53, 0, 0, 1814.0654296875
54, 0, 0, 1838.759887695312
55, 0, 0, 1864.596557617188
56, 0, 0, 1909.864990234375
57, 0, 0, 1938.032104492188
58, 0, 0, 1979.784301757812
59, 0, 0, 2020.91796875
60, 0, 0, 2059.840087890625
61, 0, 0, 2117.124267578125
62, 0, 0, 2159.38916015625
63, 0, 0, 2219.49365234375
64, 0, 0, 2279.12109375
65, 0, 0, 2349.56005859375
66, 0, 0, 2425.695556640625
67, 0, 0, 2504.427734375
68, 0, 0, 2598.052490234375
69, 0, 0, 2708.790283203125
70, 0, 0, 2842.0771484375
71, 0, 0, 2979.81201171875
72, 0, 0, 3165.3486328125
73, 0, 0, 3386.925048828125
74, 0, 0, 3660.961181640625
75, 0, 0, 4061.403564453125
76, 0, 0, 4647.74072265625
77, 0, 0, 5601.6220703125
78, 0, 0, 6168.36865234375
79, 0, 0, 6114.95458984375
80, 0, 0, 4452.919921875
81, 0, 0, 2099.572998046875
82, 0, 0, 752.0167236328125
83, 0, 0, 166.8925628662109
84, 0, 0, 19.64037132263184
85, 0, 0, 0
86, 0, 0, 0
87, 0, 0, 0
88, 0, 0, 0
89, 0, 0, 0
90, 0, 0, 0
91, 0, 0, 0
92, 0, 0, 0
93, 0, 0, 0
94, 0, 0, 0
95, 0, 0, 0
96, 0, 0, 0
97, 0, 0, 0
98, 0, 0, 0
99, 0, 0, 0
100, 0, 0, 0
101, 0, 0, 0
102, 0, 0, 0
103, 0, 0, 0
104, 0, 0, 0
105, 0, 0, 0
106, 0, 0, 0
107, 0, 0, 0
108, 0, 0, 0
109, 0, 0, 0
110, 0, 0, 0
111, 0, 0, 0.005486475769430399
112, 0, 0, 0
113, 0, 0, 0
114, 0, 0, 0
115, 0, 0, 0
116, 0, 0, 0
117, 0, 0, 0
118, 0, 0, 0
119, 0, 0, 0
120, 0, 0, 0
121, 0, 0, 0.00332728517241776
122, 0, 0, 0
123, 0, 0, 0
124, 0, 0, 0
125, 0, 0, 0
126, 0, 0, 0
127, 0, 0, 0
128, 0, 0, 0
129, 0, 0, 0
130, 0, 0, 0
131, 0, 0, 0
132, 0, 0, 0
133, 0, 0, 0
134, 0, 0, 0
135, 0, 0, 0
136, 0, 0, 0
137, 0, 0, 0
138, 0, 0, 0.006498442962765694
139, 0, 0, 0
140, 0, 0, 0
141, 0, 0, 0
142, 0, 0, 0
143, 0, 0, 0
144, 0, 0, 0
145, 0, 0, 0
146, 0, 0, 0
147, 0, 0, 0
148, 0, 0, 0
149, 0, 0, 0
150, 0, 0, 0
151, 0, 0, 0
152, 0, 0, 0
153, 0, 0, 0
154, 0, 0, 0
155, 0, 0, 0
156, 0, 0, 0
157, 0, 0, 0
158, 0, 0, 0
159, 0, 0, 0
160, 0, 0, 0
161, 0, 0, 0
162, 0, 0, 0
163, 0, 0, 0
164, 0, 0, 0
165, 0, 0, 0
166, 0, 0, 0
167, 0, 0, 0
168, 0, 0, 0
169, 0, 0, 0
170, 0, 0, 0
171, 0, 0, 0
172, 0, 0, 0
173, 0, 0, 0
174, 0, 0, 0
175, 0, 0, 0
176, 0, 0, 0
177, 0, 0, 0
178, 0, 0, 0
179, 0, 0, 0
