# TOPAS Version: 3.3.p1
# Parameter File: Simple_Pattern.txt
# Results for scorer MLIC_Scorer
# Scored in component: MLIC
# X in 180 bins of 0.222222 cm
# Y in 1 bin  of 10 cm
# Z in 1 bin  of 10 cm
# EnergyDeposit ( MeV ) : Sum   
0, 0, 0, 1089.00537109375
1, 0, 0, 1091.205810546875
2, 0, 0, 1099.46533203125
3, 0, 0, 1105.342651367188
4, 0, 0, 1104.175415039062
5, 0, 0, 1114.786010742188
6, 0, 0, 1114.592529296875
7, 0, 0, 1121.067626953125
8, 0, 0, 1121.009399414062
9, 0, 0, 1130.501953125
10, 0, 0, 1137.689819335938
11, 0, 0, 1134.743774414062
12, 0, 0, 1150.12255859375
13, 0, 0, 1164.021850585938
14, 0, 0, 1155.751953125
15, 0, 0, 1156.117431640625
16, 0, 0, 1170.174682617188
17, 0, 0, 1179.055786132812
18, 0, 0, 1173.451782226562
19, 0, 0, 1194.383056640625
20, 0, 0, 1192.147583007812
21, 0, 0, 1204.032470703125
22, 0, 0, 1210.88525390625
23, 0, 0, 1213.529052734375
24, 0, 0, 1228.229370117188
25, 0, 0, 1232.451904296875
26, 0, 0, 1237.730712890625
27, 0, 0, 1248.18798828125
28, 0, 0, 1250.101318359375
29, 0, 0, 1256.971313476562
30, 0, 0, 1268.030029296875
31, 0, 0, 1277.968872070312
32, 0, 0, 1285.020385742188
33, 0, 0, 1294.592895507812
34, 0, 0, 1295.842041015625
35, 0, 0, 1315.455688476562
36, 0, 0, 1326.706665039062
37, 0, 0, 1329.28759765625
38, 0, 0, 1341.541381835938
39, 0, 0, 1351.445678710938
40, 0, 0, 1359.687133789062
41, 0, 0, 1373.880493164062
42, 0, 0, 1379.936401367188
43, 0, 0, 1397.22705078125
44, 0, 0, 1404.0693359375
45, 0, 0, 1410.678833007812
46, 0, 0, 1432.487060546875
47, 0, 0, 1439.922119140625
48, 0, 0, 1457.112548828125
49, 0, 0, 1462.860473632812
50, 0, 0, 1481.979125976562
51, 0, 0, 1492.162841796875
52, 0, 0, 1505.66650390625
53, 0, 0, 1525.345336914062
54, 0, 0, 1541.790283203125
55, 0, 0, 1559.623413085938
56, 0, 0, 1583.629516601562
57, 0, 0, 1600.39892578125
58, 0, 0, 1614.588134765625
59, 0, 0, 1635.413208007812
60, 0, 0, 1664.28125
61, 0, 0, 1688.427124023438
62, 0, 0, 1701.971923828125
63, 0, 0, 1731.321899414062
64, 0, 0, 1751.356689453125
65, 0, 0, 1779.9775390625
66, 0, 0, 1808.129150390625
67, 0, 0, 1835.453369140625
68, 0, 0, 1870.772094726562
69, 0, 0, 1894.935546875
70, 0, 0, 1933.371704101562
71, 0, 0, 1974.272338867188
72, 0, 0, 2009.688232421875
73, 0, 0, 2053.431640625
74, 0, 0, 2094.862060546875
75, 0, 0, 2148.4814453125
76, 0, 0, 2202.52734375
77, 0, 0, 2258.008544921875
78, 0, 0, 2328.5673828125
79, 0, 0, 2409.248779296875
80, 0, 0, 2485.885498046875
81, 0, 0, 2566.76171875
82, 0, 0, 2680.632080078125
83, 0, 0, 2797.88427734375
84, 0, 0, 2927.41259765625
85, 0, 0, 3093.043212890625
86, 0, 0, 3325.572265625
87, 0, 0, 3585.215576171875
88, 0, 0, 3957.9189453125
89, 0, 0, 4524.04345703125
90, 0, 0, 5309.8115234375
91, 0, 0, 6184.02392578125
92, 0, 0, 6051.06787109375
93, 0, 0, 4392.41748046875
94, 0, 0, 2219.278076171875
95, 0, 0, 645.06640625
96, 0, 0, 134.0580749511719
97, 0, 0, 18.84934616088867
98, 0, 0, 0
99, 0, 0, 0
100, 0, 0, 0
101, 0, 0, 0
102, 0, 0, 0
103, 0, 0, 0
104, 0, 0, 0
105, 0, 0, 0
106, 0, 0, 0
107, 0, 0, 0
108, 0, 0, 0
109, 0, 0, 0
110, 0, 0, 0
111, 0, 0, 0
112, 0, 0, 0
113, 0, 0, 0
114, 0, 0, 0
115, 0, 0, 0
116, 0, 0, 0
117, 0, 0, 0
118, 0, 0, 0
119, 0, 0, 0
120, 0, 0, 0
121, 0, 0, 0
122, 0, 0, 0
123, 0, 0, 0
124, 0, 0, 0
125, 0, 0, 0
126, 0, 0, 0
127, 0, 0, 0
128, 0, 0, 0
129, 0, 0, 0
130, 0, 0, 0
131, 0, 0, 0
132, 0, 0, 0
133, 0, 0, 0
134, 0, 0, 0
135, 0, 0, 0
136, 0, 0, 0
137, 0, 0, 0
138, 0, 0, 0
139, 0, 0, 0
140, 0, 0, 0
141, 0, 0, 0
142, 0, 0, 0
143, 0, 0, 0
144, 0, 0, 0
145, 0, 0, 0
146, 0, 0, 0
147, 0, 0, 0
148, 0, 0, 0
149, 0, 0, 0
150, 0, 0, 0
151, 0, 0, 0
152, 0, 0, 0
153, 0, 0, 0
154, 0, 0, 0
155, 0, 0, 0
156, 0, 0, 0
157, 0, 0, 0
158, 0, 0, 0
159, 0, 0, 0
160, 0, 0, 0
161, 0, 0, 0
162, 0, 0, 0
163, 0, 0, 0
164, 0, 0, 0
165, 0, 0, 0
166, 0, 0, 0
167, 0, 0, 0.03174997493624687
168, 0, 0, 0
169, 0, 0, 0
170, 0, 0, 0
171, 0, 0, 0
172, 0, 0, 0
173, 0, 0, 0
174, 0, 0, 0
175, 0, 0, 0
176, 0, 0, 0
177, 0, 0, 0
178, 0, 0, 0
179, 0, 0, 0
