# TOPAS Version: 3.3.p1
# Parameter File: Simple_Pattern.txt
# Results for scorer MLIC_Scorer
# Scored in component: MLIC
# X in 180 bins of 0.222222 cm
# Y in 1 bin  of 10 cm
# Z in 1 bin  of 10 cm
# EnergyDeposit ( MeV ) : Sum   
0, 0, 0, 1090.194213867188
1, 0, 0, 1097.110717773438
2, 0, 0, 1092.919067382812
3, 0, 0, 1113.53125
4, 0, 0, 1115.35498046875
5, 0, 0, 1115.88037109375
6, 0, 0, 1114.21630859375
7, 0, 0, 1117.47265625
8, 0, 0, 1121.52294921875
9, 0, 0, 1123.537353515625
10, 0, 0, 1130.738647460938
11, 0, 0, 1145.228515625
12, 0, 0, 1142.2392578125
13, 0, 0, 1150.574096679688
14, 0, 0, 1155.358764648438
15, 0, 0, 1167.78662109375
16, 0, 0, 1174.46044921875
17, 0, 0, 1178.716430664062
18, 0, 0, 1175.701171875
19, 0, 0, 1182.301513671875
20, 0, 0, 1197.036865234375
21, 0, 0, 1200.661987304688
22, 0, 0, 1210.795532226562
23, 0, 0, 1217.324584960938
24, 0, 0, 1217.018920898438
25, 0, 0, 1225.068115234375
26, 0, 0, 1239.951416015625
27, 0, 0, 1246.94921875
28, 0, 0, 1255.937866210938
29, 0, 0, 1259.625244140625
30, 0, 0, 1273.633544921875
31, 0, 0, 1282.805297851562
32, 0, 0, 1285.445922851562
33, 0, 0, 1290.442504882812
34, 0, 0, 1299.739501953125
35, 0, 0, 1307.290283203125
36, 0, 0, 1319.339965820312
37, 0, 0, 1319.350463867188
38, 0, 0, 1337.383056640625
39, 0, 0, 1352.720458984375
40, 0, 0, 1364.375610351562
41, 0, 0, 1364.031494140625
42, 0, 0, 1379.34326171875
43, 0, 0, 1388.050903320312
44, 0, 0, 1400.265869140625
45, 0, 0, 1424.386108398438
46, 0, 0, 1427.497802734375
47, 0, 0, 1445.290405273438
48, 0, 0, 1447.989868164062
49, 0, 0, 1477.964233398438
50, 0, 0, 1481.685180664062
51, 0, 0, 1494.591796875
52, 0, 0, 1518.732788085938
53, 0, 0, 1528.035522460938
54, 0, 0, 1536.211669921875
55, 0, 0, 1562.104858398438
56, 0, 0, 1576.251220703125
57, 0, 0, 1597.40380859375
58, 0, 0, 1617.108642578125
59, 0, 0, 1645.2275390625
60, 0, 0, 1662.192749023438
61, 0, 0, 1680.09716796875
62, 0, 0, 1706.509399414062
63, 0, 0, 1724.580078125
64, 0, 0, 1757.614379882812
65, 0, 0, 1775.634521484375
66, 0, 0, 1813.523803710938
67, 0, 0, 1844.759765625
68, 0, 0, 1870.312255859375
69, 0, 0, 1903.309936523438
70, 0, 0, 1943.578247070312
71, 0, 0, 1980.340576171875
72, 0, 0, 2023.811279296875
73, 0, 0, 2066.612060546875
74, 0, 0, 2119.353271484375
75, 0, 0, 2155.306640625
76, 0, 0, 2210.254638671875
77, 0, 0, 2281.554443359375
78, 0, 0, 2344.915283203125
79, 0, 0, 2420.23095703125
80, 0, 0, 2504.980224609375
81, 0, 0, 2606.135009765625
82, 0, 0, 2705.00439453125
83, 0, 0, 2833.6171875
84, 0, 0, 2979.34423828125
85, 0, 0, 3158.27197265625
86, 0, 0, 3380.09619140625
87, 0, 0, 3661.3408203125
88, 0, 0, 4064.35400390625
89, 0, 0, 4727.87744140625
90, 0, 0, 5491.3642578125
91, 0, 0, 6167.61572265625
92, 0, 0, 6131.5341796875
93, 0, 0, 4384.0595703125
94, 0, 0, 2210.896240234375
95, 0, 0, 754.2866821289062
96, 0, 0, 149.1395874023438
97, 0, 0, 41.28251647949219
98, 0, 0, 4.411115646362305
99, 0, 0, 0.001702125184237957
100, 0, 0, 0
101, 0, 0, 0.003265728009864688
102, 0, 0, 0
103, 0, 0, 0
104, 0, 0, 0
105, 0, 0, 0.0001102865353459492
106, 0, 0, 0
107, 0, 0, 0
108, 0, 0, 0.02915828488767147
109, 0, 0, 0
110, 0, 0, 0
111, 0, 0, 0
112, 0, 0, 0
113, 0, 0, 0
114, 0, 0, 0
115, 0, 0, 0
116, 0, 0, 0
117, 0, 0, 0.03800160437822342
118, 0, 0, 0
119, 0, 0, 0.006804767996072769
120, 0, 0, 0.005653639324009418
121, 0, 0, 0
122, 0, 0, 0
123, 0, 0, 0
124, 0, 0, 0
125, 0, 0, 0
126, 0, 0, 0
127, 0, 0, 0
128, 0, 0, 0
129, 0, 0, 0
130, 0, 0, 0
131, 0, 0, 0
132, 0, 0, 0
133, 0, 0, 0
134, 0, 0, 0
135, 0, 0, 0
136, 0, 0, 0
137, 0, 0, 0
138, 0, 0, 0
139, 0, 0, 0
140, 0, 0, 0
141, 0, 0, 0
142, 0, 0, 0
143, 0, 0, 0
144, 0, 0, 0
145, 0, 0, 0
146, 0, 0, 0
147, 0, 0, 0
148, 0, 0, 0
149, 0, 0, 0
150, 0, 0, 0
151, 0, 0, 0
152, 0, 0, 0
153, 0, 0, 0
154, 0, 0, 0
155, 0, 0, 0
156, 0, 0, 0
157, 0, 0, 0
158, 0, 0, 0
159, 0, 0, 0
160, 0, 0, 0
161, 0, 0, 0
162, 0, 0, 0
163, 0, 0, 0
164, 0, 0, 0
165, 0, 0, 0
166, 0, 0, 0
167, 0, 0, 0
168, 0, 0, 0
169, 0, 0, 0
170, 0, 0, 0
171, 0, 0, 0
172, 0, 0, 0
173, 0, 0, 0
174, 0, 0, 0
175, 0, 0, 0
176, 0, 0, 0
177, 0, 0, 0
178, 0, 0, 0
179, 0, 0, 0
