# TOPAS Version: 3.3.p1
# Parameter File: Simple_Pattern.txt
# Results for scorer MLIC_Scorer
# Scored in component: MLIC
# X in 180 bins of 0.222222 cm
# Y in 1 bin  of 10 cm
# Z in 1 bin  of 10 cm
# EnergyDeposit ( MeV ) : Sum   
0, 0, 0, 15.79998588562012
1, 0, 0, 16.3180980682373
2, 0, 0, 16.97116661071777
3, 0, 0, 16.50107574462891
4, 0, 0, 16.95961570739746
5, 0, 0, 16.31361770629883
6, 0, 0, 17.91014099121094
7, 0, 0, 17.90889358520508
8, 0, 0, 16.18862342834473
9, 0, 0, 16.55297470092773
10, 0, 0, 17.60867118835449
11, 0, 0, 17.16501235961914
12, 0, 0, 17.50152969360352
13, 0, 0, 17.74791526794434
14, 0, 0, 17.28430557250977
15, 0, 0, 17.6136589050293
16, 0, 0, 17.1613597869873
17, 0, 0, 16.98396110534668
18, 0, 0, 17.73124694824219
19, 0, 0, 17.92766380310059
20, 0, 0, 17.47298431396484
21, 0, 0, 17.6648120880127
22, 0, 0, 19.17025756835938
23, 0, 0, 18.16492080688477
24, 0, 0, 17.9997386932373
25, 0, 0, 18.66872978210449
26, 0, 0, 19.45371627807617
27, 0, 0, 18.80627059936523
28, 0, 0, 19.77351570129395
29, 0, 0, 19.35898590087891
30, 0, 0, 19.48964309692383
31, 0, 0, 19.34722709655762
32, 0, 0, 20.29180717468262
33, 0, 0, 19.57806015014648
34, 0, 0, 19.41140174865723
35, 0, 0, 20.29471588134766
36, 0, 0, 19.2115650177002
37, 0, 0, 20.81926536560059
38, 0, 0, 21.44411849975586
39, 0, 0, 20.07109832763672
40, 0, 0, 21.54715538024902
41, 0, 0, 22.84443855285645
42, 0, 0, 21.42784881591797
43, 0, 0, 22.18155860900879
44, 0, 0, 22.74248504638672
45, 0, 0, 21.61394882202148
46, 0, 0, 23.38067817687988
47, 0, 0, 22.89292907714844
48, 0, 0, 23.12313652038574
49, 0, 0, 23.15220260620117
50, 0, 0, 25.44661903381348
51, 0, 0, 24.47818565368652
52, 0, 0, 25.47748565673828
53, 0, 0, 25.13212776184082
54, 0, 0, 25.64758491516113
55, 0, 0, 26.40777397155762
56, 0, 0, 25.82186889648438
57, 0, 0, 27.31572723388672
58, 0, 0, 26.81094741821289
59, 0, 0, 27.61546516418457
60, 0, 0, 28.77195930480957
61, 0, 0, 30.45053291320801
62, 0, 0, 30.1253833770752
63, 0, 0, 31.96445465087891
64, 0, 0, 32.37173080444336
65, 0, 0, 31.97306251525879
66, 0, 0, 33.94402313232422
67, 0, 0, 34.54956817626953
68, 0, 0, 36.62168121337891
69, 0, 0, 38.1997184753418
70, 0, 0, 40.11924743652344
71, 0, 0, 42.45209503173828
72, 0, 0, 45.05675506591797
73, 0, 0, 48.26594543457031
74, 0, 0, 52.27603149414062
75, 0, 0, 60.37849426269531
76, 0, 0, 61.3741569519043
77, 0, 0, 67.00115203857422
78, 0, 0, 82.69281768798828
79, 0, 0, 86.30318450927734
80, 0, 0, 85.32115936279297
81, 0, 0, 28.45955848693848
82, 0, 0, 0
83, 0, 0, 0
84, 0, 0, 0
85, 0, 0, 0
86, 0, 0, 0
87, 0, 0, 0
88, 0, 0, 0
89, 0, 0, 0
90, 0, 0, 0
91, 0, 0, 0
92, 0, 0, 0
93, 0, 0, 0
94, 0, 0, 0
95, 0, 0, 0
96, 0, 0, 0
97, 0, 0, 0
98, 0, 0, 0
99, 0, 0, 0
100, 0, 0, 0
101, 0, 0, 0
102, 0, 0, 0
103, 0, 0, 0
104, 0, 0, 0
105, 0, 0, 0
106, 0, 0, 0
107, 0, 0, 0
108, 0, 0, 0
109, 0, 0, 0
110, 0, 0, 0
111, 0, 0, 0
112, 0, 0, 0
113, 0, 0, 0
114, 0, 0, 0
115, 0, 0, 0
116, 0, 0, 0
117, 0, 0, 0
118, 0, 0, 0
119, 0, 0, 0
120, 0, 0, 0
121, 0, 0, 0
122, 0, 0, 0
123, 0, 0, 0
124, 0, 0, 0
125, 0, 0, 0
126, 0, 0, 0
127, 0, 0, 0
128, 0, 0, 0
129, 0, 0, 0
130, 0, 0, 0
131, 0, 0, 0
132, 0, 0, 0
133, 0, 0, 0
134, 0, 0, 0
135, 0, 0, 0
136, 0, 0, 0
137, 0, 0, 0
138, 0, 0, 0
139, 0, 0, 0
140, 0, 0, 0
141, 0, 0, 0
142, 0, 0, 0
143, 0, 0, 0
144, 0, 0, 0
145, 0, 0, 0
146, 0, 0, 0
147, 0, 0, 0
148, 0, 0, 0
149, 0, 0, 0
150, 0, 0, 0
151, 0, 0, 0
152, 0, 0, 0
153, 0, 0, 0
154, 0, 0, 0
155, 0, 0, 0
156, 0, 0, 0
157, 0, 0, 0
158, 0, 0, 0
159, 0, 0, 0
160, 0, 0, 0
161, 0, 0, 0
162, 0, 0, 0
163, 0, 0, 0
164, 0, 0, 0
165, 0, 0, 0
166, 0, 0, 0
167, 0, 0, 0
168, 0, 0, 0
169, 0, 0, 0
170, 0, 0, 0
171, 0, 0, 0
172, 0, 0, 0
173, 0, 0, 0
174, 0, 0, 0
175, 0, 0, 0
176, 0, 0, 0
177, 0, 0, 0
178, 0, 0, 0
179, 0, 0, 0
