# TOPAS Version: 3.3.p1
# Parameter File: Simple_Pattern.txt
# Results for scorer MLIC_Scorer
# Scored in component: MLIC
# X in 165 bins of 0.2 cm
# Y in 1 bin  of 10 cm
# Z in 1 bin  of 10 cm
# EnergyDeposit ( MeV ) : Sum   
0, 0, 0, 932.8405151367188
1, 0, 0, 945.829833984375
2, 0, 0, 943.3265380859375
3, 0, 0, 948.9114379882812
4, 0, 0, 948.2035522460938
5, 0, 0, 954.6551513671875
6, 0, 0, 951.9181518554688
7, 0, 0, 961.15478515625
8, 0, 0, 965.215087890625
9, 0, 0, 964.191650390625
10, 0, 0, 974.6776733398438
11, 0, 0, 969.5497436523438
12, 0, 0, 976.0322265625
13, 0, 0, 980.8583984375
14, 0, 0, 986.0077514648438
15, 0, 0, 987.2863159179688
16, 0, 0, 994.0743408203125
17, 0, 0, 996.7202758789062
18, 0, 0, 1005.037414550781
19, 0, 0, 1005.164245605469
20, 0, 0, 1024.867431640625
21, 0, 0, 1014.574157714844
22, 0, 0, 1016.247619628906
23, 0, 0, 1021.372924804688
24, 0, 0, 1020.761779785156
25, 0, 0, 1030.176513671875
26, 0, 0, 1029.509887695312
27, 0, 0, 1042.339965820312
28, 0, 0, 1038.70361328125
29, 0, 0, 1048.3408203125
30, 0, 0, 1058.161376953125
31, 0, 0, 1063.74365234375
32, 0, 0, 1072.683349609375
33, 0, 0, 1073.203369140625
34, 0, 0, 1070.377807617188
35, 0, 0, 1079.734497070312
36, 0, 0, 1086.392333984375
37, 0, 0, 1082.345092773438
38, 0, 0, 1096.288452148438
39, 0, 0, 1099.757690429688
40, 0, 0, 1107.415283203125
41, 0, 0, 1118.316528320312
42, 0, 0, 1120.326293945312
43, 0, 0, 1126.965209960938
44, 0, 0, 1127.843383789062
45, 0, 0, 1143.971313476562
46, 0, 0, 1147.427978515625
47, 0, 0, 1148.910888671875
48, 0, 0, 1157.112548828125
49, 0, 0, 1169.962524414062
50, 0, 0, 1170.001953125
51, 0, 0, 1176.786743164062
52, 0, 0, 1189.414306640625
53, 0, 0, 1192.919799804688
54, 0, 0, 1201.998657226562
55, 0, 0, 1207.320922851562
56, 0, 0, 1223.944091796875
57, 0, 0, 1233.681762695312
58, 0, 0, 1238.3779296875
59, 0, 0, 1247.528076171875
60, 0, 0, 1249.458618164062
61, 0, 0, 1260.51611328125
62, 0, 0, 1272.713745117188
63, 0, 0, 1278.243774414062
64, 0, 0, 1295.663208007812
65, 0, 0, 1303.495849609375
66, 0, 0, 1316.549560546875
67, 0, 0, 1321.5986328125
68, 0, 0, 1334.3359375
69, 0, 0, 1355.848388671875
70, 0, 0, 1366.9609375
71, 0, 0, 1377.541015625
72, 0, 0, 1387.392822265625
73, 0, 0, 1409.760131835938
74, 0, 0, 1415.458374023438
75, 0, 0, 1433.776245117188
76, 0, 0, 1440.744018554688
77, 0, 0, 1459.660766601562
78, 0, 0, 1484.090209960938
79, 0, 0, 1500.401000976562
80, 0, 0, 1520.314575195312
81, 0, 0, 1530.8955078125
82, 0, 0, 1549.974243164062
83, 0, 0, 1578.64306640625
84, 0, 0, 1593.431396484375
85, 0, 0, 1618.1962890625
86, 0, 0, 1636.1826171875
87, 0, 0, 1660.819946289062
88, 0, 0, 1690.952514648438
89, 0, 0, 1706.3427734375
90, 0, 0, 1743.733276367188
91, 0, 0, 1786.526489257812
92, 0, 0, 1810.9248046875
93, 0, 0, 1841.8828125
94, 0, 0, 1877.38818359375
95, 0, 0, 1921.382080078125
96, 0, 0, 1964.893798828125
97, 0, 0, 2014.478149414062
98, 0, 0, 2066.248779296875
99, 0, 0, 2124.3896484375
100, 0, 0, 2183.90185546875
101, 0, 0, 2250.493408203125
102, 0, 0, 2322.506103515625
103, 0, 0, 2405.8671875
104, 0, 0, 2513.115966796875
105, 0, 0, 2622.166015625
106, 0, 0, 2758.996826171875
107, 0, 0, 2917.02197265625
108, 0, 0, 3111.39208984375
109, 0, 0, 3375.479736328125
110, 0, 0, 3726.32421875
111, 0, 0, 4261.3505859375
112, 0, 0, 4943.44921875
113, 0, 0, 5447.0146484375
114, 0, 0, 5379.205078125
115, 0, 0, 4387.1669921875
116, 0, 0, 2937.575439453125
117, 0, 0, 1536.048706054688
118, 0, 0, 499.2834167480469
119, 0, 0, 85.10671997070312
120, 0, 0, 3.04450798034668
121, 0, 0, 0
122, 0, 0, 0
123, 0, 0, 0
124, 0, 0, 0
125, 0, 0, 0
126, 0, 0, 0
127, 0, 0, 0
128, 0, 0, 0
129, 0, 0, 0
130, 0, 0, 0
131, 0, 0, 0
132, 0, 0, 0.03677312657237053
133, 0, 0, 0
134, 0, 0, 0
135, 0, 0, 0
136, 0, 0, 0
137, 0, 0, 0
138, 0, 0, 0
139, 0, 0, 0
140, 0, 0, 0.003435027785599232
141, 0, 0, 0
142, 0, 0, 0
143, 0, 0, 0
144, 0, 0, 0
145, 0, 0, 0
146, 0, 0, 0
147, 0, 0, 0
148, 0, 0, 0
149, 0, 0, 0
150, 0, 0, 0
151, 0, 0, 0
152, 0, 0, 0
153, 0, 0, 0
154, 0, 0, 0
155, 0, 0, 0
156, 0, 0, 0
157, 0, 0, 0
158, 0, 0, 0
159, 0, 0, 0
160, 0, 0, 0
161, 0, 0, 0
162, 0, 0, 0
163, 0, 0, 0
164, 0, 0, 0
