# TOPAS Version: 3.3.p1
# Parameter File: Simple_Pattern.txt
# Results for scorer MLIC_Scorer
# Scored in component: MLIC
# X in 165 bins of 0.2 cm
# Y in 1 bin  of 10 cm
# Z in 1 bin  of 10 cm
# EnergyDeposit ( MeV ) : Sum   
0, 0, 0, 0
1, 0, 0, 0
2, 0, 0, 0
3, 0, 0, 0
4, 0, 0, 0
5, 0, 0, 0
6, 0, 0, 0
7, 0, 0, 0
8, 0, 0, 0
9, 0, 0, 0
10, 0, 0, 0
11, 0, 0, 0
12, 0, 0, 0
13, 0, 0, 0
14, 0, 0, 0
15, 0, 0, 0
16, 0, 0, 0
17, 0, 0, 0
18, 0, 0, 0
19, 0, 0, 0
20, 0, 0, 0
21, 0, 0, 0
22, 0, 0, 0
23, 0, 0, 0
24, 0, 0, 0
25, 0, 0, 0
26, 0, 0, 0
27, 0, 0, 0
28, 0, 0, 0
29, 0, 0, 0
30, 0, 0, 0
31, 0, 0, 0
32, 0, 0, 0
33, 0, 0, 0
34, 0, 0, 0
35, 0, 0, 0
36, 0, 0, 0
37, 0, 0, 0.002690991153940558
38, 0, 0, 0
39, 0, 0, 0
40, 0, 0, 0
41, 0, 0, 0
42, 0, 0, 4.851434230804443
43, 0, 0, 15.13535690307617
44, 0, 0, 32.80981063842773
45, 0, 0, 114.5327301025391
46, 0, 0, 478.6005859375
47, 0, 0, 1400.2138671875
48, 0, 0, 3075.52392578125
49, 0, 0, 4609.2265625
50, 0, 0, 5556.1474609375
51, 0, 0, 5261.5703125
52, 0, 0, 4894.80859375
53, 0, 0, 4245.169921875
54, 0, 0, 3739.23193359375
55, 0, 0, 3381.265869140625
56, 0, 0, 3122.125732421875
57, 0, 0, 2930.44287109375
58, 0, 0, 2760.099365234375
59, 0, 0, 2631.74853515625
60, 0, 0, 2512.77783203125
61, 0, 0, 2421.8779296875
62, 0, 0, 2339.051025390625
63, 0, 0, 2250.06884765625
64, 0, 0, 2190.593505859375
65, 0, 0, 2134.333740234375
66, 0, 0, 2071.51025390625
67, 0, 0, 2013.247314453125
68, 0, 0, 1967.3056640625
69, 0, 0, 1929.439208984375
70, 0, 0, 1891.867309570312
71, 0, 0, 1843.598510742188
72, 0, 0, 1807.41748046875
73, 0, 0, 1772.316772460938
74, 0, 0, 1748.7392578125
75, 0, 0, 1720.427490234375
76, 0, 0, 1689.356811523438
77, 0, 0, 1667.276000976562
78, 0, 0, 1636.17529296875
79, 0, 0, 1625.425048828125
80, 0, 0, 1592.132202148438
81, 0, 0, 1570.697875976562
82, 0, 0, 1556.028686523438
83, 0, 0, 1527.243896484375
84, 0, 0, 1517.636962890625
85, 0, 0, 1500.46875
86, 0, 0, 1487.06640625
87, 0, 0, 1467.104736328125
88, 0, 0, 1439.987060546875
89, 0, 0, 1430.08447265625
90, 0, 0, 1422.415893554688
91, 0, 0, 1403.384765625
92, 0, 0, 1391.25390625
93, 0, 0, 1370.232177734375
94, 0, 0, 1357.534912109375
95, 0, 0, 1352.144287109375
96, 0, 0, 1336.754028320312
97, 0, 0, 1328.233154296875
98, 0, 0, 1316.633666992188
99, 0, 0, 1310.711181640625
100, 0, 0, 1289.119018554688
101, 0, 0, 1278.81201171875
102, 0, 0, 1277.515747070312
103, 0, 0, 1264.46240234375
104, 0, 0, 1251.19482421875
105, 0, 0, 1249.444946289062
106, 0, 0, 1237.739868164062
107, 0, 0, 1225.351318359375
108, 0, 0, 1219.771240234375
109, 0, 0, 1210.669677734375
110, 0, 0, 1201.018432617188
111, 0, 0, 1201.266723632812
112, 0, 0, 1192.819091796875
113, 0, 0, 1180.64892578125
114, 0, 0, 1171.037353515625
115, 0, 0, 1161.291870117188
116, 0, 0, 1159.259887695312
117, 0, 0, 1154.794555664062
118, 0, 0, 1145.078002929688
119, 0, 0, 1139.62646484375
120, 0, 0, 1125.772094726562
121, 0, 0, 1130.750610351562
122, 0, 0, 1116.548217773438
123, 0, 0, 1114.291625976562
124, 0, 0, 1112.236206054688
125, 0, 0, 1103.97265625
126, 0, 0, 1091.489013671875
127, 0, 0, 1085.41650390625
128, 0, 0, 1081.598999023438
129, 0, 0, 1076.118774414062
130, 0, 0, 1077.021484375
131, 0, 0, 1066.613037109375
132, 0, 0, 1069.32421875
133, 0, 0, 1059.46533203125
134, 0, 0, 1045.008056640625
135, 0, 0, 1047.361083984375
136, 0, 0, 1039.702392578125
137, 0, 0, 1037.45068359375
138, 0, 0, 1037.341186523438
139, 0, 0, 1032.847534179688
140, 0, 0, 1027.437622070312
141, 0, 0, 1013.759399414062
142, 0, 0, 1020.484497070312
143, 0, 0, 1015.249755859375
144, 0, 0, 1011.3212890625
145, 0, 0, 1004.296813964844
146, 0, 0, 1001.621154785156
147, 0, 0, 996.9594116210938
148, 0, 0, 989.0941162109375
149, 0, 0, 988.8229370117188
150, 0, 0, 985.0678100585938
151, 0, 0, 978.9310302734375
152, 0, 0, 975.9952392578125
153, 0, 0, 972.9797973632812
154, 0, 0, 975.7667236328125
155, 0, 0, 971.69580078125
156, 0, 0, 963.6303100585938
157, 0, 0, 962.0980224609375
158, 0, 0, 953.5391235351562
159, 0, 0, 956.027587890625
160, 0, 0, 947.3392333984375
161, 0, 0, 951.36767578125
162, 0, 0, 938.7398681640625
163, 0, 0, 934.1151733398438
164, 0, 0, 937.1212158203125
