# TOPAS Version: 3.3.p1
# Parameter File: Simple_Pattern.txt
# Results for scorer MLIC_Scorer
# Scored in component: MLIC
# X in 180 bins of 0.222222 cm
# Y in 1 bin  of 10 cm
# Z in 1 bin  of 10 cm
# EnergyDeposit ( MeV ) : Sum   
0, 0, 0, 1150.28271484375
1, 0, 0, 1153.703369140625
2, 0, 0, 1155.658081054688
3, 0, 0, 1165.114624023438
4, 0, 0, 1177.477172851562
5, 0, 0, 1176.302001953125
6, 0, 0, 1191.499145507812
7, 0, 0, 1198.357543945312
8, 0, 0, 1199.217163085938
9, 0, 0, 1205.186401367188
10, 0, 0, 1206.442260742188
11, 0, 0, 1222.554565429688
12, 0, 0, 1230.376831054688
13, 0, 0, 1223.87451171875
14, 0, 0, 1239.694458007812
15, 0, 0, 1249.249389648438
16, 0, 0, 1263.091186523438
17, 0, 0, 1259.13037109375
18, 0, 0, 1274.854370117188
19, 0, 0, 1276.6630859375
20, 0, 0, 1281.6611328125
21, 0, 0, 1302.5107421875
22, 0, 0, 1312.6328125
23, 0, 0, 1319.367797851562
24, 0, 0, 1330.118774414062
25, 0, 0, 1338.432006835938
26, 0, 0, 1338.533325195312
27, 0, 0, 1360.701049804688
28, 0, 0, 1379.08447265625
29, 0, 0, 1381.277221679688
30, 0, 0, 1383.09375
31, 0, 0, 1402.208374023438
32, 0, 0, 1409.01318359375
33, 0, 0, 1435.7880859375
34, 0, 0, 1431.710571289062
35, 0, 0, 1450.99462890625
36, 0, 0, 1460.87841796875
37, 0, 0, 1475.607055664062
38, 0, 0, 1490.59765625
39, 0, 0, 1515.271606445312
40, 0, 0, 1523.604736328125
41, 0, 0, 1543.962036132812
42, 0, 0, 1550.999145507812
43, 0, 0, 1565.4404296875
44, 0, 0, 1589.270385742188
45, 0, 0, 1610.972900390625
46, 0, 0, 1642.596557617188
47, 0, 0, 1659.794067382812
48, 0, 0, 1667.516479492188
49, 0, 0, 1701.4853515625
50, 0, 0, 1722.92041015625
51, 0, 0, 1737.018676757812
52, 0, 0, 1771.095336914062
53, 0, 0, 1800.779418945312
54, 0, 0, 1830.6650390625
55, 0, 0, 1862.418334960938
56, 0, 0, 1892.085571289062
57, 0, 0, 1936.453369140625
58, 0, 0, 1971.031005859375
59, 0, 0, 2019.001586914062
60, 0, 0, 2053.574462890625
61, 0, 0, 2100.77001953125
62, 0, 0, 2145.853271484375
63, 0, 0, 2200.541748046875
64, 0, 0, 2264.380126953125
65, 0, 0, 2333.033203125
66, 0, 0, 2399.59326171875
67, 0, 0, 2491.1650390625
68, 0, 0, 2578.43408203125
69, 0, 0, 2681.6875
70, 0, 0, 2810.699951171875
71, 0, 0, 2953.161865234375
72, 0, 0, 3122.608154296875
73, 0, 0, 3353.975341796875
74, 0, 0, 3593.19580078125
75, 0, 0, 4016.473388671875
76, 0, 0, 4538.9912109375
77, 0, 0, 5211.00732421875
78, 0, 0, 6076.6806640625
79, 0, 0, 5878.6826171875
80, 0, 0, 4461.087890625
81, 0, 0, 2701.803955078125
82, 0, 0, 967.6555786132812
83, 0, 0, 293.2015380859375
84, 0, 0, 157.5169219970703
85, 0, 0, 126.7582550048828
86, 0, 0, 109.3452987670898
87, 0, 0, 114.3827514648438
88, 0, 0, 100.1941909790039
89, 0, 0, 89.70396423339844
90, 0, 0, 68.45990753173828
91, 0, 0, 86.77622985839844
92, 0, 0, 57.36575698852539
93, 0, 0, 29.80148887634277
94, 0, 0, 12.51891803741455
95, 0, 0, 0
96, 0, 0, 0
97, 0, 0, 0
98, 0, 0, 0
99, 0, 0, 0
100, 0, 0, 0
101, 0, 0, 0
102, 0, 0, 0
103, 0, 0, 0
104, 0, 0, 0
105, 0, 0, 0
106, 0, 0, 0
107, 0, 0, 0
108, 0, 0, 0
109, 0, 0, 0
110, 0, 0, 0
111, 0, 0, 0
112, 0, 0, 0
113, 0, 0, 0
114, 0, 0, 0
115, 0, 0, 0
116, 0, 0, 0
117, 0, 0, 0
118, 0, 0, 0
119, 0, 0, 0
120, 0, 0, 0
121, 0, 0, 0
122, 0, 0, 0
123, 0, 0, 0
124, 0, 0, 0
125, 0, 0, 0
126, 0, 0, 0
127, 0, 0, 0
128, 0, 0, 0
129, 0, 0, 0
130, 0, 0, 0
131, 0, 0, 0
132, 0, 0, 0
133, 0, 0, 0
134, 0, 0, 0
135, 0, 0, 0
136, 0, 0, 0
137, 0, 0, 0
138, 0, 0, 0
139, 0, 0, 0
140, 0, 0, 0
141, 0, 0, 0
142, 0, 0, 0
143, 0, 0, 0
144, 0, 0, 0
145, 0, 0, 0
146, 0, 0, 0
147, 0, 0, 0
148, 0, 0, 0
149, 0, 0, 0
150, 0, 0, 0
151, 0, 0, 0
152, 0, 0, 0
153, 0, 0, 0
154, 0, 0, 0
155, 0, 0, 0
156, 0, 0, 0
157, 0, 0, 0
158, 0, 0, 0
159, 0, 0, 0
160, 0, 0, 0
161, 0, 0, 0
162, 0, 0, 0
163, 0, 0, 0
164, 0, 0, 0
165, 0, 0, 0
166, 0, 0, 0
167, 0, 0, 0
168, 0, 0, 0
169, 0, 0, 0
170, 0, 0, 0
171, 0, 0, 0
172, 0, 0, 0
173, 0, 0, 0
174, 0, 0, 0
175, 0, 0, 0
176, 0, 0, 0
177, 0, 0, 0
178, 0, 0, 0
179, 0, 0, 0
