# TOPAS Version: 3.3.p1
# Parameter File: Simple_Pattern.txt
# Results for scorer MLIC_Scorer
# Scored in component: MLIC
# X in 180 bins of 0.222222 cm
# Y in 1 bin  of 10 cm
# Z in 1 bin  of 10 cm
# EnergyDeposit ( MeV ) : Sum   
0, 0, 0, 59.98608016967773
1, 0, 0, 58.23410034179688
2, 0, 0, 59.17852020263672
3, 0, 0, 58.09687805175781
4, 0, 0, 60.20994186401367
5, 0, 0, 60.26224517822266
6, 0, 0, 60.23583984375
7, 0, 0, 60.86370468139648
8, 0, 0, 60.94571685791016
9, 0, 0, 60.39883804321289
10, 0, 0, 61.57419204711914
11, 0, 0, 62.28816604614258
12, 0, 0, 62.48624420166016
13, 0, 0, 62.31208419799805
14, 0, 0, 63.51579284667969
15, 0, 0, 62.78362274169922
16, 0, 0, 63.64673614501953
17, 0, 0, 63.79494857788086
18, 0, 0, 64.21815490722656
19, 0, 0, 62.42059707641602
20, 0, 0, 64.06850433349609
21, 0, 0, 66.06097412109375
22, 0, 0, 66.05088043212891
23, 0, 0, 64.72803497314453
24, 0, 0, 65.19267272949219
25, 0, 0, 66.09749603271484
26, 0, 0, 65.85268402099609
27, 0, 0, 66.89740753173828
28, 0, 0, 66.06378173828125
29, 0, 0, 67.74303436279297
30, 0, 0, 68.58624267578125
31, 0, 0, 69.75182342529297
32, 0, 0, 70.01522064208984
33, 0, 0, 70.54798126220703
34, 0, 0, 70.0137939453125
35, 0, 0, 72.87458038330078
36, 0, 0, 71.40928649902344
37, 0, 0, 72.00481414794922
38, 0, 0, 72.00045013427734
39, 0, 0, 74.02602386474609
40, 0, 0, 74.67951965332031
41, 0, 0, 74.7218017578125
42, 0, 0, 74.56037139892578
43, 0, 0, 74.70670318603516
44, 0, 0, 74.45029449462891
45, 0, 0, 75.30625915527344
46, 0, 0, 78.090087890625
47, 0, 0, 77.09976196289062
48, 0, 0, 80.73973846435547
49, 0, 0, 78.89373016357422
50, 0, 0, 81.05038452148438
51, 0, 0, 81.36533355712891
52, 0, 0, 80.22274780273438
53, 0, 0, 82.21562194824219
54, 0, 0, 85.79984283447266
55, 0, 0, 85.40808868408203
56, 0, 0, 85.29351806640625
57, 0, 0, 85.93318939208984
58, 0, 0, 86.4129638671875
59, 0, 0, 87.72572326660156
60, 0, 0, 90.61940765380859
61, 0, 0, 92.11311340332031
62, 0, 0, 92.91412353515625
63, 0, 0, 95.25684356689453
64, 0, 0, 94.60104370117188
65, 0, 0, 96.15525054931641
66, 0, 0, 98.18316650390625
67, 0, 0, 99.49314117431641
68, 0, 0, 101.5837707519531
69, 0, 0, 104.0292434692383
70, 0, 0, 104.8650588989258
71, 0, 0, 107.2633743286133
72, 0, 0, 108.0513916015625
73, 0, 0, 111.7211303710938
74, 0, 0, 114.4122543334961
75, 0, 0, 117.7149276733398
76, 0, 0, 119.8858489990234
77, 0, 0, 124.1333389282227
78, 0, 0, 127.2154541015625
79, 0, 0, 132.7926025390625
80, 0, 0, 136.3117370605469
81, 0, 0, 142.1906585693359
82, 0, 0, 147.0054016113281
83, 0, 0, 153.3097686767578
84, 0, 0, 163.0530090332031
85, 0, 0, 172.9054718017578
86, 0, 0, 185.7493286132812
87, 0, 0, 199.4079742431641
88, 0, 0, 224.9035797119141
89, 0, 0, 259.1815795898438
90, 0, 0, 311.405517578125
91, 0, 0, 366.9524536132812
92, 0, 0, 288.9656982421875
93, 0, 0, 205.0042419433594
94, 0, 0, 106.5669479370117
95, 0, 0, 21.7124137878418
96, 0, 0, 12.65645122528076
97, 0, 0, 1.437090754508972
98, 0, 0, 0
99, 0, 0, 0
100, 0, 0, 0
101, 0, 0, 0
102, 0, 0, 0
103, 0, 0, 0
104, 0, 0, 0
105, 0, 0, 0
106, 0, 0, 0
107, 0, 0, 0
108, 0, 0, 0
109, 0, 0, 0
110, 0, 0, 0
111, 0, 0, 0
112, 0, 0, 0
113, 0, 0, 0
114, 0, 0, 0
115, 0, 0, 0
116, 0, 0, 0
117, 0, 0, 0
118, 0, 0, 0
119, 0, 0, 0
120, 0, 0, 0
121, 0, 0, 0
122, 0, 0, 0
123, 0, 0, 0
124, 0, 0, 0
125, 0, 0, 0
126, 0, 0, 0
127, 0, 0, 0
128, 0, 0, 0
129, 0, 0, 0
130, 0, 0, 0
131, 0, 0, 0
132, 0, 0, 0
133, 0, 0, 0
134, 0, 0, 0
135, 0, 0, 0
136, 0, 0, 0
137, 0, 0, 0
138, 0, 0, 0
139, 0, 0, 0
140, 0, 0, 0
141, 0, 0, 0
142, 0, 0, 0
143, 0, 0, 0
144, 0, 0, 0
145, 0, 0, 0
146, 0, 0, 0
147, 0, 0, 0
148, 0, 0, 0
149, 0, 0, 0
150, 0, 0, 0
151, 0, 0, 0
152, 0, 0, 0
153, 0, 0, 0
154, 0, 0, 0
155, 0, 0, 0
156, 0, 0, 0
157, 0, 0, 0
158, 0, 0, 0
159, 0, 0, 0
160, 0, 0, 0
161, 0, 0, 0
162, 0, 0, 0
163, 0, 0, 0
164, 0, 0, 0
165, 0, 0, 0
166, 0, 0, 0
167, 0, 0, 0
168, 0, 0, 0
169, 0, 0, 0
170, 0, 0, 0
171, 0, 0, 0
172, 0, 0, 0
173, 0, 0, 0
174, 0, 0, 0
175, 0, 0, 0
176, 0, 0, 0
177, 0, 0, 0
178, 0, 0, 0
179, 0, 0, 0
