# TOPAS Version: 3.3.p1
# Parameter File: Simple_Pattern.txt
# Results for scorer MLIC_Scorer
# Scored in component: MLIC
# X in 165 bins of 0.2 cm
# Y in 1 bin  of 10 cm
# Z in 1 bin  of 10 cm
# EnergyDeposit ( MeV ) : Sum   
0, 0, 0, 940.8712158203125
1, 0, 0, 942.203857421875
2, 0, 0, 948.3319091796875
3, 0, 0, 948.1315307617188
4, 0, 0, 948.2382202148438
5, 0, 0, 946.6978759765625
6, 0, 0, 960.87744140625
7, 0, 0, 954.8818359375
8, 0, 0, 968.4198608398438
9, 0, 0, 972.7313232421875
10, 0, 0, 972.0009155273438
11, 0, 0, 973.0571899414062
12, 0, 0, 983.1695556640625
13, 0, 0, 977.6984252929688
14, 0, 0, 984.9496459960938
15, 0, 0, 993.9972534179688
16, 0, 0, 996.1470336914062
17, 0, 0, 996.59912109375
18, 0, 0, 1001.42578125
19, 0, 0, 1005.462951660156
20, 0, 0, 1012.389892578125
21, 0, 0, 1014.2021484375
22, 0, 0, 1016.973754882812
23, 0, 0, 1029.532470703125
24, 0, 0, 1023.362670898438
25, 0, 0, 1024.283203125
26, 0, 0, 1032.958862304688
27, 0, 0, 1042.181762695312
28, 0, 0, 1036.8037109375
29, 0, 0, 1047.066528320312
30, 0, 0, 1047.526733398438
31, 0, 0, 1056.622436523438
32, 0, 0, 1065.185302734375
33, 0, 0, 1069.583129882812
34, 0, 0, 1067.8388671875
35, 0, 0, 1075.485229492188
36, 0, 0, 1081.278564453125
37, 0, 0, 1092.473876953125
38, 0, 0, 1092.2734375
39, 0, 0, 1094.5791015625
40, 0, 0, 1109.565795898438
41, 0, 0, 1114.20556640625
42, 0, 0, 1119.184814453125
43, 0, 0, 1118.64208984375
44, 0, 0, 1124.2119140625
45, 0, 0, 1131.891723632812
46, 0, 0, 1139.501098632812
47, 0, 0, 1149.008178710938
48, 0, 0, 1155.302612304688
49, 0, 0, 1166.026123046875
50, 0, 0, 1169.427978515625
51, 0, 0, 1179.990356445312
52, 0, 0, 1179.423583984375
53, 0, 0, 1195.517822265625
54, 0, 0, 1199.359497070312
55, 0, 0, 1209.514404296875
56, 0, 0, 1217.913330078125
57, 0, 0, 1224.62255859375
58, 0, 0, 1220.992553710938
59, 0, 0, 1243.52880859375
60, 0, 0, 1250.354858398438
61, 0, 0, 1256.746826171875
62, 0, 0, 1260.946044921875
63, 0, 0, 1276.072021484375
64, 0, 0, 1287.608154296875
65, 0, 0, 1302.410522460938
66, 0, 0, 1316.699951171875
67, 0, 0, 1326.432495117188
68, 0, 0, 1334.071899414062
69, 0, 0, 1354.676879882812
70, 0, 0, 1365.080200195312
71, 0, 0, 1387.908081054688
72, 0, 0, 1389.067016601562
73, 0, 0, 1399.882934570312
74, 0, 0, 1420.989990234375
75, 0, 0, 1426.664672851562
76, 0, 0, 1447.415771484375
77, 0, 0, 1464.492553710938
78, 0, 0, 1474.39208984375
79, 0, 0, 1499.361938476562
80, 0, 0, 1516.43994140625
81, 0, 0, 1536.310180664062
82, 0, 0, 1554.267944335938
83, 0, 0, 1568.369384765625
84, 0, 0, 1598.411254882812
85, 0, 0, 1614.718139648438
86, 0, 0, 1638.703125
87, 0, 0, 1655.469360351562
88, 0, 0, 1690.501708984375
89, 0, 0, 1710.507934570312
90, 0, 0, 1738.6513671875
91, 0, 0, 1770.043579101562
92, 0, 0, 1803.30419921875
93, 0, 0, 1845.308959960938
94, 0, 0, 1873.478149414062
95, 0, 0, 1910.639892578125
96, 0, 0, 1956.475830078125
97, 0, 0, 2000.305541992188
98, 0, 0, 2050.207763671875
99, 0, 0, 2108.058837890625
100, 0, 0, 2167.716552734375
101, 0, 0, 2236.417236328125
102, 0, 0, 2311.051513671875
103, 0, 0, 2385.659423828125
104, 0, 0, 2480.609375
105, 0, 0, 2595.981689453125
106, 0, 0, 2719.92138671875
107, 0, 0, 2873.273681640625
108, 0, 0, 3082.444580078125
109, 0, 0, 3329.39990234375
110, 0, 0, 3717.443603515625
111, 0, 0, 4125.6669921875
112, 0, 0, 4712.93408203125
113, 0, 0, 5259.4404296875
114, 0, 0, 5303.5810546875
115, 0, 0, 4373.724609375
116, 0, 0, 2809.937255859375
117, 0, 0, 1405.00927734375
118, 0, 0, 583.7384033203125
119, 0, 0, 165.1750793457031
120, 0, 0, 33.25493240356445
121, 0, 0, 0.005152404308319092
122, 0, 0, 0
123, 0, 0, 0
124, 0, 0, 0
125, 0, 0, 0
126, 0, 0, 0
127, 0, 0, 0
128, 0, 0, 0
129, 0, 0, 0
130, 0, 0, 0
131, 0, 0, 0
132, 0, 0, 0
133, 0, 0, 0
134, 0, 0, 0
135, 0, 0, 0
136, 0, 0, 0
137, 0, 0, 0
138, 0, 0, 0
139, 0, 0, 0
140, 0, 0, 0
141, 0, 0, 0
142, 0, 0, 0
143, 0, 0, 0
144, 0, 0, 0.0007222631829790771
145, 0, 0, 0
146, 0, 0, 0.07226209342479706
147, 0, 0, 0.001494931988418102
148, 0, 0, 0
149, 0, 0, 0
150, 0, 0, 0
151, 0, 0, 0
152, 0, 0, 0
153, 0, 0, 0.0572054348886013
154, 0, 0, 0
155, 0, 0, 0
156, 0, 0, 0
157, 0, 0, 0
158, 0, 0, 0
159, 0, 0, 0
160, 0, 0, 0
161, 0, 0, 0
162, 0, 0, 0
163, 0, 0, 0
164, 0, 0, 0.01209038496017456
