# TOPAS Version: 3.3.p1
# Parameter File: Simple_Pattern.txt
# Results for scorer MLIC_Scorer
# Scored in component: MLIC
# X in 180 bins of 0.222222 cm
# Y in 1 bin  of 10 cm
# Z in 1 bin  of 10 cm
# EnergyDeposit ( MeV ) : Sum   
0, 0, 0, 52.87090682983398
1, 0, 0, 53.41616058349609
2, 0, 0, 54.88983917236328
3, 0, 0, 54.46884918212891
4, 0, 0, 54.9083251953125
5, 0, 0, 55.78450012207031
6, 0, 0, 54.14767837524414
7, 0, 0, 55.01266479492188
8, 0, 0, 53.85476303100586
9, 0, 0, 55.49025344848633
10, 0, 0, 56.36354827880859
11, 0, 0, 58.71719360351562
12, 0, 0, 55.23311614990234
13, 0, 0, 58.81032180786133
14, 0, 0, 58.00753402709961
15, 0, 0, 58.24362564086914
16, 0, 0, 55.88436889648438
17, 0, 0, 60.16438674926758
18, 0, 0, 59.18970108032227
19, 0, 0, 57.15033721923828
20, 0, 0, 58.71470642089844
21, 0, 0, 58.69108200073242
22, 0, 0, 56.85898208618164
23, 0, 0, 57.72064971923828
24, 0, 0, 60.50170516967773
25, 0, 0, 61.08859634399414
26, 0, 0, 60.86295318603516
27, 0, 0, 60.34742736816406
28, 0, 0, 61.35661315917969
29, 0, 0, 62.47633743286133
30, 0, 0, 61.50781631469727
31, 0, 0, 61.51547241210938
32, 0, 0, 63.00085067749023
33, 0, 0, 61.92507934570312
34, 0, 0, 62.82656097412109
35, 0, 0, 66.38945007324219
36, 0, 0, 63.30979537963867
37, 0, 0, 64.35537719726562
38, 0, 0, 65.81843566894531
39, 0, 0, 64.11661529541016
40, 0, 0, 65.9876708984375
41, 0, 0, 65.91868591308594
42, 0, 0, 67.05914306640625
43, 0, 0, 66.25796508789062
44, 0, 0, 70.03665924072266
45, 0, 0, 68.05345153808594
46, 0, 0, 70.78092193603516
47, 0, 0, 69.21664428710938
48, 0, 0, 71.32414245605469
49, 0, 0, 71.52518463134766
50, 0, 0, 71.99460601806641
51, 0, 0, 73.44502258300781
52, 0, 0, 73.76224517822266
53, 0, 0, 73.99984741210938
54, 0, 0, 75.95203399658203
55, 0, 0, 78.16059875488281
56, 0, 0, 77.53268432617188
57, 0, 0, 79.88239288330078
58, 0, 0, 78.48013305664062
59, 0, 0, 79.85945129394531
60, 0, 0, 79.16946411132812
61, 0, 0, 83.00407409667969
62, 0, 0, 83.67456817626953
63, 0, 0, 85.21360015869141
64, 0, 0, 84.39983367919922
65, 0, 0, 88.60969543457031
66, 0, 0, 88.82466125488281
67, 0, 0, 90.07627868652344
68, 0, 0, 91.04487609863281
69, 0, 0, 93.77796173095703
70, 0, 0, 97.20133972167969
71, 0, 0, 98.68014526367188
72, 0, 0, 97.70079803466797
73, 0, 0, 102.2333145141602
74, 0, 0, 101.966667175293
75, 0, 0, 105.9990539550781
76, 0, 0, 109.5405120849609
77, 0, 0, 111.7875137329102
78, 0, 0, 114.6579666137695
79, 0, 0, 119.4483184814453
80, 0, 0, 124.1031036376953
81, 0, 0, 126.0459823608398
82, 0, 0, 130.4076995849609
83, 0, 0, 137.8907318115234
84, 0, 0, 144.9736785888672
85, 0, 0, 154.1944732666016
86, 0, 0, 164.8569183349609
87, 0, 0, 178.4652252197266
88, 0, 0, 204.3033599853516
89, 0, 0, 215.9784088134766
90, 0, 0, 250.2747192382812
91, 0, 0, 327.3021545410156
92, 0, 0, 300.6646728515625
93, 0, 0, 219.3728637695312
94, 0, 0, 108.3890075683594
95, 0, 0, 52.70232009887695
96, 0, 0, 9.172159194946289
97, 0, 0, 0
98, 0, 0, 0
99, 0, 0, 0
100, 0, 0, 0
101, 0, 0, 0
102, 0, 0, 0
103, 0, 0, 0
104, 0, 0, 0
105, 0, 0, 0
106, 0, 0, 0
107, 0, 0, 0
108, 0, 0, 0
109, 0, 0, 0
110, 0, 0, 0
111, 0, 0, 0
112, 0, 0, 0
113, 0, 0, 0
114, 0, 0, 0
115, 0, 0, 0
116, 0, 0, 0
117, 0, 0, 0
118, 0, 0, 0
119, 0, 0, 0
120, 0, 0, 0
121, 0, 0, 0
122, 0, 0, 0
123, 0, 0, 0
124, 0, 0, 0
125, 0, 0, 0
126, 0, 0, 0
127, 0, 0, 0
128, 0, 0, 0
129, 0, 0, 0
130, 0, 0, 0
131, 0, 0, 0
132, 0, 0, 0
133, 0, 0, 0
134, 0, 0, 0
135, 0, 0, 0
136, 0, 0, 0
137, 0, 0, 0
138, 0, 0, 0
139, 0, 0, 0
140, 0, 0, 0
141, 0, 0, 0
142, 0, 0, 0
143, 0, 0, 0
144, 0, 0, 0
145, 0, 0, 0
146, 0, 0, 0
147, 0, 0, 0
148, 0, 0, 0
149, 0, 0, 0
150, 0, 0, 0
151, 0, 0, 0
152, 0, 0, 0
153, 0, 0, 0
154, 0, 0, 0
155, 0, 0, 0
156, 0, 0, 0
157, 0, 0, 0
158, 0, 0, 0
159, 0, 0, 0
160, 0, 0, 0
161, 0, 0, 0
162, 0, 0, 0
163, 0, 0, 0
164, 0, 0, 0
165, 0, 0, 0
166, 0, 0, 0
167, 0, 0, 0
168, 0, 0, 0
169, 0, 0, 0
170, 0, 0, 0
171, 0, 0, 0
172, 0, 0, 0
173, 0, 0, 0
174, 0, 0, 0
175, 0, 0, 0
176, 0, 0, 0
177, 0, 0, 0
178, 0, 0, 0
179, 0, 0, 0
