# TOPAS Version: 3.3.p1
# Parameter File: Simple_Pattern.txt
# Results for scorer MLIC_Scorer
# Scored in component: MLIC
# X in 180 bins of 0.222222 cm
# Y in 1 bin  of 10 cm
# Z in 1 bin  of 10 cm
# EnergyDeposit ( MeV ) : Sum   
0, 0, 0, 1090.914306640625
1, 0, 0, 1089.773315429688
2, 0, 0, 1094.732055664062
3, 0, 0, 1098.3251953125
4, 0, 0, 1097.4404296875
5, 0, 0, 1119.144287109375
6, 0, 0, 1114.775146484375
7, 0, 0, 1132.618896484375
8, 0, 0, 1124.672485351562
9, 0, 0, 1128.391479492188
10, 0, 0, 1135.132202148438
11, 0, 0, 1137.198364257812
12, 0, 0, 1151.26806640625
13, 0, 0, 1152.4326171875
14, 0, 0, 1156.567626953125
15, 0, 0, 1167.349609375
16, 0, 0, 1164.464111328125
17, 0, 0, 1172.859619140625
18, 0, 0, 1183.146240234375
19, 0, 0, 1193.30029296875
20, 0, 0, 1189.5869140625
21, 0, 0, 1201.133911132812
22, 0, 0, 1200.308471679688
23, 0, 0, 1216.143432617188
24, 0, 0, 1221.953369140625
25, 0, 0, 1228.571533203125
26, 0, 0, 1239.001708984375
27, 0, 0, 1239.133544921875
28, 0, 0, 1253.3896484375
29, 0, 0, 1263.229614257812
30, 0, 0, 1263.867065429688
31, 0, 0, 1267.562622070312
32, 0, 0, 1291.796508789062
33, 0, 0, 1287.664916992188
34, 0, 0, 1295.921020507812
35, 0, 0, 1304.512084960938
36, 0, 0, 1317.635498046875
37, 0, 0, 1318.4921875
38, 0, 0, 1330.526977539062
39, 0, 0, 1344.73193359375
40, 0, 0, 1351.077880859375
41, 0, 0, 1367.419189453125
42, 0, 0, 1377.227294921875
43, 0, 0, 1398.170043945312
44, 0, 0, 1396.984741210938
45, 0, 0, 1417.71630859375
46, 0, 0, 1424.587646484375
47, 0, 0, 1444.8291015625
48, 0, 0, 1449.5400390625
49, 0, 0, 1470.52734375
50, 0, 0, 1473.510620117188
51, 0, 0, 1490.017700195312
52, 0, 0, 1501.2099609375
53, 0, 0, 1514.322875976562
54, 0, 0, 1543.631591796875
55, 0, 0, 1562.3310546875
56, 0, 0, 1574.135864257812
57, 0, 0, 1592.35791015625
58, 0, 0, 1610.875
59, 0, 0, 1635.136596679688
60, 0, 0, 1659.059692382812
61, 0, 0, 1679.609130859375
62, 0, 0, 1692.125
63, 0, 0, 1721.068725585938
64, 0, 0, 1743.178833007812
65, 0, 0, 1769.835693359375
66, 0, 0, 1800.02294921875
67, 0, 0, 1829.672607421875
68, 0, 0, 1854.58642578125
69, 0, 0, 1891.909057617188
70, 0, 0, 1917.423583984375
71, 0, 0, 1958.410034179688
72, 0, 0, 2005.687866210938
73, 0, 0, 2052.1787109375
74, 0, 0, 2092.39453125
75, 0, 0, 2140.85888671875
76, 0, 0, 2196.21533203125
77, 0, 0, 2260.5986328125
78, 0, 0, 2321.06591796875
79, 0, 0, 2390.709228515625
80, 0, 0, 2477.866455078125
81, 0, 0, 2568.597900390625
82, 0, 0, 2670.33251953125
83, 0, 0, 2782.534912109375
84, 0, 0, 2919.94189453125
85, 0, 0, 3090.88720703125
86, 0, 0, 3310.827880859375
87, 0, 0, 3584.585693359375
88, 0, 0, 3970.333740234375
89, 0, 0, 4563.2568359375
90, 0, 0, 5427.04638671875
91, 0, 0, 6024.92822265625
92, 0, 0, 5813.84375
93, 0, 0, 4232.37158203125
94, 0, 0, 2325.798828125
95, 0, 0, 820.3681640625
96, 0, 0, 193.8448028564453
97, 0, 0, 67.40097808837891
98, 0, 0, 0
99, 0, 0, 0
100, 0, 0, 0
101, 0, 0, 0.003158478764817119
102, 0, 0, 0.005360366310924292
103, 0, 0, 0
104, 0, 0, 0
105, 0, 0, 0.02380836009979248
106, 0, 0, 0
107, 0, 0, 0
108, 0, 0, 0
109, 0, 0, 0.04340776056051254
110, 0, 0, 0
111, 0, 0, 0
112, 0, 0, 0
113, 0, 0, 0
114, 0, 0, 0
115, 0, 0, 0
116, 0, 0, 0
117, 0, 0, 0
118, 0, 0, 0
119, 0, 0, 0.01089728623628616
120, 0, 0, 0
121, 0, 0, 0
122, 0, 0, 0
123, 0, 0, 0
124, 0, 0, 0
125, 0, 0, 0
126, 0, 0, 0
127, 0, 0, 0
128, 0, 0, 0
129, 0, 0, 0
130, 0, 0, 0.05142214521765709
131, 0, 0, 0
132, 0, 0, 0
133, 0, 0, 0
134, 0, 0, 0
135, 0, 0, 0
136, 0, 0, 0
137, 0, 0, 0
138, 0, 0, 0
139, 0, 0, 0
140, 0, 0, 0
141, 0, 0, 0
142, 0, 0, 0.03711415082216263
143, 0, 0, 0
144, 0, 0, 0.02290141023695469
145, 0, 0, 0
146, 0, 0, 0
147, 0, 0, 0
148, 0, 0, 0
149, 0, 0, 0
150, 0, 0, 0.06248017773032188
151, 0, 0, 0
152, 0, 0, 0
153, 0, 0, 0
154, 0, 0, 0
155, 0, 0, 0
156, 0, 0, 0
157, 0, 0, 0
158, 0, 0, 0
159, 0, 0, 0
160, 0, 0, 0
161, 0, 0, 0
162, 0, 0, 0
163, 0, 0, 0
164, 0, 0, 0
165, 0, 0, 0
166, 0, 0, 0
167, 0, 0, 0
168, 0, 0, 0
169, 0, 0, 0
170, 0, 0, 0
171, 0, 0, 0
172, 0, 0, 0
173, 0, 0, 0
174, 0, 0, 0
175, 0, 0, 0
176, 0, 0, 0
177, 0, 0, 0
178, 0, 0, 0
179, 0, 0, 0
