# TOPAS Version: 3.3.p1
# Parameter File: Simple_Pattern.txt
# Results for scorer MLIC_Scorer
# Scored in component: MLIC
# X in 180 bins of 0.222222 cm
# Y in 1 bin  of 10 cm
# Z in 1 bin  of 10 cm
# EnergyDeposit ( MeV ) : Sum   
0, 0, 0, 107.6221618652344
1, 0, 0, 109.1167984008789
2, 0, 0, 110.4765167236328
3, 0, 0, 111.5040664672852
4, 0, 0, 110.9839248657227
5, 0, 0, 110.9517364501953
6, 0, 0, 111.7309036254883
7, 0, 0, 111.399055480957
8, 0, 0, 111.0545883178711
9, 0, 0, 114.3290786743164
10, 0, 0, 112.7056121826172
11, 0, 0, 114.7885665893555
12, 0, 0, 115.1919250488281
13, 0, 0, 116.3849792480469
14, 0, 0, 116.1189117431641
15, 0, 0, 114.4437484741211
16, 0, 0, 117.2396850585938
17, 0, 0, 119.2500534057617
18, 0, 0, 117.5159606933594
19, 0, 0, 118.8859405517578
20, 0, 0, 117.9189376831055
21, 0, 0, 121.6572265625
22, 0, 0, 118.8755264282227
23, 0, 0, 118.5989532470703
24, 0, 0, 122.2945785522461
25, 0, 0, 124.3102188110352
26, 0, 0, 124.5579147338867
27, 0, 0, 121.7147598266602
28, 0, 0, 124.0298614501953
29, 0, 0, 126.0102386474609
30, 0, 0, 126.3386535644531
31, 0, 0, 128.9214630126953
32, 0, 0, 126.5741729736328
33, 0, 0, 129.5472412109375
34, 0, 0, 131.0012969970703
35, 0, 0, 130.3975067138672
36, 0, 0, 131.5760040283203
37, 0, 0, 131.7079162597656
38, 0, 0, 133.6163635253906
39, 0, 0, 134.7751922607422
40, 0, 0, 134.7338104248047
41, 0, 0, 136.6345520019531
42, 0, 0, 137.2765197753906
43, 0, 0, 138.5511322021484
44, 0, 0, 140.5943450927734
45, 0, 0, 144.0860900878906
46, 0, 0, 142.6557922363281
47, 0, 0, 147.3338623046875
48, 0, 0, 145.4116516113281
49, 0, 0, 149.0566101074219
50, 0, 0, 149.7131652832031
51, 0, 0, 148.2285461425781
52, 0, 0, 152.2979278564453
53, 0, 0, 151.9218902587891
54, 0, 0, 154.8434600830078
55, 0, 0, 157.9494171142578
56, 0, 0, 157.2608795166016
57, 0, 0, 159.5831146240234
58, 0, 0, 160.2408905029297
59, 0, 0, 163.4697265625
60, 0, 0, 164.7830505371094
61, 0, 0, 169.8439483642578
62, 0, 0, 170.2271881103516
63, 0, 0, 173.5420837402344
64, 0, 0, 177.0127868652344
65, 0, 0, 176.4851684570312
66, 0, 0, 182.1192474365234
67, 0, 0, 184.8613586425781
68, 0, 0, 188.4070129394531
69, 0, 0, 192.5740966796875
70, 0, 0, 191.9121704101562
71, 0, 0, 197.0162506103516
72, 0, 0, 200.2247314453125
73, 0, 0, 206.6603698730469
74, 0, 0, 208.1623382568359
75, 0, 0, 214.7831878662109
76, 0, 0, 221.0536804199219
77, 0, 0, 227.5242919921875
78, 0, 0, 232.5350952148438
79, 0, 0, 239.6159057617188
80, 0, 0, 247.7650299072266
81, 0, 0, 258.3077697753906
82, 0, 0, 269.9564514160156
83, 0, 0, 284.1925048828125
84, 0, 0, 293.3917236328125
85, 0, 0, 311.6003723144531
86, 0, 0, 333.7739868164062
87, 0, 0, 362.5325012207031
88, 0, 0, 399.0840454101562
89, 0, 0, 454.3290405273438
90, 0, 0, 543.872314453125
91, 0, 0, 634.1229248046875
92, 0, 0, 645.516845703125
93, 0, 0, 460.9447326660156
94, 0, 0, 215.9226379394531
95, 0, 0, 85.72488403320312
96, 0, 0, 21.50942802429199
97, 0, 0, 0
98, 0, 0, 0
99, 0, 0, 0
100, 0, 0, 0
101, 0, 0, 0
102, 0, 0, 0
103, 0, 0, 0
104, 0, 0, 0
105, 0, 0, 0
106, 0, 0, 0
107, 0, 0, 0
108, 0, 0, 0
109, 0, 0, 0
110, 0, 0, 0
111, 0, 0, 0
112, 0, 0, 0
113, 0, 0, 0
114, 0, 0, 0
115, 0, 0, 0
116, 0, 0, 0
117, 0, 0, 0
118, 0, 0, 0
119, 0, 0, 0
120, 0, 0, 0
121, 0, 0, 0
122, 0, 0, 0
123, 0, 0, 0
124, 0, 0, 0
125, 0, 0, 0
126, 0, 0, 0
127, 0, 0, 0
128, 0, 0, 0
129, 0, 0, 0
130, 0, 0, 0
131, 0, 0, 0
132, 0, 0, 0
133, 0, 0, 0
134, 0, 0, 0
135, 0, 0, 0
136, 0, 0, 0
137, 0, 0, 0
138, 0, 0, 0
139, 0, 0, 0
140, 0, 0, 0
141, 0, 0, 0
142, 0, 0, 0
143, 0, 0, 0
144, 0, 0, 0
145, 0, 0, 0
146, 0, 0, 0
147, 0, 0, 0
148, 0, 0, 0
149, 0, 0, 0
150, 0, 0, 0
151, 0, 0, 0
152, 0, 0, 0
153, 0, 0, 0
154, 0, 0, 0
155, 0, 0, 0
156, 0, 0, 0
157, 0, 0, 0
158, 0, 0, 0
159, 0, 0, 0
160, 0, 0, 0
161, 0, 0, 0
162, 0, 0, 0
163, 0, 0, 0
164, 0, 0, 0
165, 0, 0, 0
166, 0, 0, 0
167, 0, 0, 0
168, 0, 0, 0
169, 0, 0, 0
170, 0, 0, 0
171, 0, 0, 0
172, 0, 0, 0
173, 0, 0, 0
174, 0, 0, 0
175, 0, 0, 0
176, 0, 0, 0
177, 0, 0, 0
178, 0, 0, 0
179, 0, 0, 0
