# TOPAS Version: 3.3.p1
# Parameter File: Simple_Pattern.txt
# Results for scorer MLIC_Scorer
# Scored in component: MLIC
# X in 180 bins of 0.222222 cm
# Y in 1 bin  of 10 cm
# Z in 1 bin  of 10 cm
# EnergyDeposit ( MeV ) : Sum   
0, 0, 0, 86.37393188476562
1, 0, 0, 87.56980895996094
2, 0, 0, 86.73255157470703
3, 0, 0, 86.79463195800781
4, 0, 0, 89.16645812988281
5, 0, 0, 90.9249267578125
6, 0, 0, 87.62070465087891
7, 0, 0, 90.30187225341797
8, 0, 0, 88.41332244873047
9, 0, 0, 89.83143615722656
10, 0, 0, 92.37993621826172
11, 0, 0, 91.09502410888672
12, 0, 0, 89.07910919189453
13, 0, 0, 88.78664398193359
14, 0, 0, 90.18582153320312
15, 0, 0, 93.00547790527344
16, 0, 0, 92.5955810546875
17, 0, 0, 94.49785614013672
18, 0, 0, 94.27733612060547
19, 0, 0, 94.29547882080078
20, 0, 0, 91.25382995605469
21, 0, 0, 91.48940277099609
22, 0, 0, 96.35783386230469
23, 0, 0, 95.7894287109375
24, 0, 0, 94.75667572021484
25, 0, 0, 94.0360107421875
26, 0, 0, 95.700927734375
27, 0, 0, 94.42822265625
28, 0, 0, 100.3679733276367
29, 0, 0, 97.41432189941406
30, 0, 0, 99.12689971923828
31, 0, 0, 98.54256439208984
32, 0, 0, 98.11027526855469
33, 0, 0, 101.1508255004883
34, 0, 0, 100.7207412719727
35, 0, 0, 100.722541809082
36, 0, 0, 101.4171295166016
37, 0, 0, 101.5257797241211
38, 0, 0, 101.6529312133789
39, 0, 0, 103.1432571411133
40, 0, 0, 101.0375137329102
41, 0, 0, 100.7170028686523
42, 0, 0, 103.4380035400391
43, 0, 0, 101.9612121582031
44, 0, 0, 102.1915588378906
45, 0, 0, 103.6142807006836
46, 0, 0, 104.2113189697266
47, 0, 0, 105.3105010986328
48, 0, 0, 102.1655426025391
49, 0, 0, 102.0096054077148
50, 0, 0, 103.3333435058594
51, 0, 0, 107.0650634765625
52, 0, 0, 106.2107467651367
53, 0, 0, 106.6006698608398
54, 0, 0, 105.2448425292969
55, 0, 0, 109.2609100341797
56, 0, 0, 110.9033813476562
57, 0, 0, 111.5163269042969
58, 0, 0, 114.203125
59, 0, 0, 113.4029312133789
60, 0, 0, 114.7267303466797
61, 0, 0, 117.6557540893555
62, 0, 0, 116.4073944091797
63, 0, 0, 121.4477157592773
64, 0, 0, 121.8469696044922
65, 0, 0, 123.2250137329102
66, 0, 0, 124.2428588867188
67, 0, 0, 128.3895111083984
68, 0, 0, 129.7020721435547
69, 0, 0, 128.3809204101562
70, 0, 0, 134.8161010742188
71, 0, 0, 135.5556488037109
72, 0, 0, 137.1691284179688
73, 0, 0, 140.1542053222656
74, 0, 0, 143.5396881103516
75, 0, 0, 148.4154663085938
76, 0, 0, 152.3822479248047
77, 0, 0, 155.9929351806641
78, 0, 0, 159.0694427490234
79, 0, 0, 163.685546875
80, 0, 0, 168.0992736816406
81, 0, 0, 174.9565734863281
82, 0, 0, 180.5936126708984
83, 0, 0, 189.2516784667969
84, 0, 0, 200.1443481445312
85, 0, 0, 210.5912475585938
86, 0, 0, 228.9411468505859
87, 0, 0, 247.6847991943359
88, 0, 0, 277.8418273925781
89, 0, 0, 325.8858032226562
90, 0, 0, 387.8955078125
91, 0, 0, 425.3575134277344
92, 0, 0, 336.6784973144531
93, 0, 0, 243.1075592041016
94, 0, 0, 137.8468627929688
95, 0, 0, 51.66798400878906
96, 0, 0, 8.096016883850098
97, 0, 0, 0
98, 0, 0, 0
99, 0, 0, 0
100, 0, 0, 0
101, 0, 0, 0
102, 0, 0, 0
103, 0, 0, 0
104, 0, 0, 0
105, 0, 0, 0
106, 0, 0, 0
107, 0, 0, 0
108, 0, 0, 0
109, 0, 0, 0
110, 0, 0, 0
111, 0, 0, 0
112, 0, 0, 0
113, 0, 0, 0
114, 0, 0, 0
115, 0, 0, 0
116, 0, 0, 0
117, 0, 0, 0
118, 0, 0, 0
119, 0, 0, 0
120, 0, 0, 0
121, 0, 0, 0
122, 0, 0, 0
123, 0, 0, 0
124, 0, 0, 0
125, 0, 0, 0
126, 0, 0, 0
127, 0, 0, 0
128, 0, 0, 0
129, 0, 0, 0
130, 0, 0, 0
131, 0, 0, 0
132, 0, 0, 0
133, 0, 0, 0
134, 0, 0, 0
135, 0, 0, 0
136, 0, 0, 0
137, 0, 0, 0
138, 0, 0, 0
139, 0, 0, 0
140, 0, 0, 0
141, 0, 0, 0
142, 0, 0, 0
143, 0, 0, 0
144, 0, 0, 0
145, 0, 0, 0
146, 0, 0, 0
147, 0, 0, 0
148, 0, 0, 0
149, 0, 0, 0
150, 0, 0, 0
151, 0, 0, 0
152, 0, 0, 0
153, 0, 0, 0.01476566586643457
154, 0, 0, 0
155, 0, 0, 0
156, 0, 0, 0
157, 0, 0, 0
158, 0, 0, 0
159, 0, 0, 0
160, 0, 0, 0
161, 0, 0, 0
162, 0, 0, 0
163, 0, 0, 0
164, 0, 0, 0
165, 0, 0, 0
166, 0, 0, 0
167, 0, 0, 0
168, 0, 0, 0
169, 0, 0, 0
170, 0, 0, 0
171, 0, 0, 0
172, 0, 0, 0
173, 0, 0, 0
174, 0, 0, 0
175, 0, 0, 0
176, 0, 0, 0
177, 0, 0, 0
178, 0, 0, 0
179, 0, 0, 0
