# TOPAS Version: 3.3.p1
# Parameter File: Simple_Pattern.txt
# Results for scorer MLIC_Scorer
# Scored in component: MLIC
# X in 180 bins of 0.222222 cm
# Y in 1 bin  of 10 cm
# Z in 1 bin  of 10 cm
# EnergyDeposit ( MeV ) : Sum   
0, 0, 0, 81.14488220214844
1, 0, 0, 82.02224731445312
2, 0, 0, 80.39878082275391
3, 0, 0, 81.72844696044922
4, 0, 0, 81.14358520507812
5, 0, 0, 80.85149383544922
6, 0, 0, 81.28783416748047
7, 0, 0, 82.21771240234375
8, 0, 0, 84.13159942626953
9, 0, 0, 82.57817077636719
10, 0, 0, 83.95699310302734
11, 0, 0, 83.44216918945312
12, 0, 0, 85.08200073242188
13, 0, 0, 83.78202819824219
14, 0, 0, 85.34706115722656
15, 0, 0, 86.26445770263672
16, 0, 0, 87.65623474121094
17, 0, 0, 86.14812469482422
18, 0, 0, 87.01182556152344
19, 0, 0, 87.69997406005859
20, 0, 0, 88.27085876464844
21, 0, 0, 92.60282135009766
22, 0, 0, 90.63740539550781
23, 0, 0, 90.22464752197266
24, 0, 0, 91.18605804443359
25, 0, 0, 90.31203460693359
26, 0, 0, 91.43451690673828
27, 0, 0, 91.71871185302734
28, 0, 0, 92.74481964111328
29, 0, 0, 94.83970642089844
30, 0, 0, 92.56563568115234
31, 0, 0, 92.59381866455078
32, 0, 0, 94.82002258300781
33, 0, 0, 93.748779296875
34, 0, 0, 97.01927185058594
35, 0, 0, 96.76010894775391
36, 0, 0, 97.54095458984375
37, 0, 0, 96.72048187255859
38, 0, 0, 98.60491180419922
39, 0, 0, 102.2905807495117
40, 0, 0, 99.66973114013672
41, 0, 0, 100.6110382080078
42, 0, 0, 103.0584716796875
43, 0, 0, 102.3147430419922
44, 0, 0, 102.1792602539062
45, 0, 0, 106.1070709228516
46, 0, 0, 103.5292129516602
47, 0, 0, 107.5987548828125
48, 0, 0, 106.8827362060547
49, 0, 0, 109.0081176757812
50, 0, 0, 109.8701324462891
51, 0, 0, 111.3727645874023
52, 0, 0, 110.9869995117188
53, 0, 0, 111.4040679931641
54, 0, 0, 113.8580169677734
55, 0, 0, 112.9275741577148
56, 0, 0, 117.1307601928711
57, 0, 0, 119.7060317993164
58, 0, 0, 119.4488830566406
59, 0, 0, 122.0947113037109
60, 0, 0, 125.5648422241211
61, 0, 0, 125.8908081054688
62, 0, 0, 126.1790237426758
63, 0, 0, 127.4435272216797
64, 0, 0, 128.961669921875
65, 0, 0, 130.8675994873047
66, 0, 0, 133.4329681396484
67, 0, 0, 136.5307006835938
68, 0, 0, 135.5854339599609
69, 0, 0, 139.823974609375
70, 0, 0, 143.5989837646484
71, 0, 0, 146.0007629394531
72, 0, 0, 149.1832733154297
73, 0, 0, 152.2008056640625
74, 0, 0, 157.2477264404297
75, 0, 0, 157.0443420410156
76, 0, 0, 160.7799682617188
77, 0, 0, 168.3985748291016
78, 0, 0, 171.3224182128906
79, 0, 0, 178.2170257568359
80, 0, 0, 183.7105712890625
81, 0, 0, 189.0600280761719
82, 0, 0, 197.7188568115234
83, 0, 0, 208.5762176513672
84, 0, 0, 219.1012420654297
85, 0, 0, 233.1963500976562
86, 0, 0, 246.5011901855469
87, 0, 0, 265.3613586425781
88, 0, 0, 292.1782531738281
89, 0, 0, 337.9892578125
90, 0, 0, 408.7359313964844
91, 0, 0, 458.7132873535156
92, 0, 0, 450.6925964355469
93, 0, 0, 365.726318359375
94, 0, 0, 172.5445098876953
95, 0, 0, 52.30661392211914
96, 0, 0, 34.08718872070312
97, 0, 0, 4.676066398620605
98, 0, 0, 0
99, 0, 0, 0
100, 0, 0, 0
101, 0, 0, 0
102, 0, 0, 0
103, 0, 0, 0
104, 0, 0, 0
105, 0, 0, 0
106, 0, 0, 0
107, 0, 0, 0
108, 0, 0, 0
109, 0, 0, 0
110, 0, 0, 0
111, 0, 0, 0
112, 0, 0, 0
113, 0, 0, 0
114, 0, 0, 0
115, 0, 0, 0
116, 0, 0, 0
117, 0, 0, 0
118, 0, 0, 0
119, 0, 0, 0
120, 0, 0, 0
121, 0, 0, 0
122, 0, 0, 0
123, 0, 0, 0
124, 0, 0, 0
125, 0, 0, 0
126, 0, 0, 0
127, 0, 0, 0
128, 0, 0, 0
129, 0, 0, 0
130, 0, 0, 0
131, 0, 0, 0
132, 0, 0, 0
133, 0, 0, 0
134, 0, 0, 0
135, 0, 0, 0
136, 0, 0, 0
137, 0, 0, 0
138, 0, 0, 0
139, 0, 0, 0
140, 0, 0, 0
141, 0, 0, 0
142, 0, 0, 0
143, 0, 0, 0
144, 0, 0, 0
145, 0, 0, 0
146, 0, 0, 0
147, 0, 0, 0
148, 0, 0, 0
149, 0, 0, 0
150, 0, 0, 0
151, 0, 0, 0
152, 0, 0, 0
153, 0, 0, 0
154, 0, 0, 0
155, 0, 0, 0
156, 0, 0, 0
157, 0, 0, 0
158, 0, 0, 0
159, 0, 0, 0
160, 0, 0, 0
161, 0, 0, 0
162, 0, 0, 0
163, 0, 0, 0
164, 0, 0, 0
165, 0, 0, 0
166, 0, 0, 0
167, 0, 0, 0
168, 0, 0, 0
169, 0, 0, 0
170, 0, 0, 0
171, 0, 0, 0
172, 0, 0, 0
173, 0, 0, 0
174, 0, 0, 0
175, 0, 0, 0
176, 0, 0, 0
177, 0, 0, 0
178, 0, 0, 0
179, 0, 0, 0
