# TOPAS Version: 3.3.p1
# Parameter File: Simple_Pattern.txt
# Results for scorer MLIC_Scorer
# Scored in component: MLIC
# X in 180 bins of 0.222222 cm
# Y in 1 bin  of 10 cm
# Z in 1 bin  of 10 cm
# EnergyDeposit ( MeV ) : Sum   
0, 0, 0, 1152.040893554688
1, 0, 0, 1162.19482421875
2, 0, 0, 1167.333618164062
3, 0, 0, 1171.713134765625
4, 0, 0, 1166.9189453125
5, 0, 0, 1188.029663085938
6, 0, 0, 1193.668701171875
7, 0, 0, 1197.347045898438
8, 0, 0, 1200.853637695312
9, 0, 0, 1210.159423828125
10, 0, 0, 1222.86767578125
11, 0, 0, 1224.683471679688
12, 0, 0, 1224.86572265625
13, 0, 0, 1238.291259765625
14, 0, 0, 1244.546875
15, 0, 0, 1260.316772460938
16, 0, 0, 1264.3349609375
17, 0, 0, 1269.962036132812
18, 0, 0, 1273.444702148438
19, 0, 0, 1285.502563476562
20, 0, 0, 1298.813232421875
21, 0, 0, 1307.318237304688
22, 0, 0, 1304.597412109375
23, 0, 0, 1317.175415039062
24, 0, 0, 1330.700805664062
25, 0, 0, 1348.232543945312
26, 0, 0, 1346.027587890625
27, 0, 0, 1366.9951171875
28, 0, 0, 1366.445068359375
29, 0, 0, 1378.780517578125
30, 0, 0, 1393.677490234375
31, 0, 0, 1406.42138671875
32, 0, 0, 1423.911987304688
33, 0, 0, 1430.017944335938
34, 0, 0, 1437.452270507812
35, 0, 0, 1454.472045898438
36, 0, 0, 1470.706787109375
37, 0, 0, 1477.508422851562
38, 0, 0, 1498.182739257812
39, 0, 0, 1511.956665039062
40, 0, 0, 1526.563110351562
41, 0, 0, 1542.552124023438
42, 0, 0, 1555.820190429688
43, 0, 0, 1578.44384765625
44, 0, 0, 1593.079345703125
45, 0, 0, 1623.023071289062
46, 0, 0, 1630.217041015625
47, 0, 0, 1663.67919921875
48, 0, 0, 1686.17529296875
49, 0, 0, 1710.607421875
50, 0, 0, 1730.49658203125
51, 0, 0, 1760.121215820312
52, 0, 0, 1788.913818359375
53, 0, 0, 1808.268920898438
54, 0, 0, 1840.8388671875
55, 0, 0, 1876.879272460938
56, 0, 0, 1899.580810546875
57, 0, 0, 1945.705444335938
58, 0, 0, 1972.681762695312
59, 0, 0, 2010.882690429688
60, 0, 0, 2062.7158203125
61, 0, 0, 2113.581787109375
62, 0, 0, 2160.638427734375
63, 0, 0, 2212.409912109375
64, 0, 0, 2278.23828125
65, 0, 0, 2342.294189453125
66, 0, 0, 2420.662841796875
67, 0, 0, 2510.45556640625
68, 0, 0, 2599.326171875
69, 0, 0, 2707.08740234375
70, 0, 0, 2830.586669921875
71, 0, 0, 2973.77490234375
72, 0, 0, 3161.232421875
73, 0, 0, 3379.10546875
74, 0, 0, 3664.6259765625
75, 0, 0, 4083.77001953125
76, 0, 0, 4675.845703125
77, 0, 0, 5463.85595703125
78, 0, 0, 6368.9833984375
79, 0, 0, 5668.58984375
80, 0, 0, 4432.27880859375
81, 0, 0, 2483.992431640625
82, 0, 0, 658.2213134765625
83, 0, 0, 139.2355041503906
84, 0, 0, 17.74674224853516
85, 0, 0, 0
86, 0, 0, 0
87, 0, 0, 0
88, 0, 0, 0.006282273214310408
89, 0, 0, 0
90, 0, 0, 0
91, 0, 0, 0
92, 0, 0, 0
93, 0, 0, 0
94, 0, 0, 0
95, 0, 0, 0
96, 0, 0, 0
97, 0, 0, 0
98, 0, 0, 0
99, 0, 0, 0
100, 0, 0, 0
101, 0, 0, 0
102, 0, 0, 0
103, 0, 0, 0
104, 0, 0, 0
105, 0, 0, 0
106, 0, 0, 0
107, 0, 0, 0
108, 0, 0, 0
109, 0, 0, 0
110, 0, 0, 0
111, 0, 0, 0
112, 0, 0, 0
113, 0, 0, 0
114, 0, 0, 0
115, 0, 0, 0
116, 0, 0, 0
117, 0, 0, 0
118, 0, 0, 0
119, 0, 0, 0
120, 0, 0, 0
121, 0, 0, 0
122, 0, 0, 0
123, 0, 0, 0
124, 0, 0, 0
125, 0, 0, 0
126, 0, 0, 0
127, 0, 0, 0
128, 0, 0, 0
129, 0, 0, 0
130, 0, 0, 0
131, 0, 0, 0
132, 0, 0, 0
133, 0, 0, 0
134, 0, 0, 0
135, 0, 0, 0
136, 0, 0, 0
137, 0, 0, 0
138, 0, 0, 0
139, 0, 0, 0
140, 0, 0, 0
141, 0, 0, 0
142, 0, 0, 0
143, 0, 0, 0
144, 0, 0, 0
145, 0, 0, 0
146, 0, 0, 0
147, 0, 0, 0
148, 0, 0, 0
149, 0, 0, 0
150, 0, 0, 0
151, 0, 0, 0
152, 0, 0, 0
153, 0, 0, 0
154, 0, 0, 0
155, 0, 0, 0
156, 0, 0, 0
157, 0, 0, 0
158, 0, 0, 0
159, 0, 0, 0
160, 0, 0, 0
161, 0, 0, 0
162, 0, 0, 0
163, 0, 0, 0
164, 0, 0, 0
165, 0, 0, 0
166, 0, 0, 0
167, 0, 0, 0
168, 0, 0, 0
169, 0, 0, 0
170, 0, 0, 0
171, 0, 0, 0
172, 0, 0, 0
173, 0, 0, 0
174, 0, 0, 0
175, 0, 0, 0
176, 0, 0, 0
177, 0, 0, 0
178, 0, 0, 0
179, 0, 0, 0
