# TOPAS Version: 3.3.p1
# Parameter File: Simple_Pattern.txt
# Results for scorer MLIC_Scorer
# Scored in component: MLIC
# X in 180 bins of 0.222222 cm
# Y in 1 bin  of 10 cm
# Z in 1 bin  of 10 cm
# EnergyDeposit ( MeV ) : Sum   
0, 0, 0, 44.83980941772461
1, 0, 0, 43.63235855102539
2, 0, 0, 43.9017219543457
3, 0, 0, 44.38116836547852
4, 0, 0, 44.25996780395508
5, 0, 0, 45.31377792358398
6, 0, 0, 44.14216232299805
7, 0, 0, 44.09830856323242
8, 0, 0, 44.39284133911133
9, 0, 0, 43.55657577514648
10, 0, 0, 43.72946929931641
11, 0, 0, 45.02649688720703
12, 0, 0, 44.76229095458984
13, 0, 0, 46.31949996948242
14, 0, 0, 46.50425338745117
15, 0, 0, 48.72524261474609
16, 0, 0, 44.75900650024414
17, 0, 0, 47.87917709350586
18, 0, 0, 47.170166015625
19, 0, 0, 47.29244613647461
20, 0, 0, 47.40891265869141
21, 0, 0, 47.01774597167969
22, 0, 0, 47.8144416809082
23, 0, 0, 49.6296501159668
24, 0, 0, 48.95651245117188
25, 0, 0, 47.96318435668945
26, 0, 0, 47.52595901489258
27, 0, 0, 51.04476547241211
28, 0, 0, 50.95314788818359
29, 0, 0, 50.17043304443359
30, 0, 0, 51.73380661010742
31, 0, 0, 52.58631896972656
32, 0, 0, 50.6874885559082
33, 0, 0, 50.84172439575195
34, 0, 0, 50.88643264770508
35, 0, 0, 51.91469573974609
36, 0, 0, 52.51028442382812
37, 0, 0, 51.75394439697266
38, 0, 0, 54.49762344360352
39, 0, 0, 52.80553817749023
40, 0, 0, 53.74940490722656
41, 0, 0, 55.13167953491211
42, 0, 0, 54.52805328369141
43, 0, 0, 55.44411468505859
44, 0, 0, 55.89388275146484
45, 0, 0, 57.90175247192383
46, 0, 0, 57.45625305175781
47, 0, 0, 57.99898910522461
48, 0, 0, 60.80628967285156
49, 0, 0, 58.77080535888672
50, 0, 0, 57.90031051635742
51, 0, 0, 60.17478561401367
52, 0, 0, 61.07151031494141
53, 0, 0, 61.09079360961914
54, 0, 0, 62.01408767700195
55, 0, 0, 62.76288604736328
56, 0, 0, 63.92446899414062
57, 0, 0, 63.84018707275391
58, 0, 0, 65.26145935058594
59, 0, 0, 66.02510833740234
60, 0, 0, 64.92565155029297
61, 0, 0, 67.68662261962891
62, 0, 0, 68.64883422851562
63, 0, 0, 68.82151031494141
64, 0, 0, 69.17820739746094
65, 0, 0, 73.84120941162109
66, 0, 0, 71.28059387207031
67, 0, 0, 73.10840606689453
68, 0, 0, 73.71044921875
69, 0, 0, 76.14379119873047
70, 0, 0, 77.16246032714844
71, 0, 0, 79.68539428710938
72, 0, 0, 81.4942626953125
73, 0, 0, 82.14458465576172
74, 0, 0, 83.41246795654297
75, 0, 0, 85.95159149169922
76, 0, 0, 88.07022857666016
77, 0, 0, 91.23147583007812
78, 0, 0, 93.19548034667969
79, 0, 0, 98.35050201416016
80, 0, 0, 101.3514633178711
81, 0, 0, 103.4507217407227
82, 0, 0, 107.0402603149414
83, 0, 0, 111.9046630859375
84, 0, 0, 118.9270324707031
85, 0, 0, 126.387077331543
86, 0, 0, 134.7026977539062
87, 0, 0, 145.8861389160156
88, 0, 0, 161.4722290039062
89, 0, 0, 177.3695983886719
90, 0, 0, 210.3455657958984
91, 0, 0, 256.6321411132812
92, 0, 0, 228.1215972900391
93, 0, 0, 163.0459442138672
94, 0, 0, 91.52935791015625
95, 0, 0, 10.91936016082764
96, 0, 0, 10.20481586456299
97, 0, 0, 5.014553546905518
98, 0, 0, 0
99, 0, 0, 0
100, 0, 0, 0
101, 0, 0, 0
102, 0, 0, 0
103, 0, 0, 0
104, 0, 0, 0
105, 0, 0, 0
106, 0, 0, 0
107, 0, 0, 0
108, 0, 0, 0
109, 0, 0, 0
110, 0, 0, 0
111, 0, 0, 0
112, 0, 0, 0
113, 0, 0, 0
114, 0, 0, 0
115, 0, 0, 0
116, 0, 0, 0
117, 0, 0, 0
118, 0, 0, 0
119, 0, 0, 0
120, 0, 0, 0
121, 0, 0, 0
122, 0, 0, 0
123, 0, 0, 0
124, 0, 0, 0
125, 0, 0, 0
126, 0, 0, 0
127, 0, 0, 0
128, 0, 0, 0
129, 0, 0, 0
130, 0, 0, 0
131, 0, 0, 0
132, 0, 0, 0
133, 0, 0, 0
134, 0, 0, 0
135, 0, 0, 0
136, 0, 0, 0
137, 0, 0, 0
138, 0, 0, 0
139, 0, 0, 0
140, 0, 0, 0
141, 0, 0, 0
142, 0, 0, 0
143, 0, 0, 0
144, 0, 0, 0
145, 0, 0, 0
146, 0, 0, 0
147, 0, 0, 0
148, 0, 0, 0
149, 0, 0, 0
150, 0, 0, 0
151, 0, 0, 0
152, 0, 0, 0
153, 0, 0, 0
154, 0, 0, 0
155, 0, 0, 0
156, 0, 0, 0
157, 0, 0, 0
158, 0, 0, 0
159, 0, 0, 0
160, 0, 0, 0
161, 0, 0, 0
162, 0, 0, 0
163, 0, 0, 0
164, 0, 0, 0
165, 0, 0, 0
166, 0, 0, 0
167, 0, 0, 0
168, 0, 0, 0
169, 0, 0, 0
170, 0, 0, 0
171, 0, 0, 0
172, 0, 0, 0
173, 0, 0, 0
174, 0, 0, 0
175, 0, 0, 0
176, 0, 0, 0
177, 0, 0, 0
178, 0, 0, 0
179, 0, 0, 0
