# TOPAS Version: 3.3.p1
# Parameter File: Simple_Pattern.txt
# Results for scorer MLIC_Scorer
# Scored in component: MLIC
# X in 180 bins of 0.222222 cm
# Y in 1 bin  of 10 cm
# Z in 1 bin  of 10 cm
# EnergyDeposit ( MeV ) : Sum   
0, 0, 0, 41.58988952636719
1, 0, 0, 43.5246467590332
2, 0, 0, 42.95073699951172
3, 0, 0, 43.5649299621582
4, 0, 0, 43.29933166503906
5, 0, 0, 42.27251434326172
6, 0, 0, 44.07504653930664
7, 0, 0, 44.39402770996094
8, 0, 0, 44.37766265869141
9, 0, 0, 46.67494201660156
10, 0, 0, 45.22949600219727
11, 0, 0, 44.48335647583008
12, 0, 0, 44.1436882019043
13, 0, 0, 44.18982696533203
14, 0, 0, 43.84621429443359
15, 0, 0, 47.13287353515625
16, 0, 0, 46.80194854736328
17, 0, 0, 46.78674697875977
18, 0, 0, 46.68769454956055
19, 0, 0, 45.12009811401367
20, 0, 0, 46.79505157470703
21, 0, 0, 46.89360427856445
22, 0, 0, 46.82159805297852
23, 0, 0, 47.19602966308594
24, 0, 0, 47.38569641113281
25, 0, 0, 48.09560012817383
26, 0, 0, 46.87190628051758
27, 0, 0, 49.30721664428711
28, 0, 0, 50.86863708496094
29, 0, 0, 47.14274215698242
30, 0, 0, 49.0224609375
31, 0, 0, 49.78960418701172
32, 0, 0, 51.14513778686523
33, 0, 0, 51.62094116210938
34, 0, 0, 50.05690765380859
35, 0, 0, 51.01483535766602
36, 0, 0, 50.57447052001953
37, 0, 0, 52.27068328857422
38, 0, 0, 52.48778915405273
39, 0, 0, 52.22356796264648
40, 0, 0, 52.52289962768555
41, 0, 0, 53.92256927490234
42, 0, 0, 54.46491622924805
43, 0, 0, 53.60309982299805
44, 0, 0, 56.77888870239258
45, 0, 0, 55.63909149169922
46, 0, 0, 55.0689697265625
47, 0, 0, 56.16315078735352
48, 0, 0, 56.96346282958984
49, 0, 0, 56.49100494384766
50, 0, 0, 57.87362670898438
51, 0, 0, 58.33139801025391
52, 0, 0, 59.5714225769043
53, 0, 0, 60.17086410522461
54, 0, 0, 61.29302978515625
55, 0, 0, 60.25072860717773
56, 0, 0, 62.9610595703125
57, 0, 0, 61.5078125
58, 0, 0, 62.46865463256836
59, 0, 0, 62.82242965698242
60, 0, 0, 63.95307159423828
61, 0, 0, 65.60240936279297
62, 0, 0, 66.58079528808594
63, 0, 0, 66.41362762451172
64, 0, 0, 69.18616485595703
65, 0, 0, 70.50556945800781
66, 0, 0, 70.19575500488281
67, 0, 0, 72.08039855957031
68, 0, 0, 72.90795135498047
69, 0, 0, 73.56810760498047
70, 0, 0, 75.20571136474609
71, 0, 0, 77.10480499267578
72, 0, 0, 77.83448028564453
73, 0, 0, 83.01780700683594
74, 0, 0, 83.84711456298828
75, 0, 0, 85.76200103759766
76, 0, 0, 88.13597869873047
77, 0, 0, 89.06124877929688
78, 0, 0, 91.86715698242188
79, 0, 0, 93.98677062988281
80, 0, 0, 97.63857269287109
81, 0, 0, 101.9154510498047
82, 0, 0, 107.1494140625
83, 0, 0, 112.6329727172852
84, 0, 0, 116.6274566650391
85, 0, 0, 125.1337051391602
86, 0, 0, 134.1845855712891
87, 0, 0, 145.7754516601562
88, 0, 0, 163.7922821044922
89, 0, 0, 191.7338256835938
90, 0, 0, 224.3495178222656
91, 0, 0, 264.2308349609375
92, 0, 0, 204.7699127197266
93, 0, 0, 142.0130462646484
94, 0, 0, 77.85137939453125
95, 0, 0, 26.55725860595703
96, 0, 0, 0
97, 0, 0, 0
98, 0, 0, 0
99, 0, 0, 0
100, 0, 0, 0
101, 0, 0, 0
102, 0, 0, 0
103, 0, 0, 0
104, 0, 0, 0
105, 0, 0, 0
106, 0, 0, 0
107, 0, 0, 0
108, 0, 0, 0
109, 0, 0, 0
110, 0, 0, 0
111, 0, 0, 0
112, 0, 0, 0
113, 0, 0, 0
114, 0, 0, 0
115, 0, 0, 0
116, 0, 0, 0
117, 0, 0, 0
118, 0, 0, 0
119, 0, 0, 0
120, 0, 0, 0
121, 0, 0, 0
122, 0, 0, 0
123, 0, 0, 0
124, 0, 0, 0
125, 0, 0, 0
126, 0, 0, 0
127, 0, 0, 0
128, 0, 0, 0
129, 0, 0, 0
130, 0, 0, 0
131, 0, 0, 0
132, 0, 0, 0
133, 0, 0, 0
134, 0, 0, 0
135, 0, 0, 0
136, 0, 0, 0
137, 0, 0, 0
138, 0, 0, 0
139, 0, 0, 0
140, 0, 0, 0
141, 0, 0, 0
142, 0, 0, 0
143, 0, 0, 0
144, 0, 0, 0
145, 0, 0, 0
146, 0, 0, 0
147, 0, 0, 0
148, 0, 0, 0
149, 0, 0, 0
150, 0, 0, 0
151, 0, 0, 0
152, 0, 0, 0
153, 0, 0, 0
154, 0, 0, 0
155, 0, 0, 0
156, 0, 0, 0
157, 0, 0, 0
158, 0, 0, 0
159, 0, 0, 0
160, 0, 0, 0
161, 0, 0, 0
162, 0, 0, 0
163, 0, 0, 0
164, 0, 0, 0
165, 0, 0, 0
166, 0, 0, 0
167, 0, 0, 0
168, 0, 0, 0
169, 0, 0, 0
170, 0, 0, 0
171, 0, 0, 0
172, 0, 0, 0
173, 0, 0, 0
174, 0, 0, 0
175, 0, 0, 0
176, 0, 0, 0
177, 0, 0, 0
178, 0, 0, 0
179, 0, 0, 0
