# TOPAS Version: 3.3.p1
# Parameter File: Simple_Pattern.txt
# Results for scorer MLIC_Scorer
# Scored in component: MLIC
# X in 180 bins of 0.222222 cm
# Y in 1 bin  of 10 cm
# Z in 1 bin  of 10 cm
# EnergyDeposit ( MeV ) : Sum   
0, 0, 0, 64.58792114257812
1, 0, 0, 66.95616149902344
2, 0, 0, 67.43629455566406
3, 0, 0, 66.48722076416016
4, 0, 0, 66.48696136474609
5, 0, 0, 69.85163116455078
6, 0, 0, 69.53159332275391
7, 0, 0, 69.32276153564453
8, 0, 0, 67.38448333740234
9, 0, 0, 69.34088134765625
10, 0, 0, 68.90887451171875
11, 0, 0, 69.72637176513672
12, 0, 0, 69.61361694335938
13, 0, 0, 70.67710876464844
14, 0, 0, 69.76847076416016
15, 0, 0, 70.30294036865234
16, 0, 0, 71.70522308349609
17, 0, 0, 71.24643707275391
18, 0, 0, 73.5299072265625
19, 0, 0, 73.73961639404297
20, 0, 0, 73.24650573730469
21, 0, 0, 73.44289398193359
22, 0, 0, 73.94042205810547
23, 0, 0, 74.01665496826172
24, 0, 0, 75.35543060302734
25, 0, 0, 75.45137786865234
26, 0, 0, 78.99872589111328
27, 0, 0, 76.14821624755859
28, 0, 0, 76.50782775878906
29, 0, 0, 78.84112548828125
30, 0, 0, 79.60450744628906
31, 0, 0, 78.56595611572266
32, 0, 0, 80.42066955566406
33, 0, 0, 83.7210693359375
34, 0, 0, 82.96005249023438
35, 0, 0, 82.52711486816406
36, 0, 0, 82.3096923828125
37, 0, 0, 83.20252990722656
38, 0, 0, 83.8028564453125
39, 0, 0, 86.08480072021484
40, 0, 0, 87.35595703125
41, 0, 0, 87.34652709960938
42, 0, 0, 87.69599151611328
43, 0, 0, 87.68653106689453
44, 0, 0, 91.10927581787109
45, 0, 0, 94.22266387939453
46, 0, 0, 91.28418731689453
47, 0, 0, 92.46775054931641
48, 0, 0, 96.63590240478516
49, 0, 0, 96.34518432617188
50, 0, 0, 97.67915344238281
51, 0, 0, 101.4264678955078
52, 0, 0, 101.5469970703125
53, 0, 0, 102.0871505737305
54, 0, 0, 103.9169387817383
55, 0, 0, 108.5881042480469
56, 0, 0, 108.8781051635742
57, 0, 0, 110.1851959228516
58, 0, 0, 113.7814254760742
59, 0, 0, 113.4834518432617
60, 0, 0, 117.942741394043
61, 0, 0, 119.1966171264648
62, 0, 0, 122.7249221801758
63, 0, 0, 124.9991302490234
64, 0, 0, 127.654167175293
65, 0, 0, 131.8435363769531
66, 0, 0, 138.4873809814453
67, 0, 0, 143.64013671875
68, 0, 0, 147.8266754150391
69, 0, 0, 154.1814575195312
70, 0, 0, 162.0212860107422
71, 0, 0, 168.9318084716797
72, 0, 0, 178.9001922607422
73, 0, 0, 192.7189483642578
74, 0, 0, 205.7381439208984
75, 0, 0, 231.4964599609375
76, 0, 0, 271.5181884765625
77, 0, 0, 278.8995361328125
78, 0, 0, 354.2693481445312
79, 0, 0, 380.9659423828125
80, 0, 0, 244.1222991943359
81, 0, 0, 144.1082305908203
82, 0, 0, 48.82595825195312
83, 0, 0, 11.79691600799561
84, 0, 0, 0
85, 0, 0, 0
86, 0, 0, 0
87, 0, 0, 0
88, 0, 0, 0
89, 0, 0, 0
90, 0, 0, 0
91, 0, 0, 0
92, 0, 0, 0
93, 0, 0, 0
94, 0, 0, 0
95, 0, 0, 0
96, 0, 0, 0
97, 0, 0, 0
98, 0, 0, 0
99, 0, 0, 0
100, 0, 0, 0
101, 0, 0, 0
102, 0, 0, 0
103, 0, 0, 0
104, 0, 0, 0
105, 0, 0, 0
106, 0, 0, 0
107, 0, 0, 0
108, 0, 0, 0
109, 0, 0, 0
110, 0, 0, 0
111, 0, 0, 0
112, 0, 0, 0
113, 0, 0, 0
114, 0, 0, 0
115, 0, 0, 0
116, 0, 0, 0
117, 0, 0, 0
118, 0, 0, 0
119, 0, 0, 0
120, 0, 0, 0
121, 0, 0, 0
122, 0, 0, 0
123, 0, 0, 0
124, 0, 0, 0
125, 0, 0, 0
126, 0, 0, 0
127, 0, 0, 0
128, 0, 0, 0
129, 0, 0, 0
130, 0, 0, 0
131, 0, 0, 0
132, 0, 0, 0
133, 0, 0, 0
134, 0, 0, 0
135, 0, 0, 0
136, 0, 0, 0
137, 0, 0, 0
138, 0, 0, 0
139, 0, 0, 0
140, 0, 0, 0
141, 0, 0, 0
142, 0, 0, 0
143, 0, 0, 0
144, 0, 0, 0
145, 0, 0, 0
146, 0, 0, 0
147, 0, 0, 0
148, 0, 0, 0
149, 0, 0, 0
150, 0, 0, 0
151, 0, 0, 0
152, 0, 0, 0
153, 0, 0, 0
154, 0, 0, 0
155, 0, 0, 0
156, 0, 0, 0
157, 0, 0, 0
158, 0, 0, 0
159, 0, 0, 0
160, 0, 0, 0
161, 0, 0, 0
162, 0, 0, 0
163, 0, 0, 0
164, 0, 0, 0
165, 0, 0, 0
166, 0, 0, 0
167, 0, 0, 0
168, 0, 0, 0
169, 0, 0, 0
170, 0, 0, 0
171, 0, 0, 0
172, 0, 0, 0
173, 0, 0, 0
174, 0, 0, 0
175, 0, 0, 0
176, 0, 0, 0
177, 0, 0, 0
178, 0, 0, 0
179, 0, 0, 0
