# TOPAS Version: 3.3.p1
# Parameter File: Simple_Pattern.txt
# Results for scorer MLIC_Scorer
# Scored in component: MLIC
# X in 180 bins of 0.222222 cm
# Y in 1 bin  of 10 cm
# Z in 1 bin  of 10 cm
# EnergyDeposit ( MeV ) : Sum   
0, 0, 0, 52.46053695678711
1, 0, 0, 52.14633560180664
2, 0, 0, 52.20973587036133
3, 0, 0, 54.81212615966797
4, 0, 0, 55.06804656982422
5, 0, 0, 53.35091018676758
6, 0, 0, 54.10181427001953
7, 0, 0, 52.96743774414062
8, 0, 0, 53.93272018432617
9, 0, 0, 53.87570190429688
10, 0, 0, 53.00494384765625
11, 0, 0, 54.29707717895508
12, 0, 0, 54.1246452331543
13, 0, 0, 54.4508056640625
14, 0, 0, 54.6492919921875
15, 0, 0, 54.0007438659668
16, 0, 0, 53.29701614379883
17, 0, 0, 54.88909912109375
18, 0, 0, 54.56563949584961
19, 0, 0, 52.88990020751953
20, 0, 0, 54.51409530639648
21, 0, 0, 55.70873260498047
22, 0, 0, 55.00667953491211
23, 0, 0, 54.54085540771484
24, 0, 0, 55.37874603271484
25, 0, 0, 58.22793197631836
26, 0, 0, 55.52900695800781
27, 0, 0, 56.45756912231445
28, 0, 0, 57.23216247558594
29, 0, 0, 59.8543586730957
30, 0, 0, 58.00090408325195
31, 0, 0, 58.98910522460938
32, 0, 0, 57.79827499389648
33, 0, 0, 60.78097152709961
34, 0, 0, 60.10072708129883
35, 0, 0, 60.77571487426758
36, 0, 0, 59.85501098632812
37, 0, 0, 61.50058364868164
38, 0, 0, 61.57298278808594
39, 0, 0, 61.37133407592773
40, 0, 0, 62.65841293334961
41, 0, 0, 64.9710693359375
42, 0, 0, 61.22035598754883
43, 0, 0, 63.93135070800781
44, 0, 0, 63.09977722167969
45, 0, 0, 63.73870849609375
46, 0, 0, 63.38742446899414
47, 0, 0, 63.63957595825195
48, 0, 0, 65.24112701416016
49, 0, 0, 64.07003021240234
50, 0, 0, 63.6330680847168
51, 0, 0, 66.51660919189453
52, 0, 0, 68.33824157714844
53, 0, 0, 67.38600158691406
54, 0, 0, 69.39518737792969
55, 0, 0, 69.94005584716797
56, 0, 0, 69.77124786376953
57, 0, 0, 72.23593139648438
58, 0, 0, 69.17415618896484
59, 0, 0, 69.51532745361328
60, 0, 0, 71.10302734375
61, 0, 0, 69.30065155029297
62, 0, 0, 70.117919921875
63, 0, 0, 72.81263732910156
64, 0, 0, 70.48207092285156
65, 0, 0, 71.4820556640625
66, 0, 0, 74.63921356201172
67, 0, 0, 76.301025390625
68, 0, 0, 77.06467437744141
69, 0, 0, 76.45475006103516
70, 0, 0, 78.6680908203125
71, 0, 0, 78.24564361572266
72, 0, 0, 81.50261688232422
73, 0, 0, 83.41531372070312
74, 0, 0, 84.96951293945312
75, 0, 0, 84.64810943603516
76, 0, 0, 89.26734161376953
77, 0, 0, 90.95616149902344
78, 0, 0, 95.47774505615234
79, 0, 0, 96.76124572753906
80, 0, 0, 100.4287796020508
81, 0, 0, 104.3429336547852
82, 0, 0, 107.4099044799805
83, 0, 0, 114.8482437133789
84, 0, 0, 119.572509765625
85, 0, 0, 123.5939102172852
86, 0, 0, 133.3604583740234
87, 0, 0, 144.4061889648438
88, 0, 0, 165.9211883544922
89, 0, 0, 168.8286895751953
90, 0, 0, 205.5661010742188
91, 0, 0, 199.0386199951172
92, 0, 0, 216.0307312011719
93, 0, 0, 203.3587799072266
94, 0, 0, 110.7724380493164
95, 0, 0, 1.65197217464447
96, 0, 0, 0
97, 0, 0, 0
98, 0, 0, 0
99, 0, 0, 0
100, 0, 0, 0
101, 0, 0, 0
102, 0, 0, 0
103, 0, 0, 0
104, 0, 0, 0
105, 0, 0, 0
106, 0, 0, 0
107, 0, 0, 0
108, 0, 0, 0
109, 0, 0, 0
110, 0, 0, 0
111, 0, 0, 0
112, 0, 0, 0
113, 0, 0, 0
114, 0, 0, 0
115, 0, 0, 0
116, 0, 0, 0
117, 0, 0, 0
118, 0, 0, 0
119, 0, 0, 0
120, 0, 0, 0
121, 0, 0, 0
122, 0, 0, 0
123, 0, 0, 0
124, 0, 0, 0
125, 0, 0, 0
126, 0, 0, 0
127, 0, 0, 0
128, 0, 0, 0
129, 0, 0, 0
130, 0, 0, 0
131, 0, 0, 0
132, 0, 0, 0
133, 0, 0, 0
134, 0, 0, 0
135, 0, 0, 0
136, 0, 0, 0
137, 0, 0, 0
138, 0, 0, 0
139, 0, 0, 0
140, 0, 0, 0
141, 0, 0, 0
142, 0, 0, 0
143, 0, 0, 0
144, 0, 0, 0
145, 0, 0, 0
146, 0, 0, 0
147, 0, 0, 0
148, 0, 0, 0
149, 0, 0, 0
150, 0, 0, 0
151, 0, 0, 0
152, 0, 0, 0
153, 0, 0, 0
154, 0, 0, 0
155, 0, 0, 0
156, 0, 0, 0
157, 0, 0, 0
158, 0, 0, 0
159, 0, 0, 0
160, 0, 0, 0
161, 0, 0, 0
162, 0, 0, 0
163, 0, 0, 0
164, 0, 0, 0
165, 0, 0, 0
166, 0, 0, 0
167, 0, 0, 0
168, 0, 0, 0
169, 0, 0, 0
170, 0, 0, 0
171, 0, 0, 0
172, 0, 0, 0
173, 0, 0, 0
174, 0, 0, 0
175, 0, 0, 0
176, 0, 0, 0
177, 0, 0, 0
178, 0, 0, 0
179, 0, 0, 0
