# TOPAS Version: 3.3.p1
# Parameter File: Simple_Pattern.txt
# Results for scorer MLIC_Scorer
# Scored in component: MLIC
# X in 165 bins of 0.2 cm
# Y in 1 bin  of 10 cm
# Z in 1 bin  of 10 cm
# EnergyDeposit ( MeV ) : Sum   
0, 0, 0, 956.9495849609375
1, 0, 0, 961.0045166015625
2, 0, 0, 971.9962158203125
3, 0, 0, 972.48876953125
4, 0, 0, 974.278564453125
5, 0, 0, 971.2684936523438
6, 0, 0, 976.9600219726562
7, 0, 0, 984.279541015625
8, 0, 0, 990.3809204101562
9, 0, 0, 988.5462646484375
10, 0, 0, 992.87744140625
11, 0, 0, 1000.929382324219
12, 0, 0, 997.6168212890625
13, 0, 0, 1012.008361816406
14, 0, 0, 1023.105773925781
15, 0, 0, 1017.07861328125
16, 0, 0, 1024.366455078125
17, 0, 0, 1027.171630859375
18, 0, 0, 1033.059326171875
19, 0, 0, 1042.663940429688
20, 0, 0, 1044.21142578125
21, 0, 0, 1041.641235351562
22, 0, 0, 1052.080322265625
23, 0, 0, 1053.813232421875
24, 0, 0, 1058.086669921875
25, 0, 0, 1068.884765625
26, 0, 0, 1081.755249023438
27, 0, 0, 1071.308227539062
28, 0, 0, 1072.55029296875
29, 0, 0, 1089.275512695312
30, 0, 0, 1095.4169921875
31, 0, 0, 1092.370483398438
32, 0, 0, 1098.247314453125
33, 0, 0, 1103.074829101562
34, 0, 0, 1112.3447265625
35, 0, 0, 1117.4052734375
36, 0, 0, 1129.98193359375
37, 0, 0, 1128.719970703125
38, 0, 0, 1149.516845703125
39, 0, 0, 1155.15576171875
40, 0, 0, 1153.920776367188
41, 0, 0, 1153.109985351562
42, 0, 0, 1165.12353515625
43, 0, 0, 1172.055786132812
44, 0, 0, 1177.493286132812
45, 0, 0, 1191.41845703125
46, 0, 0, 1198.309204101562
47, 0, 0, 1205.146118164062
48, 0, 0, 1209.417358398438
49, 0, 0, 1210.971435546875
50, 0, 0, 1233.376220703125
51, 0, 0, 1238.708374023438
52, 0, 0, 1248.486328125
53, 0, 0, 1264.025024414062
54, 0, 0, 1274.8720703125
55, 0, 0, 1279.442993164062
56, 0, 0, 1286.248168945312
57, 0, 0, 1299.894653320312
58, 0, 0, 1311.579833984375
59, 0, 0, 1324.307983398438
60, 0, 0, 1328.871704101562
61, 0, 0, 1349
62, 0, 0, 1357.999145507812
63, 0, 0, 1365.58740234375
64, 0, 0, 1386.60595703125
65, 0, 0, 1402.267578125
66, 0, 0, 1421.30322265625
67, 0, 0, 1428.056518554688
68, 0, 0, 1445.924194335938
69, 0, 0, 1457.209228515625
70, 0, 0, 1476.847534179688
71, 0, 0, 1497.22607421875
72, 0, 0, 1513.828247070312
73, 0, 0, 1537.361328125
74, 0, 0, 1546.66259765625
75, 0, 0, 1586.564086914062
76, 0, 0, 1598.423583984375
77, 0, 0, 1626.793701171875
78, 0, 0, 1640.455688476562
79, 0, 0, 1679.603759765625
80, 0, 0, 1700.864135742188
81, 0, 0, 1730.336791992188
82, 0, 0, 1758.526733398438
83, 0, 0, 1790.369140625
84, 0, 0, 1832.921020507812
85, 0, 0, 1867.300537109375
86, 0, 0, 1908.316040039062
87, 0, 0, 1957.427368164062
88, 0, 0, 2015.684692382812
89, 0, 0, 2066.70068359375
90, 0, 0, 2129.83251953125
91, 0, 0, 2215.095947265625
92, 0, 0, 2291.20849609375
93, 0, 0, 2391.267822265625
94, 0, 0, 2518.162109375
95, 0, 0, 2687.02001953125
96, 0, 0, 2881.522216796875
97, 0, 0, 3190.438232421875
98, 0, 0, 3514.414306640625
99, 0, 0, 3614.992919921875
100, 0, 0, 3602.222900390625
101, 0, 0, 2956.562255859375
102, 0, 0, 2264.93994140625
103, 0, 0, 1810.160522460938
104, 0, 0, 1586.51318359375
105, 0, 0, 1522.213256835938
106, 0, 0, 1547.81689453125
107, 0, 0, 1664.340576171875
108, 0, 0, 1690.850463867188
109, 0, 0, 1767.267822265625
110, 0, 0, 1937.537109375
111, 0, 0, 2199.70458984375
112, 0, 0, 2465.5029296875
113, 0, 0, 2743.88232421875
114, 0, 0, 2729.309326171875
115, 0, 0, 2393.07568359375
116, 0, 0, 1633.708984375
117, 0, 0, 693.3025512695312
118, 0, 0, 242.0703430175781
119, 0, 0, 43.51995849609375
120, 0, 0, 5.536422729492188
121, 0, 0, 7.710689067840576
122, 0, 0, 8.276767730712891
123, 0, 0, 0
124, 0, 0, 0
125, 0, 0, 0
126, 0, 0, 0
127, 0, 0, 0
128, 0, 0, 0
129, 0, 0, 0
130, 0, 0, 0
131, 0, 0, 0
132, 0, 0, 0
133, 0, 0, 0.001337242778390646
134, 0, 0, 0
135, 0, 0, 0
136, 0, 0, 0.03641059994697571
137, 0, 0, 0
138, 0, 0, 0
139, 0, 0, 0
140, 0, 0, 0
141, 0, 0, 0
142, 0, 0, 0
143, 0, 0, 0
144, 0, 0, 0
145, 0, 0, 0
146, 0, 0, 0
147, 0, 0, 0
148, 0, 0, 0
149, 0, 0, 0
150, 0, 0, 0
151, 0, 0, 0
152, 0, 0, 0
153, 0, 0, 0
154, 0, 0, 0
155, 0, 0, 0
156, 0, 0, 0
157, 0, 0, 0
158, 0, 0, 0
159, 0, 0, 0
160, 0, 0, 0
161, 0, 0, 0
162, 0, 0, 0
163, 0, 0, 0
164, 0, 0, 0
