# TOPAS Version: 3.3.p1
# Parameter File: Simple_Pattern.txt
# Results for scorer MLIC_Scorer
# Scored in component: MLIC
# X in 180 bins of 0.222222 cm
# Y in 1 bin  of 10 cm
# Z in 1 bin  of 10 cm
# EnergyDeposit ( MeV ) : Sum   
0, 0, 0, 1087.245239257812
1, 0, 0, 1092.39013671875
2, 0, 0, 1101.827026367188
3, 0, 0, 1099.811401367188
4, 0, 0, 1106.82470703125
5, 0, 0, 1106.718383789062
6, 0, 0, 1112.18212890625
7, 0, 0, 1113.014038085938
8, 0, 0, 1124.397827148438
9, 0, 0, 1139.68505859375
10, 0, 0, 1133.6552734375
11, 0, 0, 1135.661499023438
12, 0, 0, 1147.319458007812
13, 0, 0, 1157.526977539062
14, 0, 0, 1157.973754882812
15, 0, 0, 1165.36474609375
16, 0, 0, 1168.99169921875
17, 0, 0, 1176.885620117188
18, 0, 0, 1175.724853515625
19, 0, 0, 1182.604125976562
20, 0, 0, 1191.552368164062
21, 0, 0, 1210.173461914062
22, 0, 0, 1209.432983398438
23, 0, 0, 1224.747436523438
24, 0, 0, 1215.75341796875
25, 0, 0, 1240.752075195312
26, 0, 0, 1232.73974609375
27, 0, 0, 1249.478881835938
28, 0, 0, 1263.709594726562
29, 0, 0, 1264.0888671875
30, 0, 0, 1264.244506835938
31, 0, 0, 1277.34765625
32, 0, 0, 1287.952880859375
33, 0, 0, 1289.987426757812
34, 0, 0, 1301.735961914062
35, 0, 0, 1305.2294921875
36, 0, 0, 1325.290649414062
37, 0, 0, 1330.442993164062
38, 0, 0, 1338.645385742188
39, 0, 0, 1353.821044921875
40, 0, 0, 1357.679565429688
41, 0, 0, 1369.33837890625
42, 0, 0, 1380.154174804688
43, 0, 0, 1395.261596679688
44, 0, 0, 1416.124267578125
45, 0, 0, 1428.089477539062
46, 0, 0, 1428.240112304688
47, 0, 0, 1446.509033203125
48, 0, 0, 1451.925415039062
49, 0, 0, 1467.184814453125
50, 0, 0, 1485.363525390625
51, 0, 0, 1502.655517578125
52, 0, 0, 1514.98193359375
53, 0, 0, 1537.010986328125
54, 0, 0, 1542.052856445312
55, 0, 0, 1562.532470703125
56, 0, 0, 1584.124145507812
57, 0, 0, 1603.734497070312
58, 0, 0, 1623.739624023438
59, 0, 0, 1636.06103515625
60, 0, 0, 1658.848022460938
61, 0, 0, 1680.70849609375
62, 0, 0, 1710.529052734375
63, 0, 0, 1725.673095703125
64, 0, 0, 1742.64453125
65, 0, 0, 1790.296630859375
66, 0, 0, 1803.964111328125
67, 0, 0, 1839.497802734375
68, 0, 0, 1875.251220703125
69, 0, 0, 1913.370361328125
70, 0, 0, 1944.378784179688
71, 0, 0, 1981.465454101562
72, 0, 0, 2020.266723632812
73, 0, 0, 2061.5703125
74, 0, 0, 2110.525634765625
75, 0, 0, 2157.294921875
76, 0, 0, 2219.279052734375
77, 0, 0, 2284.906982421875
78, 0, 0, 2349.216064453125
79, 0, 0, 2431.437255859375
80, 0, 0, 2517.15869140625
81, 0, 0, 2600.031982421875
82, 0, 0, 2712.00537109375
83, 0, 0, 2846.564208984375
84, 0, 0, 2986.614501953125
85, 0, 0, 3164.671630859375
86, 0, 0, 3392.445556640625
87, 0, 0, 3683.64501953125
88, 0, 0, 4089.833984375
89, 0, 0, 4718.6435546875
90, 0, 0, 5574.37109375
91, 0, 0, 6198.951171875
92, 0, 0, 5959.091796875
93, 0, 0, 4440.41357421875
94, 0, 0, 2066.823486328125
95, 0, 0, 667.2771606445312
96, 0, 0, 161.0043487548828
97, 0, 0, 24.44629096984863
98, 0, 0, 0
99, 0, 0, 0
100, 0, 0, 0
101, 0, 0, 0
102, 0, 0, 0
103, 0, 0, 0
104, 0, 0, 0
105, 0, 0, 0
106, 0, 0, 0
107, 0, 0, 0
108, 0, 0, 0
109, 0, 0, 0
110, 0, 0, 0
111, 0, 0, 0
112, 0, 0, 0
113, 0, 0, 0
114, 0, 0, 0
115, 0, 0, 0
116, 0, 0, 0
117, 0, 0, 0
118, 0, 0, 0
119, 0, 0, 0
120, 0, 0, 0
121, 0, 0, 0
122, 0, 0, 0
123, 0, 0, 0
124, 0, 0, 0
125, 0, 0, 0
126, 0, 0, 0
127, 0, 0, 0
128, 0, 0, 0
129, 0, 0, 0
130, 0, 0, 0
131, 0, 0, 0
132, 0, 0, 0
133, 0, 0, 0
134, 0, 0, 0
135, 0, 0, 0
136, 0, 0, 0
137, 0, 0, 0
138, 0, 0, 0
139, 0, 0, 0
140, 0, 0, 0
141, 0, 0, 0
142, 0, 0, 0
143, 0, 0, 0
144, 0, 0, 0
145, 0, 0, 0
146, 0, 0, 0
147, 0, 0, 0
148, 0, 0, 0
149, 0, 0, 0
150, 0, 0, 0
151, 0, 0, 0
152, 0, 0, 0
153, 0, 0, 0
154, 0, 0, 0
155, 0, 0, 0
156, 0, 0, 0
157, 0, 0, 0
158, 0, 0, 0
159, 0, 0, 0
160, 0, 0, 0
161, 0, 0, 0
162, 0, 0, 0
163, 0, 0, 0
164, 0, 0, 0
165, 0, 0, 0
166, 0, 0, 0
167, 0, 0, 0
168, 0, 0, 0
169, 0, 0, 0
170, 0, 0, 0
171, 0, 0, 0
172, 0, 0, 0
173, 0, 0, 0
174, 0, 0, 0
175, 0, 0, 0
176, 0, 0, 0
177, 0, 0, 0
178, 0, 0, 0
179, 0, 0, 0
