# TOPAS Version: 3.3.p1
# Parameter File: Simple_Pattern.txt
# Results for scorer MLIC_Scorer
# Scored in component: MLIC
# X in 165 bins of 0.2 cm
# Y in 1 bin  of 10 cm
# Z in 1 bin  of 10 cm
# EnergyDeposit ( MeV ) : Sum   
0, 0, 0, 935.9203491210938
1, 0, 0, 940.8197631835938
2, 0, 0, 938.1815185546875
3, 0, 0, 943.589111328125
4, 0, 0, 945.2965087890625
5, 0, 0, 955.7149658203125
6, 0, 0, 954.196533203125
7, 0, 0, 957.6903686523438
8, 0, 0, 959.3858642578125
9, 0, 0, 970.8897094726562
10, 0, 0, 956.562744140625
11, 0, 0, 966.5248413085938
12, 0, 0, 975.4945678710938
13, 0, 0, 975.5267944335938
14, 0, 0, 985.1417236328125
15, 0, 0, 978.637939453125
16, 0, 0, 980.87841796875
17, 0, 0, 986.1907958984375
18, 0, 0, 988.3605346679688
19, 0, 0, 986.017578125
20, 0, 0, 998.52978515625
21, 0, 0, 994.8170776367188
22, 0, 0, 1003.293212890625
23, 0, 0, 1009.33447265625
24, 0, 0, 1003.220458984375
25, 0, 0, 1016.716552734375
26, 0, 0, 1017.269287109375
27, 0, 0, 1024.275146484375
28, 0, 0, 1023.030395507812
29, 0, 0, 1032.549682617188
30, 0, 0, 1037.406860351562
31, 0, 0, 1027.606201171875
32, 0, 0, 1029.00439453125
33, 0, 0, 1030.297973632812
34, 0, 0, 1030.673217773438
35, 0, 0, 1042.448974609375
36, 0, 0, 1040.14990234375
37, 0, 0, 1051.123413085938
38, 0, 0, 1045.34765625
39, 0, 0, 1058.993774414062
40, 0, 0, 1051.058715820312
41, 0, 0, 1062.255004882812
42, 0, 0, 1061.3291015625
43, 0, 0, 1060.195922851562
44, 0, 0, 1069.019287109375
45, 0, 0, 1073.555908203125
46, 0, 0, 1067.21240234375
47, 0, 0, 1073.180541992188
48, 0, 0, 1070.244262695312
49, 0, 0, 1092.891479492188
50, 0, 0, 1086.645385742188
51, 0, 0, 1088.954956054688
52, 0, 0, 1094.504760742188
53, 0, 0, 1102.010375976562
54, 0, 0, 1094.427612304688
55, 0, 0, 1101.623779296875
56, 0, 0, 1103.411376953125
57, 0, 0, 1101.048583984375
58, 0, 0, 1113.937377929688
59, 0, 0, 1118.18701171875
60, 0, 0, 1124.485717773438
61, 0, 0, 1131.735107421875
62, 0, 0, 1131.6376953125
63, 0, 0, 1132.09619140625
64, 0, 0, 1133.115112304688
65, 0, 0, 1144.268920898438
66, 0, 0, 1149.871826171875
67, 0, 0, 1154.6181640625
68, 0, 0, 1152.109375
69, 0, 0, 1158.692016601562
70, 0, 0, 1174.439819335938
71, 0, 0, 1178.494384765625
72, 0, 0, 1175.59765625
73, 0, 0, 1181.383666992188
74, 0, 0, 1189.9072265625
75, 0, 0, 1201.627685546875
76, 0, 0, 1211.34375
77, 0, 0, 1213.813110351562
78, 0, 0, 1224.019653320312
79, 0, 0, 1228.285766601562
80, 0, 0, 1253.430541992188
81, 0, 0, 1261.20654296875
82, 0, 0, 1256.47900390625
83, 0, 0, 1269.837524414062
84, 0, 0, 1286.413452148438
85, 0, 0, 1296.634399414062
86, 0, 0, 1313.496948242188
87, 0, 0, 1332.960693359375
88, 0, 0, 1347.472045898438
89, 0, 0, 1365.129028320312
90, 0, 0, 1378.773071289062
91, 0, 0, 1402.003295898438
92, 0, 0, 1423.118286132812
93, 0, 0, 1447.205932617188
94, 0, 0, 1473.455444335938
95, 0, 0, 1501.644775390625
96, 0, 0, 1525.039794921875
97, 0, 0, 1562.28173828125
98, 0, 0, 1600.401733398438
99, 0, 0, 1636.802734375
100, 0, 0, 1677.946533203125
101, 0, 0, 1721.857299804688
102, 0, 0, 1770.236083984375
103, 0, 0, 1822.741088867188
104, 0, 0, 1887.415649414062
105, 0, 0, 1972.578369140625
106, 0, 0, 2054.318603515625
107, 0, 0, 2173.501953125
108, 0, 0, 2303.465576171875
109, 0, 0, 2482.839111328125
110, 0, 0, 2728.8671875
111, 0, 0, 3065.812744140625
112, 0, 0, 3479.91357421875
113, 0, 0, 3957.46484375
114, 0, 0, 3940.014892578125
115, 0, 0, 3281.077392578125
116, 0, 0, 2127.7587890625
117, 0, 0, 1074.450439453125
118, 0, 0, 431.5809326171875
119, 0, 0, 156.4167938232422
120, 0, 0, 26.80667304992676
121, 0, 0, 12.8325366973877
122, 0, 0, 0
123, 0, 0, 0
124, 0, 0, 0.0249028168618679
125, 0, 0, 0
126, 0, 0, 0.005462277680635452
127, 0, 0, 0.001366387703455985
128, 0, 0, 0
129, 0, 0, 0.1461401283740997
130, 0, 0, 0.01056313887238503
131, 0, 0, 0.0266728550195694
132, 0, 0, 0.01917610317468643
133, 0, 0, 0.02330459281802177
134, 0, 0, 0.01174476277083158
135, 0, 0, 0.00969352014362812
136, 0, 0, 0.01763190701603889
137, 0, 0, 0.01386337354779243
138, 0, 0, 0.001598028815351427
139, 0, 0, 0
140, 0, 0, 0.01236165501177311
141, 0, 0, 0
142, 0, 0, 0
143, 0, 0, 0
144, 0, 0, 0
145, 0, 0, 0
146, 0, 0, 0.009135473519563675
147, 0, 0, 0
148, 0, 0, 0.02720591984689236
149, 0, 0, 0
150, 0, 0, 0.01788697205483913
151, 0, 0, 0.1456525325775146
152, 0, 0, 0.01444888766855001
153, 0, 0, 0
154, 0, 0, 0
155, 0, 0, 0
156, 0, 0, 0
157, 0, 0, 0
158, 0, 0, 0.07789203524589539
159, 0, 0, 0
160, 0, 0, 0
161, 0, 0, 0.002094275085255504
162, 0, 0, 0.001403900911100209
163, 0, 0, 0
164, 0, 0, 0.08408525586128235
