# TOPAS Version: 3.3.p1
# Parameter File: Simple_Pattern.txt
# Results for scorer MLIC_Scorer
# Scored in component: MLIC
# X in 180 bins of 0.222222 cm
# Y in 1 bin  of 10 cm
# Z in 1 bin  of 10 cm
# EnergyDeposit ( MeV ) : Sum   
0, 0, 0, 1094.647583007812
1, 0, 0, 1101.28759765625
2, 0, 0, 1099.58349609375
3, 0, 0, 1094.286743164062
4, 0, 0, 1106.409301757812
5, 0, 0, 1114.177124023438
6, 0, 0, 1107.144653320312
7, 0, 0, 1111.90576171875
8, 0, 0, 1129.879272460938
9, 0, 0, 1138.445190429688
10, 0, 0, 1139.163696289062
11, 0, 0, 1137.512573242188
12, 0, 0, 1144.471435546875
13, 0, 0, 1152.279052734375
14, 0, 0, 1164.78759765625
15, 0, 0, 1170.185302734375
16, 0, 0, 1167.340087890625
17, 0, 0, 1175.603881835938
18, 0, 0, 1178.943603515625
19, 0, 0, 1188.196533203125
20, 0, 0, 1183.191528320312
21, 0, 0, 1200.350341796875
22, 0, 0, 1210.957275390625
23, 0, 0, 1209.468872070312
24, 0, 0, 1222.752075195312
25, 0, 0, 1235.64794921875
26, 0, 0, 1241.77734375
27, 0, 0, 1243.73779296875
28, 0, 0, 1249.673217773438
29, 0, 0, 1258.148559570312
30, 0, 0, 1271.023193359375
31, 0, 0, 1274.952392578125
32, 0, 0, 1277.374877929688
33, 0, 0, 1301.63232421875
34, 0, 0, 1300.952758789062
35, 0, 0, 1312.197143554688
36, 0, 0, 1321.678344726562
37, 0, 0, 1334.638427734375
38, 0, 0, 1333.513061523438
39, 0, 0, 1353.180419921875
40, 0, 0, 1357.875122070312
41, 0, 0, 1369.768798828125
42, 0, 0, 1384.671020507812
43, 0, 0, 1391.7333984375
44, 0, 0, 1404.813354492188
45, 0, 0, 1416.823120117188
46, 0, 0, 1428.1904296875
47, 0, 0, 1444.973022460938
48, 0, 0, 1453.449340820312
49, 0, 0, 1475.547485351562
50, 0, 0, 1480.54931640625
51, 0, 0, 1489.329833984375
52, 0, 0, 1515.245849609375
53, 0, 0, 1530.376342773438
54, 0, 0, 1547.825073242188
55, 0, 0, 1565.440551757812
56, 0, 0, 1583.53076171875
57, 0, 0, 1594.305908203125
58, 0, 0, 1614.636962890625
59, 0, 0, 1634.312622070312
60, 0, 0, 1655.2080078125
61, 0, 0, 1684.214477539062
62, 0, 0, 1699.464233398438
63, 0, 0, 1723.557861328125
64, 0, 0, 1749.186645507812
65, 0, 0, 1787.097534179688
66, 0, 0, 1815.393310546875
67, 0, 0, 1838.065795898438
68, 0, 0, 1862.902465820312
69, 0, 0, 1897.449462890625
70, 0, 0, 1929.365966796875
71, 0, 0, 1975.346557617188
72, 0, 0, 2015.662231445312
73, 0, 0, 2056.7978515625
74, 0, 0, 2105.259765625
75, 0, 0, 2157.80322265625
76, 0, 0, 2206.992431640625
77, 0, 0, 2270.480224609375
78, 0, 0, 2333.015869140625
79, 0, 0, 2398.28759765625
80, 0, 0, 2494.386474609375
81, 0, 0, 2595.28564453125
82, 0, 0, 2693.02880859375
83, 0, 0, 2813.061767578125
84, 0, 0, 2946.32080078125
85, 0, 0, 3136.897216796875
86, 0, 0, 3354.90966796875
87, 0, 0, 3631.951171875
88, 0, 0, 4036.84814453125
89, 0, 0, 4672.650390625
90, 0, 0, 5557.8388671875
91, 0, 0, 6110.96142578125
92, 0, 0, 5804.3857421875
93, 0, 0, 4282.05615234375
94, 0, 0, 2121.6357421875
95, 0, 0, 640.671875
96, 0, 0, 129.5981597900391
97, 0, 0, 5.214546203613281
98, 0, 0, 0.006470206193625927
99, 0, 0, 0
100, 0, 0, 0
101, 0, 0, 0
102, 0, 0, 0
103, 0, 0, 0
104, 0, 0, 0
105, 0, 0, 0
106, 0, 0, 0
107, 0, 0, 0
108, 0, 0, 0
109, 0, 0, 0
110, 0, 0, 0
111, 0, 0, 0
112, 0, 0, 0
113, 0, 0, 0
114, 0, 0, 0
115, 0, 0, 0
116, 0, 0, 0
117, 0, 0, 0
118, 0, 0, 0
119, 0, 0, 0
120, 0, 0, 0
121, 0, 0, 0
122, 0, 0, 0
123, 0, 0, 0
124, 0, 0, 0
125, 0, 0, 0
126, 0, 0, 0
127, 0, 0, 0
128, 0, 0, 0
129, 0, 0, 0
130, 0, 0, 0
131, 0, 0, 0
132, 0, 0, 0
133, 0, 0, 0
134, 0, 0, 0
135, 0, 0, 0
136, 0, 0, 0
137, 0, 0, 0
138, 0, 0, 0
139, 0, 0, 0
140, 0, 0, 0
141, 0, 0, 0
142, 0, 0, 0
143, 0, 0, 0
144, 0, 0, 0
145, 0, 0, 0
146, 0, 0, 0
147, 0, 0, 0
148, 0, 0, 0
149, 0, 0, 0
150, 0, 0, 0
151, 0, 0, 0
152, 0, 0, 0
153, 0, 0, 0
154, 0, 0, 0
155, 0, 0, 0
156, 0, 0, 0
157, 0, 0, 0
158, 0, 0, 0.03622680157423019
159, 0, 0, 0
160, 0, 0, 0
161, 0, 0, 0
162, 0, 0, 0
163, 0, 0, 0
164, 0, 0, 0
165, 0, 0, 0
166, 0, 0, 0
167, 0, 0, 0
168, 0, 0, 0
169, 0, 0, 0
170, 0, 0, 0
171, 0, 0, 0
172, 0, 0, 0
173, 0, 0, 0
174, 0, 0, 0
175, 0, 0, 0
176, 0, 0, 0
177, 0, 0, 0
178, 0, 0, 0
179, 0, 0, 0
