# TOPAS Version: 3.3.p1
# Parameter File: Simple_Pattern.txt
# Results for scorer MLIC_Scorer
# Scored in component: MLIC
# X in 180 bins of 0.222222 cm
# Y in 1 bin  of 10 cm
# Z in 1 bin  of 10 cm
# EnergyDeposit ( MeV ) : Sum   
0, 0, 0, 31.97983932495117
1, 0, 0, 33.2675895690918
2, 0, 0, 31.65159606933594
3, 0, 0, 32.66481781005859
4, 0, 0, 33.88465881347656
5, 0, 0, 34.36219024658203
6, 0, 0, 34.00364303588867
7, 0, 0, 33.52923202514648
8, 0, 0, 33.51680755615234
9, 0, 0, 34.5497932434082
10, 0, 0, 33.75455474853516
11, 0, 0, 33.25479507446289
12, 0, 0, 35.57334518432617
13, 0, 0, 34.20150756835938
14, 0, 0, 34.62262344360352
15, 0, 0, 34.68171691894531
16, 0, 0, 35.69496917724609
17, 0, 0, 35.02320098876953
18, 0, 0, 35.43282318115234
19, 0, 0, 35.71899795532227
20, 0, 0, 34.87026977539062
21, 0, 0, 36.27857971191406
22, 0, 0, 35.20907211303711
23, 0, 0, 37.48768997192383
24, 0, 0, 36.31529998779297
25, 0, 0, 35.49610900878906
26, 0, 0, 36.2992057800293
27, 0, 0, 38.32868194580078
28, 0, 0, 36.4854621887207
29, 0, 0, 38.61126327514648
30, 0, 0, 38.91208267211914
31, 0, 0, 40.0600700378418
32, 0, 0, 38.1236572265625
33, 0, 0, 39.87874984741211
34, 0, 0, 39.78155517578125
35, 0, 0, 37.53720855712891
36, 0, 0, 37.72453308105469
37, 0, 0, 36.88371276855469
38, 0, 0, 37.46824264526367
39, 0, 0, 38.76276779174805
40, 0, 0, 38.77676773071289
41, 0, 0, 39.6967887878418
42, 0, 0, 41.0528678894043
43, 0, 0, 39.85177612304688
44, 0, 0, 40.0442008972168
45, 0, 0, 40.39148330688477
46, 0, 0, 41.36380386352539
47, 0, 0, 41.66717147827148
48, 0, 0, 42.041015625
49, 0, 0, 42.66910552978516
50, 0, 0, 42.68467712402344
51, 0, 0, 44.57303237915039
52, 0, 0, 42.76257705688477
53, 0, 0, 43.03378677368164
54, 0, 0, 43.46402359008789
55, 0, 0, 43.51228332519531
56, 0, 0, 44.24372100830078
57, 0, 0, 44.66981506347656
58, 0, 0, 45.89551544189453
59, 0, 0, 44.69997406005859
60, 0, 0, 46.56057357788086
61, 0, 0, 46.53498840332031
62, 0, 0, 48.74786758422852
63, 0, 0, 48.50872421264648
64, 0, 0, 49.77491760253906
65, 0, 0, 48.97902297973633
66, 0, 0, 51.25681686401367
67, 0, 0, 50.84238052368164
68, 0, 0, 52.35276031494141
69, 0, 0, 53.34702301025391
70, 0, 0, 54.67101669311523
71, 0, 0, 54.11412811279297
72, 0, 0, 57.66019821166992
73, 0, 0, 57.21338272094727
74, 0, 0, 57.39047622680664
75, 0, 0, 58.44088363647461
76, 0, 0, 58.70407104492188
77, 0, 0, 61.45095062255859
78, 0, 0, 63.85453033447266
79, 0, 0, 64.65481567382812
80, 0, 0, 66.36143493652344
81, 0, 0, 70.55007934570312
82, 0, 0, 70.80715942382812
83, 0, 0, 72.97637176513672
84, 0, 0, 75.81783294677734
85, 0, 0, 81.59853363037109
86, 0, 0, 86.99476623535156
87, 0, 0, 90.20844268798828
88, 0, 0, 99.08448028564453
89, 0, 0, 111.3436660766602
90, 0, 0, 134.5985870361328
91, 0, 0, 152.7580718994141
92, 0, 0, 158.6470031738281
93, 0, 0, 134.8567504882812
94, 0, 0, 59.94189453125
95, 0, 0, 1.050491094589233
96, 0, 0, 0
97, 0, 0, 0
98, 0, 0, 0
99, 0, 0, 0
100, 0, 0, 0
101, 0, 0, 0
102, 0, 0, 0
103, 0, 0, 0
104, 0, 0, 0
105, 0, 0, 0
106, 0, 0, 0
107, 0, 0, 0
108, 0, 0, 0
109, 0, 0, 0
110, 0, 0, 0
111, 0, 0, 0.0425732396543026
112, 0, 0, 0
113, 0, 0, 0
114, 0, 0, 0
115, 0, 0, 0
116, 0, 0, 0
117, 0, 0, 0
118, 0, 0, 0
119, 0, 0, 0
120, 0, 0, 0
121, 0, 0, 0
122, 0, 0, 0
123, 0, 0, 0
124, 0, 0, 0
125, 0, 0, 0
126, 0, 0, 0
127, 0, 0, 0
128, 0, 0, 0
129, 0, 0, 0
130, 0, 0, 0
131, 0, 0, 0
132, 0, 0, 0
133, 0, 0, 0
134, 0, 0, 0
135, 0, 0, 0
136, 0, 0, 0
137, 0, 0, 0
138, 0, 0, 0
139, 0, 0, 0
140, 0, 0, 0
141, 0, 0, 0
142, 0, 0, 0
143, 0, 0, 0
144, 0, 0, 0
145, 0, 0, 0
146, 0, 0, 0
147, 0, 0, 0
148, 0, 0, 0
149, 0, 0, 0
150, 0, 0, 0
151, 0, 0, 0
152, 0, 0, 0
153, 0, 0, 0
154, 0, 0, 0
155, 0, 0, 0
156, 0, 0, 0
157, 0, 0, 0
158, 0, 0, 0
159, 0, 0, 0
160, 0, 0, 0
161, 0, 0, 0
162, 0, 0, 0
163, 0, 0, 0
164, 0, 0, 0
165, 0, 0, 0
166, 0, 0, 0
167, 0, 0, 0
168, 0, 0, 0.03582111746072769
169, 0, 0, 0
170, 0, 0, 0
171, 0, 0, 0
172, 0, 0, 0
173, 0, 0, 0
174, 0, 0, 0
175, 0, 0, 0
176, 0, 0, 0
177, 0, 0, 0
178, 0, 0, 0
179, 0, 0, 0
