# TOPAS Version: 3.3.p1
# Parameter File: Simple_Pattern.txt
# Results for scorer MLIC_Scorer
# Scored in component: MLIC
# X in 180 bins of 0.222222 cm
# Y in 1 bin  of 10 cm
# Z in 1 bin  of 10 cm
# EnergyDeposit ( MeV ) : Sum   
0, 0, 0, 48.70713424682617
1, 0, 0, 46.71336364746094
2, 0, 0, 48.88473510742188
3, 0, 0, 48.94128799438477
4, 0, 0, 48.57903289794922
5, 0, 0, 49.56084823608398
6, 0, 0, 50.01543807983398
7, 0, 0, 49.5597038269043
8, 0, 0, 50.61957550048828
9, 0, 0, 49.16101837158203
10, 0, 0, 50.80656814575195
11, 0, 0, 52.54619598388672
12, 0, 0, 50.40254592895508
13, 0, 0, 52.05041885375977
14, 0, 0, 52.36954498291016
15, 0, 0, 52.75619506835938
16, 0, 0, 51.48391342163086
17, 0, 0, 51.75831604003906
18, 0, 0, 54.04785919189453
19, 0, 0, 54.62924957275391
20, 0, 0, 52.84429931640625
21, 0, 0, 53.14019393920898
22, 0, 0, 56.10000991821289
23, 0, 0, 56.13433837890625
24, 0, 0, 55.02733993530273
25, 0, 0, 56.90221405029297
26, 0, 0, 56.77350997924805
27, 0, 0, 56.40644836425781
28, 0, 0, 58.23986053466797
29, 0, 0, 58.35074234008789
30, 0, 0, 58.74277114868164
31, 0, 0, 58.99468231201172
32, 0, 0, 60.53722381591797
33, 0, 0, 60.67104339599609
34, 0, 0, 59.94118499755859
35, 0, 0, 61.39208221435547
36, 0, 0, 61.93035125732422
37, 0, 0, 62.10000610351562
38, 0, 0, 61.82175445556641
39, 0, 0, 63.79617309570312
40, 0, 0, 64.25434112548828
41, 0, 0, 65.46444702148438
42, 0, 0, 65.89265441894531
43, 0, 0, 65.95116424560547
44, 0, 0, 67.77451324462891
45, 0, 0, 67.23130798339844
46, 0, 0, 69.32169342041016
47, 0, 0, 68.599609375
48, 0, 0, 71.71098327636719
49, 0, 0, 71.66484832763672
50, 0, 0, 72.49878692626953
51, 0, 0, 72.49554443359375
52, 0, 0, 75.17241668701172
53, 0, 0, 77.83125305175781
54, 0, 0, 78.64217376708984
55, 0, 0, 78.63256072998047
56, 0, 0, 78.98407745361328
57, 0, 0, 82.43422698974609
58, 0, 0, 82.99143981933594
59, 0, 0, 84.76651763916016
60, 0, 0, 84.96150970458984
61, 0, 0, 88.00382232666016
62, 0, 0, 90.00934600830078
63, 0, 0, 93.29431915283203
64, 0, 0, 95.27871704101562
65, 0, 0, 98.485595703125
66, 0, 0, 101.6471481323242
67, 0, 0, 104.0758514404297
68, 0, 0, 107.9597702026367
69, 0, 0, 114.1264190673828
70, 0, 0, 117.5158157348633
71, 0, 0, 124.1043243408203
72, 0, 0, 131.6575622558594
73, 0, 0, 141.3532562255859
74, 0, 0, 151.2686309814453
75, 0, 0, 167.0185852050781
76, 0, 0, 191.5501403808594
77, 0, 0, 246.2147521972656
78, 0, 0, 241.5002746582031
79, 0, 0, 264.4349060058594
80, 0, 0, 183.3638305664062
81, 0, 0, 89.93315887451172
82, 0, 0, 74.34030914306641
83, 0, 0, 0
84, 0, 0, 0
85, 0, 0, 0
86, 0, 0, 0
87, 0, 0, 0
88, 0, 0, 0
89, 0, 0, 0
90, 0, 0, 0
91, 0, 0, 0
92, 0, 0, 0
93, 0, 0, 0
94, 0, 0, 0
95, 0, 0, 0
96, 0, 0, 0
97, 0, 0, 0
98, 0, 0, 0
99, 0, 0, 0
100, 0, 0, 0
101, 0, 0, 0
102, 0, 0, 0
103, 0, 0, 0
104, 0, 0, 0
105, 0, 0, 0
106, 0, 0, 0
107, 0, 0, 0
108, 0, 0, 0
109, 0, 0, 0
110, 0, 0, 0
111, 0, 0, 0
112, 0, 0, 0
113, 0, 0, 0
114, 0, 0, 0
115, 0, 0, 0
116, 0, 0, 0
117, 0, 0, 0
118, 0, 0, 0
119, 0, 0, 0
120, 0, 0, 0
121, 0, 0, 0
122, 0, 0, 0
123, 0, 0, 0
124, 0, 0, 0
125, 0, 0, 0
126, 0, 0, 0
127, 0, 0, 0
128, 0, 0, 0
129, 0, 0, 0
130, 0, 0, 0
131, 0, 0, 0
132, 0, 0, 0
133, 0, 0, 0
134, 0, 0, 0
135, 0, 0, 0
136, 0, 0, 0
137, 0, 0, 0
138, 0, 0, 0
139, 0, 0, 0
140, 0, 0, 0
141, 0, 0, 0
142, 0, 0, 0
143, 0, 0, 0
144, 0, 0, 0
145, 0, 0, 0
146, 0, 0, 0
147, 0, 0, 0
148, 0, 0, 0
149, 0, 0, 0
150, 0, 0, 0
151, 0, 0, 0
152, 0, 0, 0
153, 0, 0, 0
154, 0, 0, 0
155, 0, 0, 0
156, 0, 0, 0
157, 0, 0, 0
158, 0, 0, 0
159, 0, 0, 0
160, 0, 0, 0
161, 0, 0, 0
162, 0, 0, 0
163, 0, 0, 0
164, 0, 0, 0
165, 0, 0, 0
166, 0, 0, 0
167, 0, 0, 0
168, 0, 0, 0
169, 0, 0, 0
170, 0, 0, 0
171, 0, 0, 0
172, 0, 0, 0
173, 0, 0, 0
174, 0, 0, 0
175, 0, 0, 0
176, 0, 0, 0
177, 0, 0, 0
178, 0, 0, 0
179, 0, 0, 0
