# TOPAS Version: 3.3.p1
# Parameter File: Simple_Pattern.txt
# Results for scorer MLIC_Scorer
# Scored in component: MLIC
# X in 180 bins of 0.222222 cm
# Y in 1 bin  of 10 cm
# Z in 1 bin  of 10 cm
# EnergyDeposit ( MeV ) : Sum   
0, 0, 0, 1086.880493164062
1, 0, 0, 1084.49365234375
2, 0, 0, 1102.042236328125
3, 0, 0, 1105.469970703125
4, 0, 0, 1106.884155273438
5, 0, 0, 1112.712646484375
6, 0, 0, 1110.870361328125
7, 0, 0, 1121.634643554688
8, 0, 0, 1117.376953125
9, 0, 0, 1129.267211914062
10, 0, 0, 1137.865600585938
11, 0, 0, 1148.508422851562
12, 0, 0, 1149.034545898438
13, 0, 0, 1156.977905273438
14, 0, 0, 1164.064086914062
15, 0, 0, 1168.8310546875
16, 0, 0, 1174.153076171875
17, 0, 0, 1171.372680664062
18, 0, 0, 1180.331909179688
19, 0, 0, 1193.264038085938
20, 0, 0, 1193.07470703125
21, 0, 0, 1203.374145507812
22, 0, 0, 1212.535766601562
23, 0, 0, 1217.483642578125
24, 0, 0, 1220.044555664062
25, 0, 0, 1232.94287109375
26, 0, 0, 1237.19970703125
27, 0, 0, 1243.07861328125
28, 0, 0, 1249.541870117188
29, 0, 0, 1265.952270507812
30, 0, 0, 1274.57373046875
31, 0, 0, 1280.427856445312
32, 0, 0, 1285.44873046875
33, 0, 0, 1293.033325195312
34, 0, 0, 1308.883056640625
35, 0, 0, 1308.468627929688
36, 0, 0, 1325.922607421875
37, 0, 0, 1323.798461914062
38, 0, 0, 1331.561645507812
39, 0, 0, 1348.852905273438
40, 0, 0, 1354.53271484375
41, 0, 0, 1367.743774414062
42, 0, 0, 1376.953491210938
43, 0, 0, 1399.356689453125
44, 0, 0, 1399.62939453125
45, 0, 0, 1422.16650390625
46, 0, 0, 1427.822021484375
47, 0, 0, 1437.952026367188
48, 0, 0, 1452.8388671875
49, 0, 0, 1466.506225585938
50, 0, 0, 1482.066772460938
51, 0, 0, 1501.43017578125
52, 0, 0, 1524.406005859375
53, 0, 0, 1535.48193359375
54, 0, 0, 1547.965576171875
55, 0, 0, 1562.6748046875
56, 0, 0, 1572.763427734375
57, 0, 0, 1602.5576171875
58, 0, 0, 1618.103759765625
59, 0, 0, 1636.524658203125
60, 0, 0, 1657.415161132812
61, 0, 0, 1676.533569335938
62, 0, 0, 1702.90673828125
63, 0, 0, 1728.300659179688
64, 0, 0, 1742.818237304688
65, 0, 0, 1771.408569335938
66, 0, 0, 1803.553955078125
67, 0, 0, 1835.377685546875
68, 0, 0, 1880.050537109375
69, 0, 0, 1891.417602539062
70, 0, 0, 1944.69140625
71, 0, 0, 1984.66015625
72, 0, 0, 2016.537841796875
73, 0, 0, 2064.61865234375
74, 0, 0, 2117.038330078125
75, 0, 0, 2177.001953125
76, 0, 0, 2215.91357421875
77, 0, 0, 2278.849365234375
78, 0, 0, 2351.030029296875
79, 0, 0, 2417.76416015625
80, 0, 0, 2499.834228515625
81, 0, 0, 2601.30810546875
82, 0, 0, 2710.857666015625
83, 0, 0, 2827.73486328125
84, 0, 0, 2980.601318359375
85, 0, 0, 3163.10546875
86, 0, 0, 3388.21435546875
87, 0, 0, 3669.640625
88, 0, 0, 4094.585205078125
89, 0, 0, 4640.9580078125
90, 0, 0, 5478.6923828125
91, 0, 0, 6177.70458984375
92, 0, 0, 5960.71923828125
93, 0, 0, 4235.18359375
94, 0, 0, 2440.486083984375
95, 0, 0, 754.0292358398438
96, 0, 0, 144.9171752929688
97, 0, 0, 21.31044006347656
98, 0, 0, 4.558349609375
99, 0, 0, 0
100, 0, 0, 0
101, 0, 0, 0
102, 0, 0, 0
103, 0, 0, 0.002756087342277169
104, 0, 0, 0
105, 0, 0, 0.005381861701607704
106, 0, 0, 0
107, 0, 0, 0
108, 0, 0, 0
109, 0, 0, 0
110, 0, 0, 0
111, 0, 0, 0
112, 0, 0, 0
113, 0, 0, 0
114, 0, 0, 0
115, 0, 0, 0
116, 0, 0, 0
117, 0, 0, 0
118, 0, 0, 0
119, 0, 0, 0
120, 0, 0, 0
121, 0, 0, 0
122, 0, 0, 0
123, 0, 0, 0
124, 0, 0, 0
125, 0, 0, 0
126, 0, 0, 0
127, 0, 0, 0
128, 0, 0, 0
129, 0, 0, 0
130, 0, 0, 0
131, 0, 0, 0
132, 0, 0, 0
133, 0, 0, 0
134, 0, 0, 0
135, 0, 0, 0
136, 0, 0, 0
137, 0, 0, 0
138, 0, 0, 0
139, 0, 0, 0
140, 0, 0, 0
141, 0, 0, 0
142, 0, 0, 0
143, 0, 0, 0
144, 0, 0, 0
145, 0, 0, 0
146, 0, 0, 0
147, 0, 0, 0
148, 0, 0, 0
149, 0, 0, 0
150, 0, 0, 0
151, 0, 0, 0
152, 0, 0, 0
153, 0, 0, 0
154, 0, 0, 0
155, 0, 0, 0
156, 0, 0, 0
157, 0, 0, 0
158, 0, 0, 0
159, 0, 0, 0
160, 0, 0, 0
161, 0, 0, 0
162, 0, 0, 0
163, 0, 0, 0
164, 0, 0, 0
165, 0, 0, 0
166, 0, 0, 0
167, 0, 0, 0
168, 0, 0, 0
169, 0, 0, 0
170, 0, 0, 0
171, 0, 0, 0
172, 0, 0, 0
173, 0, 0, 0
174, 0, 0, 0
175, 0, 0, 0
176, 0, 0, 0
177, 0, 0, 0
178, 0, 0, 0
179, 0, 0, 0
