# TOPAS Version: 3.3.p1
# Parameter File: Simple_Pattern.txt
# Results for scorer MLIC_Scorer
# Scored in component: MLIC
# X in 180 bins of 0.222222 cm
# Y in 1 bin  of 10 cm
# Z in 1 bin  of 10 cm
# EnergyDeposit ( MeV ) : Sum   
0, 0, 0, 319.1072998046875
1, 0, 0, 319.1582641601562
2, 0, 0, 323.260498046875
3, 0, 0, 319.1391906738281
4, 0, 0, 324.8377075195312
5, 0, 0, 319.3373107910156
6, 0, 0, 319.1150207519531
7, 0, 0, 327.5039367675781
8, 0, 0, 328.1453857421875
9, 0, 0, 332.2140502929688
10, 0, 0, 326.9619445800781
11, 0, 0, 330.0449829101562
12, 0, 0, 331.0300903320312
13, 0, 0, 336.4700012207031
14, 0, 0, 343.0844421386719
15, 0, 0, 339.4994506835938
16, 0, 0, 345.43798828125
17, 0, 0, 342.0548706054688
18, 0, 0, 345.2733154296875
19, 0, 0, 347.9423828125
20, 0, 0, 346.8284912109375
21, 0, 0, 354.9908142089844
22, 0, 0, 352.50390625
23, 0, 0, 357.884521484375
24, 0, 0, 360.3305358886719
25, 0, 0, 359.4607238769531
26, 0, 0, 362.0103149414062
27, 0, 0, 363.3779602050781
28, 0, 0, 364.4956970214844
29, 0, 0, 368.2073669433594
30, 0, 0, 369.53076171875
31, 0, 0, 370.0621948242188
32, 0, 0, 379.3165893554688
33, 0, 0, 376.943359375
34, 0, 0, 380.531494140625
35, 0, 0, 385.3430480957031
36, 0, 0, 383.66552734375
37, 0, 0, 388.4262390136719
38, 0, 0, 391.7868347167969
39, 0, 0, 392.1216125488281
40, 0, 0, 396.8490600585938
41, 0, 0, 396.5368347167969
42, 0, 0, 401.18310546875
43, 0, 0, 405.635986328125
44, 0, 0, 411.6707153320312
45, 0, 0, 409.4665222167969
46, 0, 0, 414.4190979003906
47, 0, 0, 423.7658996582031
48, 0, 0, 421.337890625
49, 0, 0, 427.8638610839844
50, 0, 0, 431.866455078125
51, 0, 0, 441.7876892089844
52, 0, 0, 441.0304260253906
53, 0, 0, 445.634521484375
54, 0, 0, 443.0757141113281
55, 0, 0, 455.4111633300781
56, 0, 0, 454.8052062988281
57, 0, 0, 461.2680358886719
58, 0, 0, 471.1682739257812
59, 0, 0, 474.5503540039062
60, 0, 0, 485.0964660644531
61, 0, 0, 491.9143981933594
62, 0, 0, 501.09326171875
63, 0, 0, 500.2941589355469
64, 0, 0, 507.5846557617188
65, 0, 0, 515.442626953125
66, 0, 0, 526.4749145507812
67, 0, 0, 532.1952514648438
68, 0, 0, 539.7402954101562
69, 0, 0, 555.8792114257812
70, 0, 0, 563.7409057617188
71, 0, 0, 578.3487548828125
72, 0, 0, 581.7356567382812
73, 0, 0, 595.4783325195312
74, 0, 0, 606.5119018554688
75, 0, 0, 626.8350830078125
76, 0, 0, 641.3504638671875
77, 0, 0, 658.7171020507812
78, 0, 0, 680.2078857421875
79, 0, 0, 703.464599609375
80, 0, 0, 730.5679321289062
81, 0, 0, 754.3878784179688
82, 0, 0, 784.0767211914062
83, 0, 0, 818.3013916015625
84, 0, 0, 862.5204467773438
85, 0, 0, 912.3685302734375
86, 0, 0, 975.7156372070312
87, 0, 0, 1057.796630859375
88, 0, 0, 1178.869506835938
89, 0, 0, 1326.636474609375
90, 0, 0, 1577.2216796875
91, 0, 0, 1772.456787109375
92, 0, 0, 1739.94970703125
93, 0, 0, 1332.801513671875
94, 0, 0, 604.0740356445312
95, 0, 0, 243.3419189453125
96, 0, 0, 40.99493026733398
97, 0, 0, 0
98, 0, 0, 0
99, 0, 0, 0
100, 0, 0, 0
101, 0, 0, 0
102, 0, 0, 0
103, 0, 0, 0
104, 0, 0, 0
105, 0, 0, 0
106, 0, 0, 0
107, 0, 0, 0
108, 0, 0, 0
109, 0, 0, 0
110, 0, 0, 0
111, 0, 0, 0
112, 0, 0, 0
113, 0, 0, 0
114, 0, 0, 0
115, 0, 0, 0
116, 0, 0, 0
117, 0, 0, 0
118, 0, 0, 0
119, 0, 0, 0
120, 0, 0, 0
121, 0, 0, 0
122, 0, 0, 0
123, 0, 0, 0
124, 0, 0, 0.004357879515737295
125, 0, 0, 0
126, 0, 0, 0
127, 0, 0, 0
128, 0, 0, 0
129, 0, 0, 0
130, 0, 0, 0
131, 0, 0, 0
132, 0, 0, 0
133, 0, 0, 0
134, 0, 0, 0
135, 0, 0, 0
136, 0, 0, 0
137, 0, 0, 0
138, 0, 0, 0
139, 0, 0, 0
140, 0, 0, 0
141, 0, 0, 0
142, 0, 0, 0
143, 0, 0, 0
144, 0, 0, 0
145, 0, 0, 0
146, 0, 0, 0
147, 0, 0, 0
148, 0, 0, 0
149, 0, 0, 0
150, 0, 0, 0
151, 0, 0, 0
152, 0, 0, 0
153, 0, 0, 0
154, 0, 0, 0
155, 0, 0, 0
156, 0, 0, 0
157, 0, 0, 0
158, 0, 0, 0
159, 0, 0, 0
160, 0, 0, 0
161, 0, 0, 0
162, 0, 0, 0
163, 0, 0, 0
164, 0, 0, 0
165, 0, 0, 0
166, 0, 0, 0
167, 0, 0, 0
168, 0, 0, 0
169, 0, 0, 0
170, 0, 0, 0
171, 0, 0, 0
172, 0, 0, 0
173, 0, 0, 0
174, 0, 0, 0
175, 0, 0, 0
176, 0, 0, 0
177, 0, 0, 0
178, 0, 0, 0
179, 0, 0, 0
