# TOPAS Version: 3.3.p1
# Parameter File: Simple_Pattern.txt
# Results for scorer MLIC_Scorer
# Scored in component: MLIC
# X in 180 bins of 0.222222 cm
# Y in 1 bin  of 10 cm
# Z in 1 bin  of 10 cm
# EnergyDeposit ( MeV ) : Sum   
0, 0, 0, 1091.245361328125
1, 0, 0, 1092.032348632812
2, 0, 0, 1094.094116210938
3, 0, 0, 1103.058715820312
4, 0, 0, 1109.53125
5, 0, 0, 1104.197021484375
6, 0, 0, 1116.734741210938
7, 0, 0, 1113.036010742188
8, 0, 0, 1132.712280273438
9, 0, 0, 1129.93994140625
10, 0, 0, 1142.690551757812
11, 0, 0, 1143.796752929688
12, 0, 0, 1146.052734375
13, 0, 0, 1156.8701171875
14, 0, 0, 1165.282348632812
15, 0, 0, 1162.945678710938
16, 0, 0, 1180.447265625
17, 0, 0, 1177.478149414062
18, 0, 0, 1180.610961914062
19, 0, 0, 1183.115600585938
20, 0, 0, 1195.300170898438
21, 0, 0, 1205.194946289062
22, 0, 0, 1214.936279296875
23, 0, 0, 1210.279296875
24, 0, 0, 1229.323852539062
25, 0, 0, 1236.8583984375
26, 0, 0, 1238.853759765625
27, 0, 0, 1243.096435546875
28, 0, 0, 1258.3662109375
29, 0, 0, 1258.766845703125
30, 0, 0, 1266.592529296875
31, 0, 0, 1276.211547851562
32, 0, 0, 1274.919555664062
33, 0, 0, 1307.78125
34, 0, 0, 1297.163940429688
35, 0, 0, 1310.482299804688
36, 0, 0, 1326.479614257812
37, 0, 0, 1332.781982421875
38, 0, 0, 1333.478881835938
39, 0, 0, 1346.611206054688
40, 0, 0, 1364.546508789062
41, 0, 0, 1376.6416015625
42, 0, 0, 1388.882568359375
43, 0, 0, 1391.51416015625
44, 0, 0, 1403.413818359375
45, 0, 0, 1401.28076171875
46, 0, 0, 1434.409057617188
47, 0, 0, 1445.590087890625
48, 0, 0, 1457.121337890625
49, 0, 0, 1467.571655273438
50, 0, 0, 1483.011474609375
51, 0, 0, 1501.1123046875
52, 0, 0, 1511.788452148438
53, 0, 0, 1522.569091796875
54, 0, 0, 1539.952270507812
55, 0, 0, 1563.58740234375
56, 0, 0, 1576.70166015625
57, 0, 0, 1597.631958007812
58, 0, 0, 1615.038452148438
59, 0, 0, 1641.089599609375
60, 0, 0, 1655.240966796875
61, 0, 0, 1675.449829101562
62, 0, 0, 1706.967895507812
63, 0, 0, 1727.220092773438
64, 0, 0, 1747.511596679688
65, 0, 0, 1772.798828125
66, 0, 0, 1794.071411132812
67, 0, 0, 1826.941772460938
68, 0, 0, 1863.823608398438
69, 0, 0, 1900.225830078125
70, 0, 0, 1929.093994140625
71, 0, 0, 1959.893432617188
72, 0, 0, 2010.650512695312
73, 0, 0, 2048.1376953125
74, 0, 0, 2094.980224609375
75, 0, 0, 2150.19384765625
76, 0, 0, 2200.875
77, 0, 0, 2253.43310546875
78, 0, 0, 2317.499755859375
79, 0, 0, 2394.266845703125
80, 0, 0, 2484.861572265625
81, 0, 0, 2567.237548828125
82, 0, 0, 2676.1669921875
83, 0, 0, 2790.9287109375
84, 0, 0, 2950.716064453125
85, 0, 0, 3118.293212890625
86, 0, 0, 3335.559326171875
87, 0, 0, 3618.26904296875
88, 0, 0, 4026.430419921875
89, 0, 0, 4634.662109375
90, 0, 0, 5340.21923828125
91, 0, 0, 6039.78125
92, 0, 0, 5864.08251953125
93, 0, 0, 4116.916015625
94, 0, 0, 2006.263427734375
95, 0, 0, 768.57080078125
96, 0, 0, 183.7826538085938
97, 0, 0, 27.11056518554688
98, 0, 0, 20.43031120300293
99, 0, 0, 0
100, 0, 0, 0
101, 0, 0, 0
102, 0, 0, 0.02224821597337723
103, 0, 0, 0
104, 0, 0, 0.02925216034054756
105, 0, 0, 0
106, 0, 0, 0
107, 0, 0, 0
108, 0, 0, 0
109, 0, 0, 0
110, 0, 0, 0.001053287764079869
111, 0, 0, 0
112, 0, 0, 0
113, 0, 0, 0
114, 0, 0, 0
115, 0, 0, 0
116, 0, 0, 0
117, 0, 0, 0
118, 0, 0, 0
119, 0, 0, 0
120, 0, 0, 0
121, 0, 0, 0
122, 0, 0, 0
123, 0, 0, 0
124, 0, 0, 0
125, 0, 0, 0
126, 0, 0, 0
127, 0, 0, 0
128, 0, 0, 0
129, 0, 0, 0.006808471400290728
130, 0, 0, 0
131, 0, 0, 0
132, 0, 0, 0
133, 0, 0, 0
134, 0, 0, 0
135, 0, 0, 0
136, 0, 0, 0
137, 0, 0, 0
138, 0, 0, 0
139, 0, 0, 0
140, 0, 0, 0.02457613497972488
141, 0, 0, 0
142, 0, 0, 0
143, 0, 0, 0
144, 0, 0, 0
145, 0, 0, 0
146, 0, 0, 0
147, 0, 0, 0
148, 0, 0, 0
149, 0, 0, 0
150, 0, 0, 0
151, 0, 0, 0
152, 0, 0, 0
153, 0, 0, 0
154, 0, 0, 0
155, 0, 0, 0
156, 0, 0, 0
157, 0, 0, 0
158, 0, 0, 0
159, 0, 0, 0
160, 0, 0, 0
161, 0, 0, 0
162, 0, 0, 0
163, 0, 0, 0
164, 0, 0, 0
165, 0, 0, 0
166, 0, 0, 0
167, 0, 0, 0.0171732846647501
168, 0, 0, 0
169, 0, 0, 0
170, 0, 0, 0
171, 0, 0, 0
172, 0, 0, 0
173, 0, 0, 0
174, 0, 0, 0
175, 0, 0, 0
176, 0, 0, 0
177, 0, 0, 0
178, 0, 0, 0
179, 0, 0, 0
