# TOPAS Version: 3.3.p1
# Parameter File: Simple_Pattern.txt
# Results for scorer MLIC_Scorer
# Scored in component: MLIC
# X in 165 bins of 0.2 cm
# Y in 1 bin  of 10 cm
# Z in 1 bin  of 10 cm
# EnergyDeposit ( MeV ) : Sum   
0, 0, 0, 0.06696626543998718
1, 0, 0, 0.001096782041713595
2, 0, 0, 0
3, 0, 0, 0.03262060135602951
4, 0, 0, 0
5, 0, 0, 0
6, 0, 0, 0.04795381426811218
7, 0, 0, 0
8, 0, 0, 0
9, 0, 0, 0
10, 0, 0, 0.009007947519421577
11, 0, 0, 0
12, 0, 0, 0
13, 0, 0, 0
14, 0, 0, 0
15, 0, 0, 0.0105834798887372
16, 0, 0, 0.04934776946902275
17, 0, 0, 0.02857029810547829
18, 0, 0, 0
19, 0, 0, 0
20, 0, 0, 0.06400159746408463
21, 0, 0, 0
22, 0, 0, 0
23, 0, 0, 0.1142557710409164
24, 0, 0, 0.1021469309926033
25, 0, 0, 0
26, 0, 0, 0
27, 0, 0, 0
28, 0, 0, 0.0157212745398283
29, 0, 0, 0.02797114849090576
30, 0, 0, 0
31, 0, 0, 0
32, 0, 0, 0.0904494971036911
33, 0, 0, 0.0109785832464695
34, 0, 0, 0
35, 0, 0, 0.01388579607009888
36, 0, 0, 0.0308295376598835
37, 0, 0, 0.007065474521368742
38, 0, 0, 0.02584800682961941
39, 0, 0, 0.04967420175671577
40, 0, 0, 0
41, 0, 0, 0
42, 0, 0, 0
43, 0, 0, 0.04726109281182289
44, 0, 0, 10.3976993560791
45, 0, 0, 150.3724670410156
46, 0, 0, 409.5072631835938
47, 0, 0, 1082.668701171875
48, 0, 0, 2265.760986328125
49, 0, 0, 3336.938232421875
50, 0, 0, 3966.11669921875
51, 0, 0, 3872.766357421875
52, 0, 0, 3523.15966796875
53, 0, 0, 3067.610595703125
54, 0, 0, 2731.74609375
55, 0, 0, 2479.54052734375
56, 0, 0, 2303.97998046875
57, 0, 0, 2173.465087890625
58, 0, 0, 2047.089477539062
59, 0, 0, 1966.873901367188
60, 0, 0, 1893.937622070312
61, 0, 0, 1821.437744140625
62, 0, 0, 1773.75634765625
63, 0, 0, 1721.631591796875
64, 0, 0, 1670.771362304688
65, 0, 0, 1631.346801757812
66, 0, 0, 1590.324584960938
67, 0, 0, 1550.09423828125
68, 0, 0, 1514.136108398438
69, 0, 0, 1491.4130859375
70, 0, 0, 1462.036376953125
71, 0, 0, 1454.234741210938
72, 0, 0, 1426.353149414062
73, 0, 0, 1402.52587890625
74, 0, 0, 1386.069091796875
75, 0, 0, 1373.494262695312
76, 0, 0, 1341.232666015625
77, 0, 0, 1337.103881835938
78, 0, 0, 1313.882690429688
79, 0, 0, 1301.177490234375
80, 0, 0, 1293.137084960938
81, 0, 0, 1277.44677734375
82, 0, 0, 1258.950927734375
83, 0, 0, 1252.452026367188
84, 0, 0, 1244.506225585938
85, 0, 0, 1235.284423828125
86, 0, 0, 1223.31298828125
87, 0, 0, 1222.068237304688
88, 0, 0, 1212.379150390625
89, 0, 0, 1202.0341796875
90, 0, 0, 1188.157592773438
91, 0, 0, 1170.221923828125
92, 0, 0, 1174.80810546875
93, 0, 0, 1161.150268554688
94, 0, 0, 1159.17138671875
95, 0, 0, 1148.01953125
96, 0, 0, 1144.896850585938
97, 0, 0, 1141.1474609375
98, 0, 0, 1138.453369140625
99, 0, 0, 1132.353759765625
100, 0, 0, 1133.849487304688
101, 0, 0, 1118.14306640625
102, 0, 0, 1118.965942382812
103, 0, 0, 1118.75390625
104, 0, 0, 1118.936401367188
105, 0, 0, 1109.656982421875
106, 0, 0, 1108.999145507812
107, 0, 0, 1103.346069335938
108, 0, 0, 1093.566528320312
109, 0, 0, 1098.3896484375
110, 0, 0, 1089.265258789062
111, 0, 0, 1088.36865234375
112, 0, 0, 1080.4384765625
113, 0, 0, 1082.101684570312
114, 0, 0, 1076.959106445312
115, 0, 0, 1071.798950195312
116, 0, 0, 1064.915893554688
117, 0, 0, 1058.678344726562
118, 0, 0, 1055.984497070312
119, 0, 0, 1056.999267578125
120, 0, 0, 1061.503662109375
121, 0, 0, 1051.862670898438
122, 0, 0, 1053.828002929688
123, 0, 0, 1052.031860351562
124, 0, 0, 1049.802612304688
125, 0, 0, 1043.130126953125
126, 0, 0, 1033.904418945312
127, 0, 0, 1047.418701171875
128, 0, 0, 1036.87451171875
129, 0, 0, 1042.425170898438
130, 0, 0, 1031.304931640625
131, 0, 0, 1035.082275390625
132, 0, 0, 1023.282287597656
133, 0, 0, 1026.706420898438
134, 0, 0, 1022.164306640625
135, 0, 0, 1013.566223144531
136, 0, 0, 1022.61572265625
137, 0, 0, 1023.178527832031
138, 0, 0, 1008.71826171875
139, 0, 0, 1007.273315429688
140, 0, 0, 1009.362609863281
141, 0, 0, 1007.171630859375
142, 0, 0, 1007.061950683594
143, 0, 0, 999.2839965820312
144, 0, 0, 1000.618408203125
145, 0, 0, 1000.429870605469
146, 0, 0, 984.307373046875
147, 0, 0, 988.4938354492188
148, 0, 0, 981.2730102539062
149, 0, 0, 989.572509765625
150, 0, 0, 984.4202880859375
151, 0, 0, 969.6514892578125
152, 0, 0, 973.8236083984375
153, 0, 0, 967.6024169921875
154, 0, 0, 961.9469604492188
155, 0, 0, 958.1923217773438
156, 0, 0, 957.8993530273438
157, 0, 0, 962.061767578125
158, 0, 0, 957.7335815429688
159, 0, 0, 946.7984008789062
160, 0, 0, 945.2440185546875
161, 0, 0, 946.1515502929688
162, 0, 0, 941.1712036132812
163, 0, 0, 938.265625
164, 0, 0, 935.232666015625
