# TOPAS Version: 3.3.p1
# Parameter File: Simple_Pattern.txt
# Results for scorer MLIC_Scorer
# Scored in component: MLIC
# X in 180 bins of 0.222222 cm
# Y in 1 bin  of 10 cm
# Z in 1 bin  of 10 cm
# EnergyDeposit ( MeV ) : Sum   
0, 0, 0, 1072.918212890625
1, 0, 0, 1089.4404296875
2, 0, 0, 1095.890991210938
3, 0, 0, 1101.275512695312
4, 0, 0, 1097.882934570312
5, 0, 0, 1111.7412109375
6, 0, 0, 1113.429565429688
7, 0, 0, 1120.5615234375
8, 0, 0, 1123.993896484375
9, 0, 0, 1123.324096679688
10, 0, 0, 1133.380126953125
11, 0, 0, 1142.414306640625
12, 0, 0, 1140.694702148438
13, 0, 0, 1138.15087890625
14, 0, 0, 1146.812255859375
15, 0, 0, 1154.340576171875
16, 0, 0, 1162.917602539062
17, 0, 0, 1159.843383789062
18, 0, 0, 1163.189331054688
19, 0, 0, 1177.80810546875
20, 0, 0, 1186.90380859375
21, 0, 0, 1168.280517578125
22, 0, 0, 1176.107299804688
23, 0, 0, 1185.014526367188
24, 0, 0, 1182.227905273438
25, 0, 0, 1190.693115234375
26, 0, 0, 1203.10400390625
27, 0, 0, 1203.118896484375
28, 0, 0, 1205.015258789062
29, 0, 0, 1218.35400390625
30, 0, 0, 1225.666137695312
31, 0, 0, 1231.266479492188
32, 0, 0, 1234.094482421875
33, 0, 0, 1234.839965820312
34, 0, 0, 1241.900146484375
35, 0, 0, 1249.45263671875
36, 0, 0, 1247.633544921875
37, 0, 0, 1252.346557617188
38, 0, 0, 1252.516479492188
39, 0, 0, 1262.56982421875
40, 0, 0, 1278.01123046875
41, 0, 0, 1276.00341796875
42, 0, 0, 1300.027099609375
43, 0, 0, 1292.79638671875
44, 0, 0, 1292.165283203125
45, 0, 0, 1294.165405273438
46, 0, 0, 1302.662353515625
47, 0, 0, 1309.868041992188
48, 0, 0, 1317.992553710938
49, 0, 0, 1327.170776367188
50, 0, 0, 1332.06884765625
51, 0, 0, 1344.605712890625
52, 0, 0, 1352.829711914062
53, 0, 0, 1360.400390625
54, 0, 0, 1373.863891601562
55, 0, 0, 1377.70849609375
56, 0, 0, 1392.15087890625
57, 0, 0, 1400.971313476562
58, 0, 0, 1412.28759765625
59, 0, 0, 1418.083251953125
60, 0, 0, 1430.925170898438
61, 0, 0, 1450.25537109375
62, 0, 0, 1461.9921875
63, 0, 0, 1473.567504882812
64, 0, 0, 1486.396728515625
65, 0, 0, 1498.120849609375
66, 0, 0, 1523.48779296875
67, 0, 0, 1535.403442382812
68, 0, 0, 1559.79150390625
69, 0, 0, 1575.773559570312
70, 0, 0, 1604.76953125
71, 0, 0, 1633.029663085938
72, 0, 0, 1659.67431640625
73, 0, 0, 1691.261352539062
74, 0, 0, 1719.567260742188
75, 0, 0, 1755.450317382812
76, 0, 0, 1801.304931640625
77, 0, 0, 1835.204956054688
78, 0, 0, 1878.5458984375
79, 0, 0, 1933.428100585938
80, 0, 0, 1991.991577148438
81, 0, 0, 2062.249755859375
82, 0, 0, 2131.4013671875
83, 0, 0, 2213.026123046875
84, 0, 0, 2316.498046875
85, 0, 0, 2433.2822265625
86, 0, 0, 2579.650390625
87, 0, 0, 2790.0615234375
88, 0, 0, 3092.54833984375
89, 0, 0, 3513.20166015625
90, 0, 0, 4095.8037109375
91, 0, 0, 4503.66455078125
92, 0, 0, 4477.3974609375
93, 0, 0, 3209.119140625
94, 0, 0, 1677.502197265625
95, 0, 0, 536.1553955078125
96, 0, 0, 99.68643188476562
97, 0, 0, 0.05924532562494278
98, 0, 0, 0.01882353983819485
99, 0, 0, 0
100, 0, 0, 0
101, 0, 0, 0.05974551662802696
102, 0, 0, 0
103, 0, 0, 0.02660621330142021
104, 0, 0, 0.02670704759657383
105, 0, 0, 0.04732389003038406
106, 0, 0, 0.1461181342601776
107, 0, 0, 0
108, 0, 0, 0.0305431205779314
109, 0, 0, 0
110, 0, 0, 0
111, 0, 0, 0
112, 0, 0, 0.2133644968271255
113, 0, 0, 0.003253039438277483
114, 0, 0, 0.07283783704042435
115, 0, 0, 0.03189501538872719
116, 0, 0, 0.01418269425630569
117, 0, 0, 0
118, 0, 0, 0.01569388061761856
119, 0, 0, 0
120, 0, 0, 0.004491680767387152
121, 0, 0, 0.03736663237214088
122, 0, 0, 0
123, 0, 0, 0
124, 0, 0, 0
125, 0, 0, 0
126, 0, 0, 0
127, 0, 0, 0.02165270410478115
128, 0, 0, 0
129, 0, 0, 0
130, 0, 0, 0
131, 0, 0, 0
132, 0, 0, 0.0248120129108429
133, 0, 0, 0
134, 0, 0, 0
135, 0, 0, 0.1951754093170166
136, 0, 0, 0
137, 0, 0, 0
138, 0, 0, 0
139, 0, 0, 0.08667249232530594
140, 0, 0, 0
141, 0, 0, 0.0594320222735405
142, 0, 0, 0
143, 0, 0, 0.00827556848526001
144, 0, 0, 0
145, 0, 0, 0
146, 0, 0, 0.03306596353650093
147, 0, 0, 0
148, 0, 0, 0
149, 0, 0, 0
150, 0, 0, 0
151, 0, 0, 0.03273933380842209
152, 0, 0, 0
153, 0, 0, 0.009198891930282116
154, 0, 0, 0
155, 0, 0, 0
156, 0, 0, 0
157, 0, 0, 0.03199193254113197
158, 0, 0, 0.009269851259887218
159, 0, 0, 0.02429633587598801
160, 0, 0, 0
161, 0, 0, 0
162, 0, 0, 0
163, 0, 0, 0
164, 0, 0, 0.01738997735083103
165, 0, 0, 0.02351968735456467
166, 0, 0, 0
167, 0, 0, 0
168, 0, 0, 0
169, 0, 0, 0
170, 0, 0, 0
171, 0, 0, 0.0977485403418541
172, 0, 0, 0
173, 0, 0, 0
174, 0, 0, 0
175, 0, 0, 0
176, 0, 0, 0
177, 0, 0, 0
178, 0, 0, 0.02901542000472546
179, 0, 0, 0
