# TOPAS Version: 3.3.p1
# Parameter File: Simple_Pattern.txt
# Results for scorer MLIC_Scorer
# Scored in component: MLIC
# X in 180 bins of 0.222222 cm
# Y in 1 bin  of 10 cm
# Z in 1 bin  of 10 cm
# EnergyDeposit ( MeV ) : Sum   
0, 0, 0, 53.07048034667969
1, 0, 0, 51.83533096313477
2, 0, 0, 52.31672286987305
3, 0, 0, 51.60530471801758
4, 0, 0, 53.33305358886719
5, 0, 0, 53.12309646606445
6, 0, 0, 52.29304122924805
7, 0, 0, 52.85488128662109
8, 0, 0, 53.57070922851562
9, 0, 0, 54.7130241394043
10, 0, 0, 55.38544845581055
11, 0, 0, 55.40337753295898
12, 0, 0, 55.73638153076172
13, 0, 0, 54.39237976074219
14, 0, 0, 54.80553817749023
15, 0, 0, 55.97311019897461
16, 0, 0, 55.63409042358398
17, 0, 0, 55.71986389160156
18, 0, 0, 56.67953109741211
19, 0, 0, 56.59128189086914
20, 0, 0, 56.89092636108398
21, 0, 0, 57.74277114868164
22, 0, 0, 59.53071594238281
23, 0, 0, 58.2353630065918
24, 0, 0, 57.59378814697266
25, 0, 0, 60.85316848754883
26, 0, 0, 60.04729080200195
27, 0, 0, 62.07325744628906
28, 0, 0, 60.16289138793945
29, 0, 0, 61.81889343261719
30, 0, 0, 60.094970703125
31, 0, 0, 60.37575531005859
32, 0, 0, 62.07463455200195
33, 0, 0, 60.9039421081543
34, 0, 0, 61.75920104980469
35, 0, 0, 64.91891479492188
36, 0, 0, 64.55068969726562
37, 0, 0, 65.26609802246094
38, 0, 0, 64.39179229736328
39, 0, 0, 65.99496459960938
40, 0, 0, 65.08037567138672
41, 0, 0, 65.53704833984375
42, 0, 0, 66.57469177246094
43, 0, 0, 66.49732971191406
44, 0, 0, 66.92833709716797
45, 0, 0, 67.54727172851562
46, 0, 0, 67.63351440429688
47, 0, 0, 70.06517028808594
48, 0, 0, 70.52378082275391
49, 0, 0, 70.18520355224609
50, 0, 0, 70.99118804931641
51, 0, 0, 71.87481689453125
52, 0, 0, 73.4129638671875
53, 0, 0, 73.95775604248047
54, 0, 0, 73.5755615234375
55, 0, 0, 74.60537719726562
56, 0, 0, 75.71034240722656
57, 0, 0, 76.60657501220703
58, 0, 0, 78.61101531982422
59, 0, 0, 80.59223175048828
60, 0, 0, 80.53451538085938
61, 0, 0, 79.73709106445312
62, 0, 0, 80.09727478027344
63, 0, 0, 83.12483978271484
64, 0, 0, 84.23985290527344
65, 0, 0, 86.13967895507812
66, 0, 0, 85.25373077392578
67, 0, 0, 88.0087890625
68, 0, 0, 90.16832733154297
69, 0, 0, 92.67485809326172
70, 0, 0, 95.03061676025391
71, 0, 0, 93.96530914306641
72, 0, 0, 96.17256927490234
73, 0, 0, 99.98211669921875
74, 0, 0, 101.2404403686523
75, 0, 0, 104.9492568969727
76, 0, 0, 107.0912322998047
77, 0, 0, 110.2528457641602
78, 0, 0, 113.0044174194336
79, 0, 0, 117.1896896362305
80, 0, 0, 121.4107666015625
81, 0, 0, 125.7291717529297
82, 0, 0, 131.1674499511719
83, 0, 0, 137.2245483398438
84, 0, 0, 143.0280151367188
85, 0, 0, 154.6971588134766
86, 0, 0, 165.6147308349609
87, 0, 0, 178.2455291748047
88, 0, 0, 201.3624572753906
89, 0, 0, 235.5833892822266
90, 0, 0, 267.40478515625
91, 0, 0, 273.3995056152344
92, 0, 0, 322.3197631835938
93, 0, 0, 141.4156036376953
94, 0, 0, 108.4699096679688
95, 0, 0, 32.17674255371094
96, 0, 0, 21.77637672424316
97, 0, 0, 0
98, 0, 0, 0
99, 0, 0, 0
100, 0, 0, 0
101, 0, 0, 0
102, 0, 0, 0
103, 0, 0, 0
104, 0, 0, 0
105, 0, 0, 0
106, 0, 0, 0
107, 0, 0, 0
108, 0, 0, 0
109, 0, 0, 0
110, 0, 0, 0
111, 0, 0, 0
112, 0, 0, 0
113, 0, 0, 0
114, 0, 0, 0
115, 0, 0, 0
116, 0, 0, 0
117, 0, 0, 0
118, 0, 0, 0
119, 0, 0, 0
120, 0, 0, 0
121, 0, 0, 0
122, 0, 0, 0
123, 0, 0, 0
124, 0, 0, 0
125, 0, 0, 0
126, 0, 0, 0
127, 0, 0, 0
128, 0, 0, 0
129, 0, 0, 0
130, 0, 0, 0
131, 0, 0, 0
132, 0, 0, 0
133, 0, 0, 0
134, 0, 0, 0
135, 0, 0, 0
136, 0, 0, 0
137, 0, 0, 0
138, 0, 0, 0
139, 0, 0, 0
140, 0, 0, 0
141, 0, 0, 0
142, 0, 0, 0
143, 0, 0, 0
144, 0, 0, 0
145, 0, 0, 0
146, 0, 0, 0
147, 0, 0, 0
148, 0, 0, 0
149, 0, 0, 0
150, 0, 0, 0
151, 0, 0, 0
152, 0, 0, 0
153, 0, 0, 0
154, 0, 0, 0
155, 0, 0, 0
156, 0, 0, 0
157, 0, 0, 0
158, 0, 0, 0
159, 0, 0, 0
160, 0, 0, 0
161, 0, 0, 0
162, 0, 0, 0
163, 0, 0, 0
164, 0, 0, 0
165, 0, 0, 0
166, 0, 0, 0
167, 0, 0, 0
168, 0, 0, 0
169, 0, 0, 0
170, 0, 0, 0
171, 0, 0, 0
172, 0, 0, 0
173, 0, 0, 0
174, 0, 0, 0
175, 0, 0, 0
176, 0, 0, 0
177, 0, 0, 0
178, 0, 0, 0
179, 0, 0, 0
