# TOPAS Version: 3.3.p1
# Parameter File: Simple_Pattern.txt
# Results for scorer MLIC_Scorer
# Scored in component: MLIC
# X in 180 bins of 0.222222 cm
# Y in 1 bin  of 10 cm
# Z in 1 bin  of 10 cm
# EnergyDeposit ( MeV ) : Sum   
0, 0, 0, 30.81619262695312
1, 0, 0, 29.46159362792969
2, 0, 0, 30.59610557556152
3, 0, 0, 32.39266204833984
4, 0, 0, 30.78607749938965
5, 0, 0, 30.61774444580078
6, 0, 0, 31.21294212341309
7, 0, 0, 31.31308364868164
8, 0, 0, 32.03840255737305
9, 0, 0, 30.69601821899414
10, 0, 0, 32.95553588867188
11, 0, 0, 31.49459266662598
12, 0, 0, 32.4434928894043
13, 0, 0, 32.2984733581543
14, 0, 0, 31.61700057983398
15, 0, 0, 31.65785217285156
16, 0, 0, 32.09923934936523
17, 0, 0, 32.77138519287109
18, 0, 0, 33.73271942138672
19, 0, 0, 32.30005645751953
20, 0, 0, 34.00185394287109
21, 0, 0, 35.39157867431641
22, 0, 0, 34.20931243896484
23, 0, 0, 33.74509429931641
24, 0, 0, 35.0870361328125
25, 0, 0, 34.57812118530273
26, 0, 0, 33.9718132019043
27, 0, 0, 35.34253311157227
28, 0, 0, 34.93366241455078
29, 0, 0, 35.36624145507812
30, 0, 0, 36.4415168762207
31, 0, 0, 35.62287139892578
32, 0, 0, 34.81808471679688
33, 0, 0, 34.03089141845703
34, 0, 0, 34.61884307861328
35, 0, 0, 34.92890167236328
36, 0, 0, 36.79385375976562
37, 0, 0, 35.70829010009766
38, 0, 0, 37.5334587097168
39, 0, 0, 36.39195251464844
40, 0, 0, 37.29024505615234
41, 0, 0, 37.34693908691406
42, 0, 0, 37.4631462097168
43, 0, 0, 37.59511566162109
44, 0, 0, 35.92505645751953
45, 0, 0, 36.50443649291992
46, 0, 0, 37.49421310424805
47, 0, 0, 37.11357498168945
48, 0, 0, 39.92144775390625
49, 0, 0, 38.36080932617188
50, 0, 0, 38.71181106567383
51, 0, 0, 38.97446060180664
52, 0, 0, 38.68354415893555
53, 0, 0, 40.86357879638672
54, 0, 0, 40.59391784667969
55, 0, 0, 39.86389923095703
56, 0, 0, 41.14925765991211
57, 0, 0, 41.44219970703125
58, 0, 0, 41.90901565551758
59, 0, 0, 43.13708877563477
60, 0, 0, 43.29235458374023
61, 0, 0, 43.18807983398438
62, 0, 0, 43.10728454589844
63, 0, 0, 43.15796279907227
64, 0, 0, 42.78273010253906
65, 0, 0, 43.23422622680664
66, 0, 0, 44.02975845336914
67, 0, 0, 44.69480514526367
68, 0, 0, 44.73414611816406
69, 0, 0, 45.29966354370117
70, 0, 0, 47.97394943237305
71, 0, 0, 46.3833122253418
72, 0, 0, 45.87705993652344
73, 0, 0, 47.81773376464844
74, 0, 0, 49.58292770385742
75, 0, 0, 51.35085296630859
76, 0, 0, 51.10747146606445
77, 0, 0, 52.25974273681641
78, 0, 0, 55.76271057128906
79, 0, 0, 56.75065994262695
80, 0, 0, 58.55234146118164
81, 0, 0, 60.45034790039062
82, 0, 0, 61.73100662231445
83, 0, 0, 65.37795257568359
84, 0, 0, 69.666015625
85, 0, 0, 71.37338256835938
86, 0, 0, 72.25352478027344
87, 0, 0, 79.33428192138672
88, 0, 0, 89.33758544921875
89, 0, 0, 102.4251708984375
90, 0, 0, 114.0911712646484
91, 0, 0, 122.9159469604492
92, 0, 0, 133.9296264648438
93, 0, 0, 85.98264312744141
94, 0, 0, 27.41230583190918
95, 0, 0, 21.4008903503418
96, 0, 0, 0
97, 0, 0, 0
98, 0, 0, 0
99, 0, 0, 0
100, 0, 0, 0
101, 0, 0, 0
102, 0, 0, 0
103, 0, 0, 0
104, 0, 0, 0
105, 0, 0, 0
106, 0, 0, 0
107, 0, 0, 0
108, 0, 0, 0
109, 0, 0, 0
110, 0, 0, 0
111, 0, 0, 0
112, 0, 0, 0
113, 0, 0, 0
114, 0, 0, 0
115, 0, 0, 0
116, 0, 0, 0
117, 0, 0, 0
118, 0, 0, 0
119, 0, 0, 0
120, 0, 0, 0
121, 0, 0, 0
122, 0, 0, 0
123, 0, 0, 0
124, 0, 0, 0
125, 0, 0, 0
126, 0, 0, 0
127, 0, 0, 0
128, 0, 0, 0
129, 0, 0, 0
130, 0, 0, 0
131, 0, 0, 0
132, 0, 0, 0
133, 0, 0, 0
134, 0, 0, 0
135, 0, 0, 0
136, 0, 0, 0
137, 0, 0, 0
138, 0, 0, 0
139, 0, 0, 0
140, 0, 0, 0
141, 0, 0, 0
142, 0, 0, 0
143, 0, 0, 0
144, 0, 0, 0
145, 0, 0, 0
146, 0, 0, 0
147, 0, 0, 0
148, 0, 0, 0
149, 0, 0, 0
150, 0, 0, 0
151, 0, 0, 0
152, 0, 0, 0
153, 0, 0, 0
154, 0, 0, 0
155, 0, 0, 0
156, 0, 0, 0
157, 0, 0, 0
158, 0, 0, 0
159, 0, 0, 0
160, 0, 0, 0
161, 0, 0, 0
162, 0, 0, 0
163, 0, 0, 0
164, 0, 0, 0
165, 0, 0, 0
166, 0, 0, 0
167, 0, 0, 0
168, 0, 0, 0
169, 0, 0, 0
170, 0, 0, 0
171, 0, 0, 0
172, 0, 0, 0
173, 0, 0, 0
174, 0, 0, 0
175, 0, 0, 0
176, 0, 0, 0
177, 0, 0, 0
178, 0, 0, 0
179, 0, 0, 0
