# TOPAS Version: 3.3.p1
# Parameter File: Simple_Pattern.txt
# Results for scorer MLIC_Scorer
# Scored in component: MLIC
# X in 165 bins of 0.2 cm
# Y in 1 bin  of 10 cm
# Z in 1 bin  of 10 cm
# EnergyDeposit ( MeV ) : Sum   
0, 0, 0, 983.0108642578125
1, 0, 0, 993.1738891601562
2, 0, 0, 994.301025390625
3, 0, 0, 989.3287963867188
4, 0, 0, 1001.820129394531
5, 0, 0, 1001.190979003906
6, 0, 0, 1013.529724121094
7, 0, 0, 1008.541320800781
8, 0, 0, 1014.765075683594
9, 0, 0, 1023.638000488281
10, 0, 0, 1026.171752929688
11, 0, 0, 1035.929565429688
12, 0, 0, 1042.650634765625
13, 0, 0, 1048.497192382812
14, 0, 0, 1051.18505859375
15, 0, 0, 1047.968383789062
16, 0, 0, 1052.107177734375
17, 0, 0, 1061.320434570312
18, 0, 0, 1059.773315429688
19, 0, 0, 1078.382568359375
20, 0, 0, 1077.223754882812
21, 0, 0, 1076.725341796875
22, 0, 0, 1083.283203125
23, 0, 0, 1096.442138671875
24, 0, 0, 1093.780151367188
25, 0, 0, 1103.77294921875
26, 0, 0, 1104.472412109375
27, 0, 0, 1115.537475585938
28, 0, 0, 1126.2158203125
29, 0, 0, 1126.800903320312
30, 0, 0, 1136.633544921875
31, 0, 0, 1139.578735351562
32, 0, 0, 1147.719848632812
33, 0, 0, 1147.57861328125
34, 0, 0, 1161.87890625
35, 0, 0, 1162.955322265625
36, 0, 0, 1180.835327148438
37, 0, 0, 1183.435302734375
38, 0, 0, 1191.216552734375
39, 0, 0, 1206.0927734375
40, 0, 0, 1205.301879882812
41, 0, 0, 1217.550659179688
42, 0, 0, 1221.66650390625
43, 0, 0, 1237.18505859375
44, 0, 0, 1236.700073242188
45, 0, 0, 1258.728515625
46, 0, 0, 1262.062622070312
47, 0, 0, 1269.500610351562
48, 0, 0, 1276.871826171875
49, 0, 0, 1288.553100585938
50, 0, 0, 1295.985107421875
51, 0, 0, 1313.55712890625
52, 0, 0, 1317.75634765625
53, 0, 0, 1333.887329101562
54, 0, 0, 1343.333374023438
55, 0, 0, 1358.914794921875
56, 0, 0, 1368.633178710938
57, 0, 0, 1379.777221679688
58, 0, 0, 1397.542358398438
59, 0, 0, 1410.068603515625
60, 0, 0, 1427.245971679688
61, 0, 0, 1446.321655273438
62, 0, 0, 1458.9560546875
63, 0, 0, 1464.240844726562
64, 0, 0, 1480.628051757812
65, 0, 0, 1498.428833007812
66, 0, 0, 1517.45654296875
67, 0, 0, 1540.12939453125
68, 0, 0, 1557.26611328125
69, 0, 0, 1589.114135742188
70, 0, 0, 1601.814575195312
71, 0, 0, 1632.845458984375
72, 0, 0, 1652.195190429688
73, 0, 0, 1673.144287109375
74, 0, 0, 1707.640380859375
75, 0, 0, 1726.21875
76, 0, 0, 1761.703491210938
77, 0, 0, 1800.006225585938
78, 0, 0, 1824.919311523438
79, 0, 0, 1864.50927734375
80, 0, 0, 1904.037963867188
81, 0, 0, 1946.105834960938
82, 0, 0, 1993.250610351562
83, 0, 0, 2036.06884765625
84, 0, 0, 2105.187255859375
85, 0, 0, 2150.19140625
86, 0, 0, 2215.653076171875
87, 0, 0, 2288.245849609375
88, 0, 0, 2372.260986328125
89, 0, 0, 2468.2451171875
90, 0, 0, 2572.348388671875
91, 0, 0, 2680.91455078125
92, 0, 0, 2831.4599609375
93, 0, 0, 3008.78173828125
94, 0, 0, 3228.087646484375
95, 0, 0, 3555.91796875
96, 0, 0, 3964.05126953125
97, 0, 0, 4484.755859375
98, 0, 0, 5023.68994140625
99, 0, 0, 5397.5126953125
100, 0, 0, 4892.55078125
101, 0, 0, 3743.962158203125
102, 0, 0, 2307.325927734375
103, 0, 0, 1165.569580078125
104, 0, 0, 394.9269409179688
105, 0, 0, 135.6801147460938
106, 0, 0, 58.78597640991211
107, 0, 0, 69.22451019287109
108, 0, 0, 57.41222381591797
109, 0, 0, 49.38257217407227
110, 0, 0, 45.35550308227539
111, 0, 0, 47.01913452148438
112, 0, 0, 33.40145874023438
113, 0, 0, 20.37820625305176
114, 0, 0, 25.29871368408203
115, 0, 0, 10.57705116271973
116, 0, 0, 0.003169086994603276
117, 0, 0, 0
118, 0, 0, 0
119, 0, 0, 0.004255028441548347
120, 0, 0, 0.001152024720795453
121, 0, 0, 0.007356293965131044
122, 0, 0, 0
123, 0, 0, 0
124, 0, 0, 0
125, 0, 0, 0
126, 0, 0, 0
127, 0, 0, 0
128, 0, 0, 0
129, 0, 0, 0
130, 0, 0, 0
131, 0, 0, 0
132, 0, 0, 0
133, 0, 0, 0
134, 0, 0, 0
135, 0, 0, 0
136, 0, 0, 0.005458413623273373
137, 0, 0, 0
138, 0, 0, 0
139, 0, 0, 0
140, 0, 0, 0
141, 0, 0, 0
142, 0, 0, 0
143, 0, 0, 0
144, 0, 0, 0
145, 0, 0, 0
146, 0, 0, 0
147, 0, 0, 0
148, 0, 0, 0
149, 0, 0, 0
150, 0, 0, 0
151, 0, 0, 0
152, 0, 0, 0
153, 0, 0, 0
154, 0, 0, 0
155, 0, 0, 0
156, 0, 0, 0
157, 0, 0, 0
158, 0, 0, 0
159, 0, 0, 0
160, 0, 0, 0
161, 0, 0, 0
162, 0, 0, 0
163, 0, 0, 0
164, 0, 0, 0
