# TOPAS Version: 3.3.p1
# Parameter File: Simple_Pattern.txt
# Results for scorer MLIC_Scorer
# Scored in component: MLIC
# X in 180 bins of 0.222222 cm
# Y in 1 bin  of 10 cm
# Z in 1 bin  of 10 cm
# EnergyDeposit ( MeV ) : Sum   
0, 0, 0, 41.69363403320312
1, 0, 0, 40.96713256835938
2, 0, 0, 42.90448379516602
3, 0, 0, 41.74023818969727
4, 0, 0, 41.95082855224609
5, 0, 0, 41.70169830322266
6, 0, 0, 43.58203887939453
7, 0, 0, 43.19836807250977
8, 0, 0, 42.13248443603516
9, 0, 0, 42.34056854248047
10, 0, 0, 42.63283920288086
11, 0, 0, 42.80305862426758
12, 0, 0, 43.57291412353516
13, 0, 0, 43.5152702331543
14, 0, 0, 44.14715957641602
15, 0, 0, 43.42985153198242
16, 0, 0, 46.3286018371582
17, 0, 0, 45.20192337036133
18, 0, 0, 45.28848266601562
19, 0, 0, 45.60654449462891
20, 0, 0, 48.5804557800293
21, 0, 0, 46.5472526550293
22, 0, 0, 47.93722152709961
23, 0, 0, 47.03009414672852
24, 0, 0, 49.36277770996094
25, 0, 0, 47.37250518798828
26, 0, 0, 49.27825546264648
27, 0, 0, 48.58252716064453
28, 0, 0, 49.56953048706055
29, 0, 0, 50.33388519287109
30, 0, 0, 51.8704833984375
31, 0, 0, 50.04509353637695
32, 0, 0, 50.45537948608398
33, 0, 0, 51.9249267578125
34, 0, 0, 50.07461547851562
35, 0, 0, 51.7410774230957
36, 0, 0, 51.71004104614258
37, 0, 0, 52.34708786010742
38, 0, 0, 53.04885482788086
39, 0, 0, 53.08125305175781
40, 0, 0, 56.31562805175781
41, 0, 0, 53.76314163208008
42, 0, 0, 58.37208938598633
43, 0, 0, 56.06549453735352
44, 0, 0, 57.07896423339844
45, 0, 0, 59.14064407348633
46, 0, 0, 58.87890625
47, 0, 0, 60.76797485351562
48, 0, 0, 59.44551849365234
49, 0, 0, 61.44254684448242
50, 0, 0, 62.29302978515625
51, 0, 0, 62.16026306152344
52, 0, 0, 62.64665222167969
53, 0, 0, 63.97507858276367
54, 0, 0, 66.61513519287109
55, 0, 0, 67.52133178710938
56, 0, 0, 69.84398651123047
57, 0, 0, 70.65785980224609
58, 0, 0, 70.26046752929688
59, 0, 0, 70.51148223876953
60, 0, 0, 73.25950622558594
61, 0, 0, 75.26132965087891
62, 0, 0, 77.51537322998047
63, 0, 0, 80.38986968994141
64, 0, 0, 83.50881958007812
65, 0, 0, 84.24864196777344
66, 0, 0, 85.64583587646484
67, 0, 0, 90.3984375
68, 0, 0, 94.02516174316406
69, 0, 0, 95.30453491210938
70, 0, 0, 100.9449157714844
71, 0, 0, 106.5520324707031
72, 0, 0, 114.3600769042969
73, 0, 0, 120.23291015625
74, 0, 0, 132.1612091064453
75, 0, 0, 140.9631652832031
76, 0, 0, 151.2565460205078
77, 0, 0, 177.9158477783203
78, 0, 0, 231.1594390869141
79, 0, 0, 208.1009216308594
80, 0, 0, 225.4221649169922
81, 0, 0, 96.26535797119141
82, 0, 0, 19.07000732421875
83, 0, 0, 0.5842181444168091
84, 0, 0, 0
85, 0, 0, 0
86, 0, 0, 0
87, 0, 0, 0
88, 0, 0, 0
89, 0, 0, 0
90, 0, 0, 0
91, 0, 0, 0
92, 0, 0, 0
93, 0, 0, 0
94, 0, 0, 0
95, 0, 0, 0
96, 0, 0, 0
97, 0, 0, 0
98, 0, 0, 0
99, 0, 0, 0
100, 0, 0, 0
101, 0, 0, 0
102, 0, 0, 0
103, 0, 0, 0
104, 0, 0, 0
105, 0, 0, 0
106, 0, 0, 0
107, 0, 0, 0
108, 0, 0, 0
109, 0, 0, 0
110, 0, 0, 0
111, 0, 0, 0
112, 0, 0, 0
113, 0, 0, 0
114, 0, 0, 0
115, 0, 0, 0
116, 0, 0, 0
117, 0, 0, 0
118, 0, 0, 0
119, 0, 0, 0
120, 0, 0, 0
121, 0, 0, 0
122, 0, 0, 0
123, 0, 0, 0
124, 0, 0, 0
125, 0, 0, 0
126, 0, 0, 0
127, 0, 0, 0
128, 0, 0, 0
129, 0, 0, 0
130, 0, 0, 0
131, 0, 0, 0
132, 0, 0, 0
133, 0, 0, 0
134, 0, 0, 0
135, 0, 0, 0
136, 0, 0, 0
137, 0, 0, 0
138, 0, 0, 0
139, 0, 0, 0
140, 0, 0, 0
141, 0, 0, 0
142, 0, 0, 0
143, 0, 0, 0
144, 0, 0, 0
145, 0, 0, 0
146, 0, 0, 0
147, 0, 0, 0
148, 0, 0, 0
149, 0, 0, 0
150, 0, 0, 0
151, 0, 0, 0
152, 0, 0, 0
153, 0, 0, 0
154, 0, 0, 0
155, 0, 0, 0
156, 0, 0, 0
157, 0, 0, 0
158, 0, 0, 0
159, 0, 0, 0
160, 0, 0, 0
161, 0, 0, 0
162, 0, 0, 0
163, 0, 0, 0
164, 0, 0, 0
165, 0, 0, 0
166, 0, 0, 0
167, 0, 0, 0
168, 0, 0, 0
169, 0, 0, 0
170, 0, 0, 0
171, 0, 0, 0
172, 0, 0, 0
173, 0, 0, 0
174, 0, 0, 0
175, 0, 0, 0
176, 0, 0, 0
177, 0, 0, 0
178, 0, 0, 0
179, 0, 0, 0
