# TOPAS Version: 3.3.p1
# Parameter File: Simple_Pattern.txt
# Results for scorer MLIC_Scorer
# Scored in component: MLIC
# X in 180 bins of 0.222222 cm
# Y in 1 bin  of 10 cm
# Z in 1 bin  of 10 cm
# EnergyDeposit ( MeV ) : Sum   
0, 0, 0, 73.95211029052734
1, 0, 0, 71.21052551269531
2, 0, 0, 71.29440307617188
3, 0, 0, 73.79311370849609
4, 0, 0, 73.07816314697266
5, 0, 0, 72.82591247558594
6, 0, 0, 74.78294372558594
7, 0, 0, 75.37621307373047
8, 0, 0, 74.43363189697266
9, 0, 0, 74.63629150390625
10, 0, 0, 78.64423370361328
11, 0, 0, 76.17923736572266
12, 0, 0, 75.60519409179688
13, 0, 0, 78.13407135009766
14, 0, 0, 78.33994293212891
15, 0, 0, 78.91104125976562
16, 0, 0, 78.59008026123047
17, 0, 0, 78.73621368408203
18, 0, 0, 79.35887145996094
19, 0, 0, 79.94328308105469
20, 0, 0, 80.58662414550781
21, 0, 0, 82.23869323730469
22, 0, 0, 80.03076934814453
23, 0, 0, 81.83360290527344
24, 0, 0, 82.41107177734375
25, 0, 0, 86.06079864501953
26, 0, 0, 85.3583984375
27, 0, 0, 84.28109741210938
28, 0, 0, 86.557373046875
29, 0, 0, 85.35057067871094
30, 0, 0, 87.797119140625
31, 0, 0, 87.99526214599609
32, 0, 0, 88.54688262939453
33, 0, 0, 88.73775482177734
34, 0, 0, 90.8985595703125
35, 0, 0, 91.46309661865234
36, 0, 0, 93.03033447265625
37, 0, 0, 92.34562683105469
38, 0, 0, 93.27368927001953
39, 0, 0, 94.95152282714844
40, 0, 0, 94.54975128173828
41, 0, 0, 97.74467468261719
42, 0, 0, 98.56877899169922
43, 0, 0, 98.18367004394531
44, 0, 0, 100.4172286987305
45, 0, 0, 101.0756683349609
46, 0, 0, 103.7983627319336
47, 0, 0, 101.5253372192383
48, 0, 0, 104.3765335083008
49, 0, 0, 107.6677932739258
50, 0, 0, 109.5482635498047
51, 0, 0, 110.5172729492188
52, 0, 0, 110.7981948852539
53, 0, 0, 114.015007019043
54, 0, 0, 113.8363647460938
55, 0, 0, 115.577278137207
56, 0, 0, 120.6897583007812
57, 0, 0, 122.1793746948242
58, 0, 0, 124.3529510498047
59, 0, 0, 125.3256225585938
60, 0, 0, 129.9558258056641
61, 0, 0, 134.5046234130859
62, 0, 0, 135.3467254638672
63, 0, 0, 139.0826721191406
64, 0, 0, 142.2602996826172
65, 0, 0, 148.1270446777344
66, 0, 0, 154.2582550048828
67, 0, 0, 154.4638519287109
68, 0, 0, 161.7243499755859
69, 0, 0, 168.4835357666016
70, 0, 0, 174.8860931396484
71, 0, 0, 184.0057525634766
72, 0, 0, 195.5147857666016
73, 0, 0, 209.3111267089844
74, 0, 0, 225.3317565917969
75, 0, 0, 247.3070526123047
76, 0, 0, 285.850341796875
77, 0, 0, 326.0512084960938
78, 0, 0, 381.7116394042969
79, 0, 0, 401.0064697265625
80, 0, 0, 304.4595336914062
81, 0, 0, 181.9402770996094
82, 0, 0, 54.22772979736328
83, 0, 0, 21.00815010070801
84, 0, 0, 12.66571426391602
85, 0, 0, 0
86, 0, 0, 0
87, 0, 0, 0
88, 0, 0, 0
89, 0, 0, 0
90, 0, 0, 0
91, 0, 0, 0
92, 0, 0, 0
93, 0, 0, 0
94, 0, 0, 0
95, 0, 0, 0
96, 0, 0, 0
97, 0, 0, 0
98, 0, 0, 0
99, 0, 0, 0
100, 0, 0, 0
101, 0, 0, 0
102, 0, 0, 0
103, 0, 0, 0
104, 0, 0, 0
105, 0, 0, 0
106, 0, 0, 0
107, 0, 0, 0
108, 0, 0, 0
109, 0, 0, 0
110, 0, 0, 0
111, 0, 0, 0
112, 0, 0, 0
113, 0, 0, 0
114, 0, 0, 0
115, 0, 0, 0
116, 0, 0, 0
117, 0, 0, 0
118, 0, 0, 0
119, 0, 0, 0
120, 0, 0, 0
121, 0, 0, 0
122, 0, 0, 0
123, 0, 0, 0
124, 0, 0, 0
125, 0, 0, 0
126, 0, 0, 0
127, 0, 0, 0
128, 0, 0, 0
129, 0, 0, 0
130, 0, 0, 0
131, 0, 0, 0
132, 0, 0, 0
133, 0, 0, 0
134, 0, 0, 0
135, 0, 0, 0
136, 0, 0, 0
137, 0, 0, 0
138, 0, 0, 0
139, 0, 0, 0
140, 0, 0, 0
141, 0, 0, 0
142, 0, 0, 0
143, 0, 0, 0
144, 0, 0, 0
145, 0, 0, 0
146, 0, 0, 0
147, 0, 0, 0
148, 0, 0, 0
149, 0, 0, 0
150, 0, 0, 0
151, 0, 0, 0
152, 0, 0, 0
153, 0, 0, 0
154, 0, 0, 0
155, 0, 0, 0
156, 0, 0, 0
157, 0, 0, 0
158, 0, 0, 0
159, 0, 0, 0
160, 0, 0, 0
161, 0, 0, 0
162, 0, 0, 0
163, 0, 0, 0
164, 0, 0, 0
165, 0, 0, 0
166, 0, 0, 0
167, 0, 0, 0
168, 0, 0, 0
169, 0, 0, 0
170, 0, 0, 0
171, 0, 0, 0
172, 0, 0, 0
173, 0, 0, 0
174, 0, 0, 0
175, 0, 0, 0
176, 0, 0, 0
177, 0, 0, 0
178, 0, 0, 0
179, 0, 0, 0
