# TOPAS Version: 3.3.p1
# Parameter File: Simple_Pattern.txt
# Results for scorer MLIC_Scorer
# Scored in component: MLIC
# X in 180 bins of 0.222222 cm
# Y in 1 bin  of 10 cm
# Z in 1 bin  of 10 cm
# EnergyDeposit ( MeV ) : Sum   
0, 0, 0, 25.29471778869629
1, 0, 0, 26.40471076965332
2, 0, 0, 26.26820182800293
3, 0, 0, 26.71197509765625
4, 0, 0, 27.06236267089844
5, 0, 0, 26.21507263183594
6, 0, 0, 26.05714225769043
7, 0, 0, 26.23287773132324
8, 0, 0, 26.43311309814453
9, 0, 0, 26.1291332244873
10, 0, 0, 27.14380836486816
11, 0, 0, 27.25366973876953
12, 0, 0, 27.05583190917969
13, 0, 0, 27.53887557983398
14, 0, 0, 26.56579208374023
15, 0, 0, 25.8333683013916
16, 0, 0, 25.91050910949707
17, 0, 0, 27.11336517333984
18, 0, 0, 27.57139778137207
19, 0, 0, 27.35058403015137
20, 0, 0, 28.00691604614258
21, 0, 0, 25.61912155151367
22, 0, 0, 27.34954071044922
23, 0, 0, 27.14146614074707
24, 0, 0, 27.58091926574707
25, 0, 0, 27.41952514648438
26, 0, 0, 26.14077377319336
27, 0, 0, 28.46074676513672
28, 0, 0, 27.6783618927002
29, 0, 0, 26.90753746032715
30, 0, 0, 25.77486610412598
31, 0, 0, 24.76900482177734
32, 0, 0, 25.83824920654297
33, 0, 0, 26.02413177490234
34, 0, 0, 26.4599437713623
35, 0, 0, 26.63332748413086
36, 0, 0, 25.23302459716797
37, 0, 0, 25.32771110534668
38, 0, 0, 24.56646537780762
39, 0, 0, 25.5863208770752
40, 0, 0, 24.4637393951416
41, 0, 0, 25.45287895202637
42, 0, 0, 26.6789722442627
43, 0, 0, 26.87938117980957
44, 0, 0, 26.50718688964844
45, 0, 0, 27.24918746948242
46, 0, 0, 27.19136047363281
47, 0, 0, 27.24886512756348
48, 0, 0, 27.67470550537109
49, 0, 0, 28.00596809387207
50, 0, 0, 27.21583938598633
51, 0, 0, 28.57716178894043
52, 0, 0, 28.44381332397461
53, 0, 0, 27.40546417236328
54, 0, 0, 27.14180183410645
55, 0, 0, 29.65636825561523
56, 0, 0, 28.27297973632812
57, 0, 0, 28.06002235412598
58, 0, 0, 29.46702766418457
59, 0, 0, 29.2934398651123
60, 0, 0, 30.0582160949707
61, 0, 0, 29.95585060119629
62, 0, 0, 29.83583831787109
63, 0, 0, 32.13051605224609
64, 0, 0, 31.73360443115234
65, 0, 0, 31.04783821105957
66, 0, 0, 32.98804092407227
67, 0, 0, 32.82563400268555
68, 0, 0, 33.26922607421875
69, 0, 0, 33.5147819519043
70, 0, 0, 32.61877822875977
71, 0, 0, 32.70838928222656
72, 0, 0, 34.62017822265625
73, 0, 0, 33.60036468505859
74, 0, 0, 35.94451904296875
75, 0, 0, 35.84627914428711
76, 0, 0, 36.0609130859375
77, 0, 0, 35.25511932373047
78, 0, 0, 37.56799697875977
79, 0, 0, 38.55968856811523
80, 0, 0, 40.43558502197266
81, 0, 0, 40.3979606628418
82, 0, 0, 41.15960311889648
83, 0, 0, 41.41962814331055
84, 0, 0, 42.38726425170898
85, 0, 0, 46.25477600097656
86, 0, 0, 48.78888320922852
87, 0, 0, 51.74026107788086
88, 0, 0, 57.17125701904297
89, 0, 0, 64.39519500732422
90, 0, 0, 76.20594787597656
91, 0, 0, 90.40560150146484
92, 0, 0, 91.05213165283203
93, 0, 0, 88.46818542480469
94, 0, 0, 34.13561248779297
95, 0, 0, 22.57172012329102
96, 0, 0, 19.27484321594238
97, 0, 0, 0
98, 0, 0, 0
99, 0, 0, 0
100, 0, 0, 0
101, 0, 0, 0
102, 0, 0, 0
103, 0, 0, 0
104, 0, 0, 0
105, 0, 0, 0
106, 0, 0, 0
107, 0, 0, 0
108, 0, 0, 0
109, 0, 0, 0
110, 0, 0, 0
111, 0, 0, 0
112, 0, 0, 0
113, 0, 0, 0
114, 0, 0, 0
115, 0, 0, 0
116, 0, 0, 0
117, 0, 0, 0
118, 0, 0, 0.01862626150250435
119, 0, 0, 0
120, 0, 0, 0
121, 0, 0, 0
122, 0, 0, 0
123, 0, 0, 0
124, 0, 0, 0
125, 0, 0, 0
126, 0, 0, 0
127, 0, 0, 0
128, 0, 0, 0
129, 0, 0, 0
130, 0, 0, 0
131, 0, 0, 0
132, 0, 0, 0
133, 0, 0, 0
134, 0, 0, 0
135, 0, 0, 0
136, 0, 0, 0
137, 0, 0, 0
138, 0, 0, 0
139, 0, 0, 0
140, 0, 0, 0
141, 0, 0, 0
142, 0, 0, 0
143, 0, 0, 0
144, 0, 0, 0
145, 0, 0, 0
146, 0, 0, 0
147, 0, 0, 0
148, 0, 0, 0
149, 0, 0, 0
150, 0, 0, 0
151, 0, 0, 0
152, 0, 0, 0
153, 0, 0, 0
154, 0, 0, 0
155, 0, 0, 0
156, 0, 0, 0
157, 0, 0, 0
158, 0, 0, 0
159, 0, 0, 0
160, 0, 0, 0
161, 0, 0, 0
162, 0, 0, 0
163, 0, 0, 0
164, 0, 0, 0
165, 0, 0, 0
166, 0, 0, 0
167, 0, 0, 0
168, 0, 0, 0
169, 0, 0, 0
170, 0, 0, 0
171, 0, 0, 0
172, 0, 0, 0
173, 0, 0, 0
174, 0, 0, 0
175, 0, 0, 0
176, 0, 0, 0
177, 0, 0, 0
178, 0, 0, 0
179, 0, 0, 0
