# TOPAS Version: 3.3.p1
# Parameter File: Simple_Pattern.txt
# Results for scorer MLIC_Scorer
# Scored in component: MLIC
# X in 165 bins of 0.2 cm
# Y in 1 bin  of 10 cm
# Z in 1 bin  of 10 cm
# EnergyDeposit ( MeV ) : Sum   
0, 0, 0, 940.19140625
1, 0, 0, 938.1689453125
2, 0, 0, 942.1764526367188
3, 0, 0, 947.8866577148438
4, 0, 0, 953.1395874023438
5, 0, 0, 954.1635131835938
6, 0, 0, 956.4813232421875
7, 0, 0, 960.273681640625
8, 0, 0, 961.54638671875
9, 0, 0, 977.855712890625
10, 0, 0, 970.7808227539062
11, 0, 0, 986.9558715820312
12, 0, 0, 991.7757568359375
13, 0, 0, 980.0474853515625
14, 0, 0, 987.764892578125
15, 0, 0, 988.9462890625
16, 0, 0, 987.2880859375
17, 0, 0, 995.7994384765625
18, 0, 0, 994.8955078125
19, 0, 0, 1003.299987792969
20, 0, 0, 1008.907409667969
21, 0, 0, 1014.662292480469
22, 0, 0, 1015.240661621094
23, 0, 0, 1024.590576171875
24, 0, 0, 1029.062622070312
25, 0, 0, 1027.49755859375
26, 0, 0, 1039.497680664062
27, 0, 0, 1040.487182617188
28, 0, 0, 1047.507446289062
29, 0, 0, 1052.720703125
30, 0, 0, 1061.835327148438
31, 0, 0, 1053.614135742188
32, 0, 0, 1060.322265625
33, 0, 0, 1059.857177734375
34, 0, 0, 1077.632568359375
35, 0, 0, 1077.838500976562
36, 0, 0, 1082.140625
37, 0, 0, 1089.203491210938
38, 0, 0, 1092.155395507812
39, 0, 0, 1100.525390625
40, 0, 0, 1105.3134765625
41, 0, 0, 1112.373046875
42, 0, 0, 1121.293334960938
43, 0, 0, 1119.571411132812
44, 0, 0, 1129.538330078125
45, 0, 0, 1141.724853515625
46, 0, 0, 1148.843627929688
47, 0, 0, 1147.184448242188
48, 0, 0, 1154.85302734375
49, 0, 0, 1163.026245117188
50, 0, 0, 1170.603759765625
51, 0, 0, 1177.937133789062
52, 0, 0, 1183.401245117188
53, 0, 0, 1190.544189453125
54, 0, 0, 1195.819702148438
55, 0, 0, 1213.056884765625
56, 0, 0, 1215.860229492188
57, 0, 0, 1225.41357421875
58, 0, 0, 1236.009399414062
59, 0, 0, 1235.8603515625
60, 0, 0, 1247.732299804688
61, 0, 0, 1251.400268554688
62, 0, 0, 1272.888305664062
63, 0, 0, 1283.619384765625
64, 0, 0, 1291.620849609375
65, 0, 0, 1312.537719726562
66, 0, 0, 1307.80908203125
67, 0, 0, 1326.198974609375
68, 0, 0, 1333.71044921875
69, 0, 0, 1354.140625
70, 0, 0, 1363.913818359375
71, 0, 0, 1378.306884765625
72, 0, 0, 1383.629760742188
73, 0, 0, 1401.739990234375
74, 0, 0, 1421.985107421875
75, 0, 0, 1434.013305664062
76, 0, 0, 1446.634521484375
77, 0, 0, 1465.234375
78, 0, 0, 1473.879516601562
79, 0, 0, 1496.505004882812
80, 0, 0, 1508.866333007812
81, 0, 0, 1522.488891601562
82, 0, 0, 1541.683715820312
83, 0, 0, 1563.08837890625
84, 0, 0, 1578.0390625
85, 0, 0, 1611.717651367188
86, 0, 0, 1631.121337890625
87, 0, 0, 1656.625244140625
88, 0, 0, 1684.164428710938
89, 0, 0, 1705.367553710938
90, 0, 0, 1734.049926757812
91, 0, 0, 1770.131713867188
92, 0, 0, 1802.853149414062
93, 0, 0, 1831.171875
94, 0, 0, 1868.919921875
95, 0, 0, 1914.588134765625
96, 0, 0, 1948.737060546875
97, 0, 0, 1993.332885742188
98, 0, 0, 2044.749755859375
99, 0, 0, 2092.416015625
100, 0, 0, 2155.419189453125
101, 0, 0, 2222.544677734375
102, 0, 0, 2303.47412109375
103, 0, 0, 2381.318603515625
104, 0, 0, 2472.513427734375
105, 0, 0, 2589.636474609375
106, 0, 0, 2716.718017578125
107, 0, 0, 2864.749267578125
108, 0, 0, 3065.25830078125
109, 0, 0, 3314.33203125
110, 0, 0, 3672.38037109375
111, 0, 0, 4139.64306640625
112, 0, 0, 4678.56591796875
113, 0, 0, 5353.009765625
114, 0, 0, 5143.15625
115, 0, 0, 4416.44921875
116, 0, 0, 3021.352783203125
117, 0, 0, 1306.1943359375
118, 0, 0, 466.4158020019531
119, 0, 0, 197.7839050292969
120, 0, 0, 45.25690841674805
121, 0, 0, 0
122, 0, 0, 0
123, 0, 0, 0.02695146761834621
124, 0, 0, 0
125, 0, 0, 0
126, 0, 0, 0
127, 0, 0, 0
128, 0, 0, 0
129, 0, 0, 0
130, 0, 0, 0
131, 0, 0, 0
132, 0, 0, 0
133, 0, 0, 0
134, 0, 0, 0
135, 0, 0, 0
136, 0, 0, 0
137, 0, 0, 0
138, 0, 0, 0
139, 0, 0, 0
140, 0, 0, 0
141, 0, 0, 0
142, 0, 0, 0
143, 0, 0, 0
144, 0, 0, 0
145, 0, 0, 0
146, 0, 0, 0
147, 0, 0, 0
148, 0, 0, 0
149, 0, 0, 0
150, 0, 0, 0
151, 0, 0, 0
152, 0, 0, 0
153, 0, 0, 0
154, 0, 0, 0
155, 0, 0, 0
156, 0, 0, 0
157, 0, 0, 0
158, 0, 0, 0
159, 0, 0, 0
160, 0, 0, 0
161, 0, 0, 0
162, 0, 0, 0
163, 0, 0, 0
164, 0, 0, 0.01577282883226871
