# TOPAS Version: 3.3.p1
# Parameter File: Simple_Pattern.txt
# Results for scorer MLIC_Scorer
# Scored in component: MLIC
# X in 180 bins of 0.222222 cm
# Y in 1 bin  of 10 cm
# Z in 1 bin  of 10 cm
# EnergyDeposit ( MeV ) : Sum   
0, 0, 0, 1088.193237304688
1, 0, 0, 1092.157348632812
2, 0, 0, 1101.940673828125
3, 0, 0, 1100.502075195312
4, 0, 0, 1106.009155273438
5, 0, 0, 1107.203857421875
6, 0, 0, 1112.196655273438
7, 0, 0, 1112.634765625
8, 0, 0, 1124.873291015625
9, 0, 0, 1139.019897460938
10, 0, 0, 1134.187866210938
11, 0, 0, 1134.798217773438
12, 0, 0, 1148.152709960938
13, 0, 0, 1158.340087890625
14, 0, 0, 1156.57421875
15, 0, 0, 1165.38818359375
16, 0, 0, 1169.80517578125
17, 0, 0, 1176.633422851562
18, 0, 0, 1175.86328125
19, 0, 0, 1183.1142578125
20, 0, 0, 1191.039672851562
21, 0, 0, 1211.064208984375
22, 0, 0, 1209.782836914062
23, 0, 0, 1225.7685546875
24, 0, 0, 1216.211059570312
25, 0, 0, 1239.307861328125
26, 0, 0, 1234.964477539062
27, 0, 0, 1248.256225585938
28, 0, 0, 1263.002685546875
29, 0, 0, 1264.453369140625
30, 0, 0, 1264.937133789062
31, 0, 0, 1277.990478515625
32, 0, 0, 1287.8017578125
33, 0, 0, 1291.056030273438
34, 0, 0, 1301.187377929688
35, 0, 0, 1305.966552734375
36, 0, 0, 1324.939331054688
37, 0, 0, 1330.720458984375
38, 0, 0, 1337.385009765625
39, 0, 0, 1354.668334960938
40, 0, 0, 1356.130859375
41, 0, 0, 1367.808837890625
42, 0, 0, 1380.190795898438
43, 0, 0, 1394.673461914062
44, 0, 0, 1414.901123046875
45, 0, 0, 1427.690795898438
46, 0, 0, 1429.014282226562
47, 0, 0, 1448.282592773438
48, 0, 0, 1450.021606445312
49, 0, 0, 1468.038208007812
50, 0, 0, 1484.050170898438
51, 0, 0, 1502.38330078125
52, 0, 0, 1515.361694335938
53, 0, 0, 1535.182373046875
54, 0, 0, 1541.635864257812
55, 0, 0, 1563.92431640625
56, 0, 0, 1584.48779296875
57, 0, 0, 1604.732055664062
58, 0, 0, 1624.628295898438
59, 0, 0, 1636.18994140625
60, 0, 0, 1658.464111328125
61, 0, 0, 1681.681518554688
62, 0, 0, 1710.083984375
63, 0, 0, 1726.092163085938
64, 0, 0, 1743.373046875
65, 0, 0, 1790.2041015625
66, 0, 0, 1805.619750976562
67, 0, 0, 1841.130004882812
68, 0, 0, 1874.796142578125
69, 0, 0, 1913.562744140625
70, 0, 0, 1943.313598632812
71, 0, 0, 1981.011474609375
72, 0, 0, 2019.212768554688
73, 0, 0, 2061.27197265625
74, 0, 0, 2110.019287109375
75, 0, 0, 2157.600830078125
76, 0, 0, 2218.666748046875
77, 0, 0, 2287.7578125
78, 0, 0, 2349.97412109375
79, 0, 0, 2431.480224609375
80, 0, 0, 2516.852783203125
81, 0, 0, 2601.698486328125
82, 0, 0, 2712.32373046875
83, 0, 0, 2847.44384765625
84, 0, 0, 2983.8076171875
85, 0, 0, 3164.392333984375
86, 0, 0, 3392.8916015625
87, 0, 0, 3683.249267578125
88, 0, 0, 4086.362548828125
89, 0, 0, 4710.0302734375
90, 0, 0, 5593.0556640625
91, 0, 0, 6197.8740234375
92, 0, 0, 5959.63330078125
93, 0, 0, 4433.083984375
94, 0, 0, 2073.64111328125
95, 0, 0, 658.3548583984375
96, 0, 0, 159.9792785644531
97, 0, 0, 24.44651031494141
98, 0, 0, 0
99, 0, 0, 0
100, 0, 0, 0
101, 0, 0, 0
102, 0, 0, 0
103, 0, 0, 0
104, 0, 0, 0
105, 0, 0, 0
106, 0, 0, 0
107, 0, 0, 0
108, 0, 0, 0
109, 0, 0, 0
110, 0, 0, 0
111, 0, 0, 0
112, 0, 0, 0
113, 0, 0, 0
114, 0, 0, 0
115, 0, 0, 0
116, 0, 0, 0
117, 0, 0, 0
118, 0, 0, 0
119, 0, 0, 0
120, 0, 0, 0
121, 0, 0, 0
122, 0, 0, 0
123, 0, 0, 0
124, 0, 0, 0
125, 0, 0, 0
126, 0, 0, 0
127, 0, 0, 0
128, 0, 0, 0
129, 0, 0, 0
130, 0, 0, 0
131, 0, 0, 0
132, 0, 0, 0
133, 0, 0, 0
134, 0, 0, 0
135, 0, 0, 0
136, 0, 0, 0
137, 0, 0, 0
138, 0, 0, 0
139, 0, 0, 0
140, 0, 0, 0
141, 0, 0, 0
142, 0, 0, 0
143, 0, 0, 0
144, 0, 0, 0
145, 0, 0, 0
146, 0, 0, 0
147, 0, 0, 0
148, 0, 0, 0
149, 0, 0, 0
150, 0, 0, 0
151, 0, 0, 0
152, 0, 0, 0
153, 0, 0, 0
154, 0, 0, 0
155, 0, 0, 0
156, 0, 0, 0
157, 0, 0, 0
158, 0, 0, 0
159, 0, 0, 0
160, 0, 0, 0
161, 0, 0, 0
162, 0, 0, 0
163, 0, 0, 0
164, 0, 0, 0
165, 0, 0, 0
166, 0, 0, 0
167, 0, 0, 0
168, 0, 0, 0
169, 0, 0, 0
170, 0, 0, 0
171, 0, 0, 0
172, 0, 0, 0
173, 0, 0, 0
174, 0, 0, 0
175, 0, 0, 0
176, 0, 0, 0
177, 0, 0, 0
178, 0, 0, 0
179, 0, 0, 0
