# TOPAS Version: 3.3.p1
# Parameter File: Simple_Pattern.txt
# Results for scorer MLIC_Scorer
# Scored in component: MLIC
# X in 180 bins of 0.222222 cm
# Y in 1 bin  of 10 cm
# Z in 1 bin  of 10 cm
# EnergyDeposit ( MeV ) : Sum   
0, 0, 0, 43.23727798461914
1, 0, 0, 44.67900848388672
2, 0, 0, 43.08774566650391
3, 0, 0, 41.9547233581543
4, 0, 0, 43.19768142700195
5, 0, 0, 43.61056137084961
6, 0, 0, 40.60618209838867
7, 0, 0, 43.52309417724609
8, 0, 0, 43.76844787597656
9, 0, 0, 47.37581253051758
10, 0, 0, 43.44049835205078
11, 0, 0, 45.93156051635742
12, 0, 0, 45.29570770263672
13, 0, 0, 45.01452255249023
14, 0, 0, 44.45224380493164
15, 0, 0, 47.01552963256836
16, 0, 0, 46.44034194946289
17, 0, 0, 46.24298858642578
18, 0, 0, 45.79012298583984
19, 0, 0, 46.64336013793945
20, 0, 0, 47.34870147705078
21, 0, 0, 47.10229873657227
22, 0, 0, 47.91366577148438
23, 0, 0, 49.35534286499023
24, 0, 0, 47.35036087036133
25, 0, 0, 49.62464141845703
26, 0, 0, 48.77552032470703
27, 0, 0, 46.93720626831055
28, 0, 0, 49.267578125
29, 0, 0, 49.20283126831055
30, 0, 0, 49.56009292602539
31, 0, 0, 50.6888427734375
32, 0, 0, 50.86143112182617
33, 0, 0, 49.51912307739258
34, 0, 0, 49.14207077026367
35, 0, 0, 50.17986679077148
36, 0, 0, 48.4527473449707
37, 0, 0, 49.76188659667969
38, 0, 0, 51.57856369018555
39, 0, 0, 50.61338424682617
40, 0, 0, 49.02172470092773
41, 0, 0, 50.39891815185547
42, 0, 0, 52.21705627441406
43, 0, 0, 52.2816047668457
44, 0, 0, 52.99495697021484
45, 0, 0, 52.89265823364258
46, 0, 0, 51.99059677124023
47, 0, 0, 54.12778854370117
48, 0, 0, 53.30975341796875
49, 0, 0, 55.31998443603516
50, 0, 0, 55.21122360229492
51, 0, 0, 55.04342651367188
52, 0, 0, 57.35540771484375
53, 0, 0, 55.41638946533203
54, 0, 0, 54.91770553588867
55, 0, 0, 58.00650405883789
56, 0, 0, 57.96488571166992
57, 0, 0, 58.17787551879883
58, 0, 0, 56.92072296142578
59, 0, 0, 57.44820022583008
60, 0, 0, 58.57174301147461
61, 0, 0, 58.68645477294922
62, 0, 0, 59.72434616088867
63, 0, 0, 59.74919509887695
64, 0, 0, 60.81473541259766
65, 0, 0, 61.22518157958984
66, 0, 0, 62.30981826782227
67, 0, 0, 64.62918090820312
68, 0, 0, 65.25115966796875
69, 0, 0, 65.86695098876953
70, 0, 0, 65.33985137939453
71, 0, 0, 68.65611267089844
72, 0, 0, 68.99605560302734
73, 0, 0, 71.16609954833984
74, 0, 0, 71.32563018798828
75, 0, 0, 73.15142822265625
76, 0, 0, 76.34012603759766
77, 0, 0, 77.97725677490234
78, 0, 0, 80.12180328369141
79, 0, 0, 82.91638946533203
80, 0, 0, 86.50214385986328
81, 0, 0, 89.52161407470703
82, 0, 0, 92.78836059570312
83, 0, 0, 98.05847930908203
84, 0, 0, 101.960334777832
85, 0, 0, 109.0021209716797
86, 0, 0, 116.2797775268555
87, 0, 0, 126.185791015625
88, 0, 0, 141.1822052001953
89, 0, 0, 163.60693359375
90, 0, 0, 193.9415130615234
91, 0, 0, 187.6504516601562
92, 0, 0, 212.7760467529297
93, 0, 0, 123.5579833984375
94, 0, 0, 53.50603485107422
95, 0, 0, 7.566489696502686
96, 0, 0, 10.38068771362305
97, 0, 0, 0.03493086621165276
98, 0, 0, 0
99, 0, 0, 0
100, 0, 0, 0
101, 0, 0, 0.001068960293196142
102, 0, 0, 0
103, 0, 0, 0
104, 0, 0, 0
105, 0, 0, 0
106, 0, 0, 0
107, 0, 0, 0
108, 0, 0, 0
109, 0, 0, 0
110, 0, 0, 0
111, 0, 0, 0
112, 0, 0, 0
113, 0, 0, 0
114, 0, 0, 0
115, 0, 0, 0
116, 0, 0, 0
117, 0, 0, 0
118, 0, 0, 0
119, 0, 0, 0
120, 0, 0, 0
121, 0, 0, 0
122, 0, 0, 0
123, 0, 0, 0
124, 0, 0, 0
125, 0, 0, 0
126, 0, 0, 0
127, 0, 0, 0
128, 0, 0, 0
129, 0, 0, 0
130, 0, 0, 0
131, 0, 0, 0
132, 0, 0, 0
133, 0, 0, 0.06229023635387421
134, 0, 0, 0
135, 0, 0, 0
136, 0, 0, 0
137, 0, 0, 0
138, 0, 0, 0
139, 0, 0, 0
140, 0, 0, 0
141, 0, 0, 0
142, 0, 0, 0
143, 0, 0, 0
144, 0, 0, 0
145, 0, 0, 0
146, 0, 0, 0
147, 0, 0, 0
148, 0, 0, 0
149, 0, 0, 0
150, 0, 0, 0
151, 0, 0, 0
152, 0, 0, 0
153, 0, 0, 0
154, 0, 0, 0
155, 0, 0, 0
156, 0, 0, 0
157, 0, 0, 0
158, 0, 0, 0
159, 0, 0, 0
160, 0, 0, 0
161, 0, 0, 0
162, 0, 0, 0
163, 0, 0, 0
164, 0, 0, 0
165, 0, 0, 0
166, 0, 0, 0
167, 0, 0, 0
168, 0, 0, 0
169, 0, 0, 0
170, 0, 0, 0
171, 0, 0, 0
172, 0, 0, 0
173, 0, 0, 0
174, 0, 0, 0
175, 0, 0, 0
176, 0, 0, 0
177, 0, 0, 0
178, 0, 0, 0
179, 0, 0, 0
