# TOPAS Version: 3.3.p1
# Parameter File: Simple_Pattern.txt
# Results for scorer MLIC_Scorer
# Scored in component: MLIC
# X in 180 bins of 0.222222 cm
# Y in 1 bin  of 10 cm
# Z in 1 bin  of 10 cm
# EnergyDeposit ( MeV ) : Sum   
0, 0, 0, 1096.819458007812
1, 0, 0, 1091.450073242188
2, 0, 0, 1093.089477539062
3, 0, 0, 1099.611083984375
4, 0, 0, 1110.882080078125
5, 0, 0, 1097.357299804688
6, 0, 0, 1108.083618164062
7, 0, 0, 1121.736938476562
8, 0, 0, 1121.63671875
9, 0, 0, 1132.44775390625
10, 0, 0, 1132.16357421875
11, 0, 0, 1140.265991210938
12, 0, 0, 1152.212646484375
13, 0, 0, 1158.7900390625
14, 0, 0, 1154.217529296875
15, 0, 0, 1163.654174804688
16, 0, 0, 1178.092529296875
17, 0, 0, 1171.517944335938
18, 0, 0, 1186.597412109375
19, 0, 0, 1197.076904296875
20, 0, 0, 1191.197875976562
21, 0, 0, 1191.257934570312
22, 0, 0, 1212.61279296875
23, 0, 0, 1208.169311523438
24, 0, 0, 1231.779541015625
25, 0, 0, 1231.479736328125
26, 0, 0, 1244.342041015625
27, 0, 0, 1243.740478515625
28, 0, 0, 1256.669921875
29, 0, 0, 1257.834838867188
30, 0, 0, 1267.145385742188
31, 0, 0, 1267.555786132812
32, 0, 0, 1290.744140625
33, 0, 0, 1299.543701171875
34, 0, 0, 1303.757934570312
35, 0, 0, 1315.411987304688
36, 0, 0, 1318.351684570312
37, 0, 0, 1326.34765625
38, 0, 0, 1345.941772460938
39, 0, 0, 1351.474365234375
40, 0, 0, 1354.915161132812
41, 0, 0, 1380.554321289062
42, 0, 0, 1378.466918945312
43, 0, 0, 1396.377563476562
44, 0, 0, 1406.932373046875
45, 0, 0, 1418.181030273438
46, 0, 0, 1416.334228515625
47, 0, 0, 1438.519165039062
48, 0, 0, 1457.219116210938
49, 0, 0, 1475.945922851562
50, 0, 0, 1486.531127929688
51, 0, 0, 1500.076171875
52, 0, 0, 1518.64990234375
53, 0, 0, 1538.785278320312
54, 0, 0, 1548.945922851562
55, 0, 0, 1563.283203125
56, 0, 0, 1586.190673828125
57, 0, 0, 1589.039184570312
58, 0, 0, 1621.400146484375
59, 0, 0, 1629.3564453125
60, 0, 0, 1659.743286132812
61, 0, 0, 1686.094360351562
62, 0, 0, 1701.83544921875
63, 0, 0, 1723.771850585938
64, 0, 0, 1750.309204101562
65, 0, 0, 1782.08154296875
66, 0, 0, 1809.257568359375
67, 0, 0, 1834.57763671875
68, 0, 0, 1869.38623046875
69, 0, 0, 1904.7080078125
70, 0, 0, 1941.891479492188
71, 0, 0, 1976.815673828125
72, 0, 0, 2019.72216796875
73, 0, 0, 2063.46923828125
74, 0, 0, 2111.143798828125
75, 0, 0, 2172.166748046875
76, 0, 0, 2219.684326171875
77, 0, 0, 2283.6279296875
78, 0, 0, 2351.06005859375
79, 0, 0, 2423.37939453125
80, 0, 0, 2510.02880859375
81, 0, 0, 2602.237548828125
82, 0, 0, 2716.990966796875
83, 0, 0, 2843.98291015625
84, 0, 0, 2983.86083984375
85, 0, 0, 3160.911376953125
86, 0, 0, 3384.00830078125
87, 0, 0, 3677.45068359375
88, 0, 0, 4089.9716796875
89, 0, 0, 4766.57666015625
90, 0, 0, 5553.31591796875
91, 0, 0, 6294.4794921875
92, 0, 0, 5967.83251953125
93, 0, 0, 4238.28076171875
94, 0, 0, 2069.95263671875
95, 0, 0, 766.6879272460938
96, 0, 0, 184.9468688964844
97, 0, 0, 14.70446872711182
98, 0, 0, 0
99, 0, 0, 0
100, 0, 0, 0
101, 0, 0, 0
102, 0, 0, 0
103, 0, 0, 0
104, 0, 0, 0
105, 0, 0, 0
106, 0, 0, 0
107, 0, 0, 0
108, 0, 0, 0
109, 0, 0, 0
110, 0, 0, 0.009913410991430283
111, 0, 0, 0
112, 0, 0, 0
113, 0, 0, 0
114, 0, 0, 0
115, 0, 0, 0
116, 0, 0, 0
117, 0, 0, 0
118, 0, 0, 0
119, 0, 0, 0.001128042698837817
120, 0, 0, 0
121, 0, 0, 0.001383252791129053
122, 0, 0, 0
123, 0, 0, 0
124, 0, 0, 0
125, 0, 0, 0
126, 0, 0, 0
127, 0, 0, 0
128, 0, 0, 0
129, 0, 0, 0
130, 0, 0, 0
131, 0, 0, 0
132, 0, 0, 0
133, 0, 0, 0
134, 0, 0, 0
135, 0, 0, 0
136, 0, 0, 0
137, 0, 0, 0
138, 0, 0, 0
139, 0, 0, 0
140, 0, 0, 0
141, 0, 0, 0
142, 0, 0, 0
143, 0, 0, 0
144, 0, 0, 0
145, 0, 0, 0
146, 0, 0, 0
147, 0, 0, 0
148, 0, 0, 0
149, 0, 0, 0
150, 0, 0, 0
151, 0, 0, 0
152, 0, 0, 0
153, 0, 0, 0
154, 0, 0, 0
155, 0, 0, 0
156, 0, 0, 0
157, 0, 0, 0
158, 0, 0, 0
159, 0, 0, 0
160, 0, 0, 0
161, 0, 0, 0
162, 0, 0, 0
163, 0, 0, 0
164, 0, 0, 0
165, 0, 0, 0
166, 0, 0, 0
167, 0, 0, 0
168, 0, 0, 0
169, 0, 0, 0
170, 0, 0, 0
171, 0, 0, 0
172, 0, 0, 0
173, 0, 0, 0
174, 0, 0, 0
175, 0, 0, 0
176, 0, 0, 0
177, 0, 0, 0
178, 0, 0, 0
179, 0, 0, 0
