# TOPAS Version: 3.3.p1
# Parameter File: Simple_Pattern.txt
# Results for scorer MLIC_Scorer
# Scored in component: MLIC
# X in 180 bins of 0.222222 cm
# Y in 1 bin  of 10 cm
# Z in 1 bin  of 10 cm
# EnergyDeposit ( MeV ) : Sum   
0, 0, 0, 58.45340347290039
1, 0, 0, 61.18299865722656
2, 0, 0, 59.14627075195312
3, 0, 0, 59.71860504150391
4, 0, 0, 61.43433380126953
5, 0, 0, 61.29553604125977
6, 0, 0, 61.94513702392578
7, 0, 0, 61.09781265258789
8, 0, 0, 62.38703536987305
9, 0, 0, 59.7796630859375
10, 0, 0, 63.85984039306641
11, 0, 0, 63.60321044921875
12, 0, 0, 61.71963882446289
13, 0, 0, 61.83919143676758
14, 0, 0, 62.11334609985352
15, 0, 0, 63.13975143432617
16, 0, 0, 64.25820159912109
17, 0, 0, 63.39088821411133
18, 0, 0, 65.73117065429688
19, 0, 0, 65.73258972167969
20, 0, 0, 67.31275177001953
21, 0, 0, 67.08596038818359
22, 0, 0, 66.98455047607422
23, 0, 0, 66.57987976074219
24, 0, 0, 67.17176818847656
25, 0, 0, 69.99146270751953
26, 0, 0, 67.49606323242188
27, 0, 0, 69.22592926025391
28, 0, 0, 70.12464904785156
29, 0, 0, 72.31444549560547
30, 0, 0, 71.71839141845703
31, 0, 0, 72.43817901611328
32, 0, 0, 73.2811279296875
33, 0, 0, 72.82759857177734
34, 0, 0, 72.15253448486328
35, 0, 0, 73.38690948486328
36, 0, 0, 75.78123474121094
37, 0, 0, 75.28049468994141
38, 0, 0, 77.11958312988281
39, 0, 0, 76.71895599365234
40, 0, 0, 78.57862854003906
41, 0, 0, 78.90925598144531
42, 0, 0, 79.49192047119141
43, 0, 0, 82.27507781982422
44, 0, 0, 83.31236267089844
45, 0, 0, 82.87971496582031
46, 0, 0, 82.35411834716797
47, 0, 0, 83.66477966308594
48, 0, 0, 85.70262908935547
49, 0, 0, 85.45315551757812
50, 0, 0, 89.5037841796875
51, 0, 0, 88.68540954589844
52, 0, 0, 91.96710205078125
53, 0, 0, 92.79756164550781
54, 0, 0, 95.36281585693359
55, 0, 0, 96.26016235351562
56, 0, 0, 95.59070587158203
57, 0, 0, 97.68335723876953
58, 0, 0, 100.4816284179688
59, 0, 0, 104.2363662719727
60, 0, 0, 104.3358612060547
61, 0, 0, 107.734375
62, 0, 0, 110.854118347168
63, 0, 0, 111.3499755859375
64, 0, 0, 117.2208023071289
65, 0, 0, 119.7057266235352
66, 0, 0, 121.632453918457
67, 0, 0, 129.0132141113281
68, 0, 0, 130.0543823242188
69, 0, 0, 137.4528198242188
70, 0, 0, 143.5549011230469
71, 0, 0, 153.1761016845703
72, 0, 0, 158.2331085205078
73, 0, 0, 170.5328063964844
74, 0, 0, 186.7863006591797
75, 0, 0, 206.1835784912109
76, 0, 0, 239.4884185791016
77, 0, 0, 273.7667236328125
78, 0, 0, 307.3385314941406
79, 0, 0, 328.8675537109375
80, 0, 0, 274.2136840820312
81, 0, 0, 85.73516845703125
82, 0, 0, 23.32841110229492
83, 0, 0, 7.610997676849365
84, 0, 0, 0
85, 0, 0, 0
86, 0, 0, 0
87, 0, 0, 0
88, 0, 0, 0
89, 0, 0, 0
90, 0, 0, 0
91, 0, 0, 0
92, 0, 0, 0
93, 0, 0, 0
94, 0, 0, 0
95, 0, 0, 0
96, 0, 0, 0
97, 0, 0, 0
98, 0, 0, 0
99, 0, 0, 0
100, 0, 0, 0
101, 0, 0, 0
102, 0, 0, 0
103, 0, 0, 0
104, 0, 0, 0
105, 0, 0, 0
106, 0, 0, 0
107, 0, 0, 0
108, 0, 0, 0
109, 0, 0, 0
110, 0, 0, 0
111, 0, 0, 0
112, 0, 0, 0
113, 0, 0, 0
114, 0, 0, 0
115, 0, 0, 0
116, 0, 0, 0
117, 0, 0, 0
118, 0, 0, 0
119, 0, 0, 0
120, 0, 0, 0
121, 0, 0, 0
122, 0, 0, 0
123, 0, 0, 0
124, 0, 0, 0
125, 0, 0, 0
126, 0, 0, 0
127, 0, 0, 0
128, 0, 0, 0
129, 0, 0, 0
130, 0, 0, 0
131, 0, 0, 0
132, 0, 0, 0
133, 0, 0, 0
134, 0, 0, 0
135, 0, 0, 0
136, 0, 0, 0
137, 0, 0, 0
138, 0, 0, 0
139, 0, 0, 0
140, 0, 0, 0
141, 0, 0, 0
142, 0, 0, 0
143, 0, 0, 0
144, 0, 0, 0
145, 0, 0, 0
146, 0, 0, 0
147, 0, 0, 0
148, 0, 0, 0
149, 0, 0, 0
150, 0, 0, 0
151, 0, 0, 0
152, 0, 0, 0
153, 0, 0, 0
154, 0, 0, 0
155, 0, 0, 0
156, 0, 0, 0
157, 0, 0, 0
158, 0, 0, 0
159, 0, 0, 0
160, 0, 0, 0
161, 0, 0, 0
162, 0, 0, 0
163, 0, 0, 0
164, 0, 0, 0
165, 0, 0, 0
166, 0, 0, 0
167, 0, 0, 0
168, 0, 0, 0
169, 0, 0, 0
170, 0, 0, 0
171, 0, 0, 0
172, 0, 0, 0
173, 0, 0, 0
174, 0, 0, 0
175, 0, 0, 0
176, 0, 0, 0
177, 0, 0, 0
178, 0, 0, 0
179, 0, 0, 0
