# TOPAS Version: 3.3.p1
# Parameter File: Simple_Pattern.txt
# Results for scorer MLIC_Scorer
# Scored in component: MLIC
# X in 180 bins of 0.222222 cm
# Y in 1 bin  of 10 cm
# Z in 1 bin  of 10 cm
# EnergyDeposit ( MeV ) : Sum   
0, 0, 0, 1113.9658203125
1, 0, 0, 1120.47900390625
2, 0, 0, 1125.14794921875
3, 0, 0, 1129.24462890625
4, 0, 0, 1140.241088867188
5, 0, 0, 1140.22314453125
6, 0, 0, 1148.132568359375
7, 0, 0, 1148.943969726562
8, 0, 0, 1161.769897460938
9, 0, 0, 1170.193603515625
10, 0, 0, 1170.933227539062
11, 0, 0, 1179.565063476562
12, 0, 0, 1176.864624023438
13, 0, 0, 1197.542114257812
14, 0, 0, 1204.670776367188
15, 0, 0, 1205.780517578125
16, 0, 0, 1214.52685546875
17, 0, 0, 1206.958251953125
18, 0, 0, 1227.580810546875
19, 0, 0, 1242.583251953125
20, 0, 0, 1253.126586914062
21, 0, 0, 1242.500854492188
22, 0, 0, 1256.457275390625
23, 0, 0, 1261.506103515625
24, 0, 0, 1270.85205078125
25, 0, 0, 1286.478515625
26, 0, 0, 1285.707641601562
27, 0, 0, 1290.154541015625
28, 0, 0, 1309.750366210938
29, 0, 0, 1315.221557617188
30, 0, 0, 1325.402221679688
31, 0, 0, 1342.23291015625
32, 0, 0, 1341.524169921875
33, 0, 0, 1353.095336914062
34, 0, 0, 1357.516967773438
35, 0, 0, 1386.193481445312
36, 0, 0, 1385.718139648438
37, 0, 0, 1408.35791015625
38, 0, 0, 1415.555908203125
39, 0, 0, 1422.198608398438
40, 0, 0, 1444.25732421875
41, 0, 0, 1448.10595703125
42, 0, 0, 1468.751831054688
43, 0, 0, 1482.667114257812
44, 0, 0, 1497.579711914062
45, 0, 0, 1512.880981445312
46, 0, 0, 1526.789916992188
47, 0, 0, 1541.243408203125
48, 0, 0, 1570.932250976562
49, 0, 0, 1584.241577148438
50, 0, 0, 1600.626220703125
51, 0, 0, 1620.672241210938
52, 0, 0, 1638.842041015625
53, 0, 0, 1662.62060546875
54, 0, 0, 1679.665161132812
55, 0, 0, 1705.66357421875
56, 0, 0, 1734.645751953125
57, 0, 0, 1754.098266601562
58, 0, 0, 1795.506225585938
59, 0, 0, 1810.56298828125
60, 0, 0, 1857.461791992188
61, 0, 0, 1885.763305664062
62, 0, 0, 1919.943603515625
63, 0, 0, 1966.337646484375
64, 0, 0, 1999.0966796875
65, 0, 0, 2044.734985351562
66, 0, 0, 2097.078125
67, 0, 0, 2145.31982421875
68, 0, 0, 2216.6708984375
69, 0, 0, 2278.070068359375
70, 0, 0, 2353.879638671875
71, 0, 0, 2441.49169921875
72, 0, 0, 2550.10302734375
73, 0, 0, 2675.75830078125
74, 0, 0, 2835.476318359375
75, 0, 0, 3038.744384765625
76, 0, 0, 3352.994384765625
77, 0, 0, 3755.8916015625
78, 0, 0, 4043.037353515625
79, 0, 0, 4048.30517578125
80, 0, 0, 3469.762939453125
81, 0, 0, 2529.4970703125
82, 0, 0, 1897.155639648438
83, 0, 0, 1740.144897460938
84, 0, 0, 1739.447998046875
85, 0, 0, 1844.371337890625
86, 0, 0, 1865.672241210938
87, 0, 0, 1988.726684570312
88, 0, 0, 2148.87451171875
89, 0, 0, 2375.5986328125
90, 0, 0, 2808.095703125
91, 0, 0, 3130.9697265625
92, 0, 0, 3029.482177734375
93, 0, 0, 2309.34716796875
94, 0, 0, 1136.11083984375
95, 0, 0, 328.2440185546875
96, 0, 0, 85.04656219482422
97, 0, 0, 1.993948578834534
98, 0, 0, 0
99, 0, 0, 0
100, 0, 0, 0
101, 0, 0, 0
102, 0, 0, 0
103, 0, 0, 0
104, 0, 0, 0
105, 0, 0, 0.005451960023492575
106, 0, 0, 0
107, 0, 0, 0
108, 0, 0, 0
109, 0, 0, 0
110, 0, 0, 0
111, 0, 0, 0
112, 0, 0, 0
113, 0, 0, 0
114, 0, 0, 0
115, 0, 0, 0
116, 0, 0, 0
117, 0, 0, 0
118, 0, 0, 0
119, 0, 0, 0
120, 0, 0, 0
121, 0, 0, 0
122, 0, 0, 0
123, 0, 0, 0
124, 0, 0, 0
125, 0, 0, 0
126, 0, 0, 0
127, 0, 0, 0
128, 0, 0, 0
129, 0, 0, 0
130, 0, 0, 0
131, 0, 0, 0
132, 0, 0, 0
133, 0, 0, 0
134, 0, 0, 0
135, 0, 0, 0
136, 0, 0, 0
137, 0, 0, 0
138, 0, 0, 0
139, 0, 0, 0
140, 0, 0, 0
141, 0, 0, 0
142, 0, 0, 0
143, 0, 0, 0
144, 0, 0, 0
145, 0, 0, 0
146, 0, 0, 0
147, 0, 0, 0
148, 0, 0, 0
149, 0, 0, 0
150, 0, 0, 0
151, 0, 0, 0
152, 0, 0, 0
153, 0, 0, 0
154, 0, 0, 0
155, 0, 0, 0
156, 0, 0, 0
157, 0, 0, 0
158, 0, 0, 0
159, 0, 0, 0
160, 0, 0, 0
161, 0, 0, 0
162, 0, 0, 0
163, 0, 0, 0
164, 0, 0, 0
165, 0, 0, 0
166, 0, 0, 0
167, 0, 0, 0
168, 0, 0, 0
169, 0, 0, 0
170, 0, 0, 0
171, 0, 0, 0
172, 0, 0, 0
173, 0, 0, 0
174, 0, 0, 0
175, 0, 0, 0
176, 0, 0, 0
177, 0, 0, 0
178, 0, 0, 0
179, 0, 0, 0
