# TOPAS Version: 3.3.p1
# Parameter File: Simple_Pattern.txt
# Results for scorer MLIC_Scorer
# Scored in component: MLIC
# X in 180 bins of 0.222222 cm
# Y in 1 bin  of 10 cm
# Z in 1 bin  of 10 cm
# EnergyDeposit ( MeV ) : Sum   
0, 0, 0, 1090.496948242188
1, 0, 0, 1097.852294921875
2, 0, 0, 1105.902954101562
3, 0, 0, 1097.18603515625
4, 0, 0, 1111.87255859375
5, 0, 0, 1113.90869140625
6, 0, 0, 1120.21435546875
7, 0, 0, 1117.7265625
8, 0, 0, 1127.076171875
9, 0, 0, 1136.935546875
10, 0, 0, 1162.714721679688
11, 0, 0, 1133.049072265625
12, 0, 0, 1141.647705078125
13, 0, 0, 1155.0068359375
14, 0, 0, 1159.094116210938
15, 0, 0, 1160.802124023438
16, 0, 0, 1168.71337890625
17, 0, 0, 1180.832885742188
18, 0, 0, 1180.26123046875
19, 0, 0, 1191.533203125
20, 0, 0, 1199.787109375
21, 0, 0, 1199.617797851562
22, 0, 0, 1201.274536132812
23, 0, 0, 1207.275024414062
24, 0, 0, 1225.601684570312
25, 0, 0, 1217.873413085938
26, 0, 0, 1229.834106445312
27, 0, 0, 1240.289794921875
28, 0, 0, 1254.201538085938
29, 0, 0, 1254.941162109375
30, 0, 0, 1264.940795898438
31, 0, 0, 1276.361572265625
32, 0, 0, 1281.157348632812
33, 0, 0, 1285.169677734375
34, 0, 0, 1296.840576171875
35, 0, 0, 1313.845092773438
36, 0, 0, 1314.114624023438
37, 0, 0, 1332.390258789062
38, 0, 0, 1339.472290039062
39, 0, 0, 1343.922241210938
40, 0, 0, 1355.474365234375
41, 0, 0, 1363.837158203125
42, 0, 0, 1378.524536132812
43, 0, 0, 1395.768920898438
44, 0, 0, 1400.820068359375
45, 0, 0, 1413.6376953125
46, 0, 0, 1435.161865234375
47, 0, 0, 1441.322875976562
48, 0, 0, 1458.856689453125
49, 0, 0, 1474.401000976562
50, 0, 0, 1477.487670898438
51, 0, 0, 1502.157104492188
52, 0, 0, 1499.63916015625
53, 0, 0, 1529.1318359375
54, 0, 0, 1546.832763671875
55, 0, 0, 1557.378051757812
56, 0, 0, 1579.065673828125
57, 0, 0, 1590.340454101562
58, 0, 0, 1617.283935546875
59, 0, 0, 1638.829956054688
60, 0, 0, 1664.462524414062
61, 0, 0, 1673.929443359375
62, 0, 0, 1690.153442382812
63, 0, 0, 1730.869873046875
64, 0, 0, 1755.810668945312
65, 0, 0, 1776.323120117188
66, 0, 0, 1797.721313476562
67, 0, 0, 1848.137939453125
68, 0, 0, 1867.491333007812
69, 0, 0, 1905.914916992188
70, 0, 0, 1929.484741210938
71, 0, 0, 1969.346557617188
72, 0, 0, 2012.80517578125
73, 0, 0, 2052.677734375
74, 0, 0, 2104.41162109375
75, 0, 0, 2163.79248046875
76, 0, 0, 2207.657470703125
77, 0, 0, 2272.92626953125
78, 0, 0, 2343.566162109375
79, 0, 0, 2412.88134765625
80, 0, 0, 2492.749267578125
81, 0, 0, 2586.167236328125
82, 0, 0, 2700.499755859375
83, 0, 0, 2824.4384765625
84, 0, 0, 2973.211181640625
85, 0, 0, 3147.453857421875
86, 0, 0, 3368.99365234375
87, 0, 0, 3650.41552734375
88, 0, 0, 4048.83544921875
89, 0, 0, 4628.40185546875
90, 0, 0, 5565.98046875
91, 0, 0, 6173.5263671875
92, 0, 0, 6030.3544921875
93, 0, 0, 4135.30322265625
94, 0, 0, 2119.364013671875
95, 0, 0, 760.5501708984375
96, 0, 0, 99.3214111328125
97, 0, 0, 0
98, 0, 0, 0
99, 0, 0, 0
100, 0, 0, 0
101, 0, 0, 0
102, 0, 0, 0
103, 0, 0, 0
104, 0, 0, 0
105, 0, 0, 0
106, 0, 0, 0
107, 0, 0, 0.003356107510626316
108, 0, 0, 0
109, 0, 0, 0
110, 0, 0, 0
111, 0, 0, 0
112, 0, 0, 0
113, 0, 0, 0
114, 0, 0, 0
115, 0, 0, 0
116, 0, 0, 0
117, 0, 0, 0
118, 0, 0, 0
119, 0, 0, 0
120, 0, 0, 0
121, 0, 0, 0
122, 0, 0, 0
123, 0, 0, 0
124, 0, 0, 0
125, 0, 0, 0
126, 0, 0, 0
127, 0, 0, 0
128, 0, 0, 0
129, 0, 0, 0
130, 0, 0, 0
131, 0, 0, 0
132, 0, 0, 0
133, 0, 0, 0
134, 0, 0, 0
135, 0, 0, 0
136, 0, 0, 0
137, 0, 0, 0
138, 0, 0, 0
139, 0, 0, 0
140, 0, 0, 0
141, 0, 0, 0
142, 0, 0, 0
143, 0, 0, 0
144, 0, 0, 0
145, 0, 0, 0
146, 0, 0, 0
147, 0, 0, 0
148, 0, 0, 0
149, 0, 0, 0
150, 0, 0, 0
151, 0, 0, 0
152, 0, 0, 0
153, 0, 0, 0
154, 0, 0, 0
155, 0, 0, 0
156, 0, 0, 0
157, 0, 0, 0
158, 0, 0, 0
159, 0, 0, 0
160, 0, 0, 0
161, 0, 0, 0
162, 0, 0, 0
163, 0, 0, 0
164, 0, 0, 0
165, 0, 0, 0
166, 0, 0, 0
167, 0, 0, 0
168, 0, 0, 0
169, 0, 0, 0
170, 0, 0, 0
171, 0, 0, 0
172, 0, 0, 0
173, 0, 0, 0
174, 0, 0, 0
175, 0, 0, 0
176, 0, 0, 0
177, 0, 0, 0
178, 0, 0, 0
179, 0, 0, 0
