# TOPAS Version: 3.3.p1
# Parameter File: Simple_Pattern.txt
# Results for scorer MLIC_Scorer
# Scored in component: MLIC
# X in 180 bins of 0.222222 cm
# Y in 1 bin  of 10 cm
# Z in 1 bin  of 10 cm
# EnergyDeposit ( MeV ) : Sum   
0, 0, 0, 53.48910140991211
1, 0, 0, 54.14483261108398
2, 0, 0, 52.73676300048828
3, 0, 0, 51.70843505859375
4, 0, 0, 55.89913558959961
5, 0, 0, 55.76835250854492
6, 0, 0, 55.38260650634766
7, 0, 0, 54.99653625488281
8, 0, 0, 53.99130630493164
9, 0, 0, 55.12407302856445
10, 0, 0, 54.49172973632812
11, 0, 0, 55.89373779296875
12, 0, 0, 56.10418319702148
13, 0, 0, 55.76301574707031
14, 0, 0, 57.20636367797852
15, 0, 0, 56.11716842651367
16, 0, 0, 56.9892692565918
17, 0, 0, 59.54214477539062
18, 0, 0, 59.45815658569336
19, 0, 0, 58.97478485107422
20, 0, 0, 58.53876495361328
21, 0, 0, 60.05606460571289
22, 0, 0, 60.22691345214844
23, 0, 0, 58.28105545043945
24, 0, 0, 60.92342758178711
25, 0, 0, 62.20167541503906
26, 0, 0, 62.5814208984375
27, 0, 0, 62.23535919189453
28, 0, 0, 63.16835784912109
29, 0, 0, 63.84775543212891
30, 0, 0, 63.71272659301758
31, 0, 0, 64.61908721923828
32, 0, 0, 64.70494079589844
33, 0, 0, 64.97222900390625
34, 0, 0, 64.86531066894531
35, 0, 0, 67.12889099121094
36, 0, 0, 65.96849060058594
37, 0, 0, 68.45317077636719
38, 0, 0, 69.66661071777344
39, 0, 0, 69.29458618164062
40, 0, 0, 69.056640625
41, 0, 0, 70.59237670898438
42, 0, 0, 70.53813934326172
43, 0, 0, 72.05878448486328
44, 0, 0, 74.53792572021484
45, 0, 0, 74.77783966064453
46, 0, 0, 76.98767852783203
47, 0, 0, 77.25629425048828
48, 0, 0, 75.60018157958984
49, 0, 0, 77.94870758056641
50, 0, 0, 79.14183807373047
51, 0, 0, 78.35608673095703
52, 0, 0, 80.7413330078125
53, 0, 0, 83.07196044921875
54, 0, 0, 84.24799346923828
55, 0, 0, 85.97369384765625
56, 0, 0, 86.12021636962891
57, 0, 0, 87.93767547607422
58, 0, 0, 91.04007720947266
59, 0, 0, 91.38188171386719
60, 0, 0, 92.38014221191406
61, 0, 0, 96.12580108642578
62, 0, 0, 98.28743743896484
63, 0, 0, 100.3285675048828
64, 0, 0, 103.1252899169922
65, 0, 0, 106.3280944824219
66, 0, 0, 110.1748123168945
67, 0, 0, 113.2511672973633
68, 0, 0, 119.4854965209961
69, 0, 0, 121.3505630493164
70, 0, 0, 126.0879669189453
71, 0, 0, 134.1145629882812
72, 0, 0, 141.2349700927734
73, 0, 0, 151.8553009033203
74, 0, 0, 164.8436584472656
75, 0, 0, 180.8155975341797
76, 0, 0, 210.2750701904297
77, 0, 0, 249.7837677001953
78, 0, 0, 274.7410583496094
79, 0, 0, 255.8406372070312
80, 0, 0, 195.0309753417969
81, 0, 0, 144.2976531982422
82, 0, 0, 59.1580696105957
83, 0, 0, 23.70425033569336
84, 0, 0, 9.591839790344238
85, 0, 0, 17.24772453308105
86, 0, 0, 4.06772518157959
87, 0, 0, 4.000626564025879
88, 0, 0, 4.519026279449463
89, 0, 0, 5.659397602081299
90, 0, 0, 7.539172172546387
91, 0, 0, 10.59558486938477
92, 0, 0, 0
93, 0, 0, 0
94, 0, 0, 0
95, 0, 0, 0
96, 0, 0, 0
97, 0, 0, 0
98, 0, 0, 0
99, 0, 0, 0
100, 0, 0, 0
101, 0, 0, 0
102, 0, 0, 0
103, 0, 0, 0
104, 0, 0, 0
105, 0, 0, 0
106, 0, 0, 0
107, 0, 0, 0
108, 0, 0, 0
109, 0, 0, 0
110, 0, 0, 0
111, 0, 0, 0
112, 0, 0, 0
113, 0, 0, 0
114, 0, 0, 0
115, 0, 0, 0
116, 0, 0, 0
117, 0, 0, 0
118, 0, 0, 0
119, 0, 0, 0
120, 0, 0, 0
121, 0, 0, 0
122, 0, 0, 0
123, 0, 0, 0
124, 0, 0, 0
125, 0, 0, 0
126, 0, 0, 0
127, 0, 0, 0
128, 0, 0, 0
129, 0, 0, 0
130, 0, 0, 0
131, 0, 0, 0
132, 0, 0, 0
133, 0, 0, 0
134, 0, 0, 0
135, 0, 0, 0
136, 0, 0, 0
137, 0, 0, 0
138, 0, 0, 0
139, 0, 0, 0
140, 0, 0, 0
141, 0, 0, 0
142, 0, 0, 0
143, 0, 0, 0
144, 0, 0, 0
145, 0, 0, 0
146, 0, 0, 0
147, 0, 0, 0
148, 0, 0, 0
149, 0, 0, 0
150, 0, 0, 0
151, 0, 0, 0
152, 0, 0, 0
153, 0, 0, 0
154, 0, 0, 0
155, 0, 0, 0
156, 0, 0, 0
157, 0, 0, 0
158, 0, 0, 0
159, 0, 0, 0
160, 0, 0, 0
161, 0, 0, 0
162, 0, 0, 0
163, 0, 0, 0
164, 0, 0, 0
165, 0, 0, 0
166, 0, 0, 0
167, 0, 0, 0
168, 0, 0, 0
169, 0, 0, 0
170, 0, 0, 0
171, 0, 0, 0
172, 0, 0, 0
173, 0, 0, 0
174, 0, 0, 0
175, 0, 0, 0
176, 0, 0, 0
177, 0, 0, 0
178, 0, 0, 0
179, 0, 0, 0
