# TOPAS Version: 3.3.p1
# Parameter File: Simple_Pattern.txt
# Results for scorer MLIC_Scorer
# Scored in component: MLIC
# X in 180 bins of 0.222222 cm
# Y in 1 bin  of 10 cm
# Z in 1 bin  of 10 cm
# EnergyDeposit ( MeV ) : Sum   
0, 0, 0, 1093.165405273438
1, 0, 0, 1097.74072265625
2, 0, 0, 1097.128662109375
3, 0, 0, 1110.57861328125
4, 0, 0, 1103.401000976562
5, 0, 0, 1107.123291015625
6, 0, 0, 1113.162475585938
7, 0, 0, 1119.677368164062
8, 0, 0, 1116.819946289062
9, 0, 0, 1133.238525390625
10, 0, 0, 1133.6884765625
11, 0, 0, 1143.203125
12, 0, 0, 1144.945434570312
13, 0, 0, 1156.634155273438
14, 0, 0, 1159.7158203125
15, 0, 0, 1161.343505859375
16, 0, 0, 1174.0849609375
17, 0, 0, 1181.364501953125
18, 0, 0, 1188.273315429688
19, 0, 0, 1196.509399414062
20, 0, 0, 1196.345336914062
21, 0, 0, 1204.440063476562
22, 0, 0, 1208.6591796875
23, 0, 0, 1216.56103515625
24, 0, 0, 1222.570068359375
25, 0, 0, 1234.483032226562
26, 0, 0, 1241.869995117188
27, 0, 0, 1238.273681640625
28, 0, 0, 1247.177734375
29, 0, 0, 1260.6826171875
30, 0, 0, 1264.652465820312
31, 0, 0, 1280.818969726562
32, 0, 0, 1283.940307617188
33, 0, 0, 1290.272338867188
34, 0, 0, 1300.254272460938
35, 0, 0, 1308.272338867188
36, 0, 0, 1314.63671875
37, 0, 0, 1337.447631835938
38, 0, 0, 1335.692993164062
39, 0, 0, 1355.5830078125
40, 0, 0, 1363.144287109375
41, 0, 0, 1365.883422851562
42, 0, 0, 1385.362915039062
43, 0, 0, 1391.811401367188
44, 0, 0, 1408.473388671875
45, 0, 0, 1418.419555664062
46, 0, 0, 1420.806396484375
47, 0, 0, 1445.134643554688
48, 0, 0, 1454.823974609375
49, 0, 0, 1475.2373046875
50, 0, 0, 1484.62109375
51, 0, 0, 1486.75634765625
52, 0, 0, 1514.545654296875
53, 0, 0, 1530.528930664062
54, 0, 0, 1547.885131835938
55, 0, 0, 1568.738403320312
56, 0, 0, 1578.022094726562
57, 0, 0, 1598.37744140625
58, 0, 0, 1616.978149414062
59, 0, 0, 1642.660888671875
60, 0, 0, 1662.245239257812
61, 0, 0, 1682.3876953125
62, 0, 0, 1702.923095703125
63, 0, 0, 1722.16357421875
64, 0, 0, 1752.193481445312
65, 0, 0, 1785.402954101562
66, 0, 0, 1810.154296875
67, 0, 0, 1836.215698242188
68, 0, 0, 1861.859375
69, 0, 0, 1896.40869140625
70, 0, 0, 1932.403198242188
71, 0, 0, 1970.509033203125
72, 0, 0, 2017.150634765625
73, 0, 0, 2071.632080078125
74, 0, 0, 2101.21923828125
75, 0, 0, 2156.4638671875
76, 0, 0, 2205.217529296875
77, 0, 0, 2265.05029296875
78, 0, 0, 2341.224609375
79, 0, 0, 2407.375244140625
80, 0, 0, 2492.029296875
81, 0, 0, 2586.677490234375
82, 0, 0, 2695.802490234375
83, 0, 0, 2823.158935546875
84, 0, 0, 2976.060546875
85, 0, 0, 3137.60498046875
86, 0, 0, 3364.1015625
87, 0, 0, 3655.864990234375
88, 0, 0, 4069.93359375
89, 0, 0, 4668.91943359375
90, 0, 0, 5521.65966796875
91, 0, 0, 6095.53369140625
92, 0, 0, 5855.7685546875
93, 0, 0, 4032.626220703125
94, 0, 0, 1911.651611328125
95, 0, 0, 612.3552856445312
96, 0, 0, 128.363037109375
97, 0, 0, 30.23212242126465
98, 0, 0, 0.01884464174509048
99, 0, 0, 0.002354037016630173
100, 0, 0, 0.02386809140443802
101, 0, 0, 0
102, 0, 0, 0.03376264497637749
103, 0, 0, 0
104, 0, 0, 0.004662157036364079
105, 0, 0, 0
106, 0, 0, 0
107, 0, 0, 0
108, 0, 0, 0
109, 0, 0, 0
110, 0, 0, 0
111, 0, 0, 0
112, 0, 0, 0
113, 0, 0, 0
114, 0, 0, 0
115, 0, 0, 0
116, 0, 0, 0
117, 0, 0, 0
118, 0, 0, 0
119, 0, 0, 0
120, 0, 0, 0
121, 0, 0, 0
122, 0, 0, 0
123, 0, 0, 0
124, 0, 0, 0
125, 0, 0, 0
126, 0, 0, 0
127, 0, 0, 0
128, 0, 0, 0
129, 0, 0, 0
130, 0, 0, 0
131, 0, 0, 0
132, 0, 0, 0
133, 0, 0, 0
134, 0, 0, 0
135, 0, 0, 0
136, 0, 0, 0
137, 0, 0, 0
138, 0, 0, 0
139, 0, 0, 0
140, 0, 0, 0
141, 0, 0, 0
142, 0, 0, 0
143, 0, 0, 0
144, 0, 0, 0
145, 0, 0, 0
146, 0, 0, 0
147, 0, 0, 0
148, 0, 0, 0
149, 0, 0, 0
150, 0, 0, 0
151, 0, 0, 0
152, 0, 0, 0
153, 0, 0, 0
154, 0, 0, 0
155, 0, 0, 0
156, 0, 0, 0
157, 0, 0, 0
158, 0, 0, 0
159, 0, 0, 0
160, 0, 0, 0
161, 0, 0, 0
162, 0, 0, 0
163, 0, 0, 0
164, 0, 0, 0
165, 0, 0, 0
166, 0, 0, 0
167, 0, 0, 0
168, 0, 0, 0
169, 0, 0, 0
170, 0, 0, 0
171, 0, 0, 0
172, 0, 0, 0
173, 0, 0, 0
174, 0, 0, 0
175, 0, 0, 0
176, 0, 0, 0
177, 0, 0, 0
178, 0, 0, 0
179, 0, 0, 0
