# TOPAS Version: 3.3.p1
# Parameter File: Simple_Pattern.txt
# Results for scorer MLIC_Scorer
# Scored in component: MLIC
# X in 180 bins of 0.222222 cm
# Y in 1 bin  of 10 cm
# Z in 1 bin  of 10 cm
# EnergyDeposit ( MeV ) : Sum   
0, 0, 0, 129.4190826416016
1, 0, 0, 132.6476745605469
2, 0, 0, 128.7817230224609
3, 0, 0, 129.4725952148438
4, 0, 0, 133.2886199951172
5, 0, 0, 133.0677795410156
6, 0, 0, 132.1083526611328
7, 0, 0, 134.2488403320312
8, 0, 0, 134.9484252929688
9, 0, 0, 130.6092224121094
10, 0, 0, 135.6156616210938
11, 0, 0, 135.7924957275391
12, 0, 0, 135.1287078857422
13, 0, 0, 133.1454315185547
14, 0, 0, 136.4228057861328
15, 0, 0, 134.3760833740234
16, 0, 0, 139.0535125732422
17, 0, 0, 140.7866821289062
18, 0, 0, 139.8717651367188
19, 0, 0, 143.4882049560547
20, 0, 0, 141.6160583496094
21, 0, 0, 141.8543548583984
22, 0, 0, 140.6119232177734
23, 0, 0, 143.1605224609375
24, 0, 0, 144.2058868408203
25, 0, 0, 140.4324645996094
26, 0, 0, 144.1235046386719
27, 0, 0, 145.8478393554688
28, 0, 0, 148.9177856445312
29, 0, 0, 148.5245361328125
30, 0, 0, 150.8454437255859
31, 0, 0, 150.7587738037109
32, 0, 0, 151.9232330322266
33, 0, 0, 150.8282928466797
34, 0, 0, 156.29052734375
35, 0, 0, 155.5261688232422
36, 0, 0, 156.4720001220703
37, 0, 0, 158.5801849365234
38, 0, 0, 158.3510437011719
39, 0, 0, 159.8868408203125
40, 0, 0, 159.3586120605469
41, 0, 0, 160.6960906982422
42, 0, 0, 163.3448333740234
43, 0, 0, 166.7544708251953
44, 0, 0, 164.8083190917969
45, 0, 0, 167.1820526123047
46, 0, 0, 167.7296752929688
47, 0, 0, 168.2917633056641
48, 0, 0, 172.4561614990234
49, 0, 0, 173.6909332275391
50, 0, 0, 174.6505279541016
51, 0, 0, 175.6424560546875
52, 0, 0, 176.4074096679688
53, 0, 0, 180.9192657470703
54, 0, 0, 182.7324371337891
55, 0, 0, 182.0771942138672
56, 0, 0, 185.2581329345703
57, 0, 0, 187.2035064697266
58, 0, 0, 191.1162109375
59, 0, 0, 191.947509765625
60, 0, 0, 196.9167175292969
61, 0, 0, 198.0158843994141
62, 0, 0, 199.5479888916016
63, 0, 0, 205.9761199951172
64, 0, 0, 207.5948486328125
65, 0, 0, 210.8186950683594
66, 0, 0, 213.2808990478516
67, 0, 0, 218.0758056640625
68, 0, 0, 220.2188568115234
69, 0, 0, 223.9946746826172
70, 0, 0, 228.0976104736328
71, 0, 0, 234.0224609375
72, 0, 0, 237.0929565429688
73, 0, 0, 240.0228729248047
74, 0, 0, 248.5239715576172
75, 0, 0, 255.0265197753906
76, 0, 0, 260.7866821289062
77, 0, 0, 268.3593444824219
78, 0, 0, 278.4134216308594
79, 0, 0, 282.2655334472656
80, 0, 0, 291.3788452148438
81, 0, 0, 302.9270935058594
82, 0, 0, 313.6614990234375
83, 0, 0, 330.0756530761719
84, 0, 0, 346.9231567382812
85, 0, 0, 364.9397888183594
86, 0, 0, 392.3331604003906
87, 0, 0, 426.3030395507812
88, 0, 0, 468.5993957519531
89, 0, 0, 542.3970336914062
90, 0, 0, 628.6063232421875
91, 0, 0, 725.1834716796875
92, 0, 0, 714.46630859375
93, 0, 0, 542.362060546875
94, 0, 0, 303.6639404296875
95, 0, 0, 92.61813354492188
96, 0, 0, 16.57401847839355
97, 0, 0, 0
98, 0, 0, 0
99, 0, 0, 0
100, 0, 0, 0
101, 0, 0, 0
102, 0, 0, 0
103, 0, 0, 0
104, 0, 0, 0
105, 0, 0, 0
106, 0, 0, 0
107, 0, 0, 0
108, 0, 0, 0
109, 0, 0, 0
110, 0, 0, 0
111, 0, 0, 0
112, 0, 0, 0
113, 0, 0, 0
114, 0, 0, 0
115, 0, 0, 0
116, 0, 0, 0
117, 0, 0, 0
118, 0, 0, 0
119, 0, 0, 0
120, 0, 0, 0
121, 0, 0, 0
122, 0, 0, 0
123, 0, 0, 0
124, 0, 0, 0
125, 0, 0, 0
126, 0, 0, 0
127, 0, 0, 0
128, 0, 0, 0
129, 0, 0, 0
130, 0, 0, 0
131, 0, 0, 0
132, 0, 0, 0
133, 0, 0, 0
134, 0, 0, 0
135, 0, 0, 0
136, 0, 0, 0
137, 0, 0, 0
138, 0, 0, 0
139, 0, 0, 0
140, 0, 0, 0
141, 0, 0, 0
142, 0, 0, 0
143, 0, 0, 0
144, 0, 0, 0
145, 0, 0, 0
146, 0, 0, 0
147, 0, 0, 0
148, 0, 0, 0
149, 0, 0, 0
150, 0, 0, 0
151, 0, 0, 0
152, 0, 0, 0
153, 0, 0, 0
154, 0, 0, 0
155, 0, 0, 0
156, 0, 0, 0
157, 0, 0, 0
158, 0, 0, 0
159, 0, 0, 0
160, 0, 0, 0
161, 0, 0, 0
162, 0, 0, 0
163, 0, 0, 0
164, 0, 0, 0
165, 0, 0, 0
166, 0, 0, 0
167, 0, 0, 0
168, 0, 0, 0
169, 0, 0, 0
170, 0, 0, 0
171, 0, 0, 0
172, 0, 0, 0
173, 0, 0, 0
174, 0, 0, 0
175, 0, 0, 0
176, 0, 0, 0
177, 0, 0, 0
178, 0, 0, 0
179, 0, 0, 0
