# TOPAS Version: 3.3.p1
# Parameter File: Simple_Pattern.txt
# Results for scorer MLIC_Scorer
# Scored in component: MLIC
# X in 180 bins of 0.222222 cm
# Y in 1 bin  of 10 cm
# Z in 1 bin  of 10 cm
# EnergyDeposit ( MeV ) : Sum   
0, 0, 0, 47.65725708007812
1, 0, 0, 48.69899749755859
2, 0, 0, 47.67088317871094
3, 0, 0, 49.72085952758789
4, 0, 0, 48.25715637207031
5, 0, 0, 47.82480621337891
6, 0, 0, 49.8746452331543
7, 0, 0, 49.43915939331055
8, 0, 0, 47.62457656860352
9, 0, 0, 50.12534332275391
10, 0, 0, 50.34075164794922
11, 0, 0, 49.0765495300293
12, 0, 0, 50.17015838623047
13, 0, 0, 49.83262252807617
14, 0, 0, 51.59995651245117
15, 0, 0, 50.60338973999023
16, 0, 0, 50.86464309692383
17, 0, 0, 51.2935791015625
18, 0, 0, 52.03939437866211
19, 0, 0, 51.11141204833984
20, 0, 0, 54.0357551574707
21, 0, 0, 52.64913177490234
22, 0, 0, 53.83912658691406
23, 0, 0, 52.97950744628906
24, 0, 0, 54.62307357788086
25, 0, 0, 53.79369735717773
26, 0, 0, 55.14928817749023
27, 0, 0, 54.57230758666992
28, 0, 0, 52.68605422973633
29, 0, 0, 55.36976623535156
30, 0, 0, 55.36734390258789
31, 0, 0, 56.41922378540039
32, 0, 0, 55.96421432495117
33, 0, 0, 58.43204498291016
34, 0, 0, 56.32230377197266
35, 0, 0, 57.17375946044922
36, 0, 0, 56.27332305908203
37, 0, 0, 58.58670425415039
38, 0, 0, 59.51984405517578
39, 0, 0, 60.00011444091797
40, 0, 0, 60.90746307373047
41, 0, 0, 60.15380477905273
42, 0, 0, 60.36554718017578
43, 0, 0, 63.48196411132812
44, 0, 0, 61.5676383972168
45, 0, 0, 63.22394561767578
46, 0, 0, 63.03534317016602
47, 0, 0, 64.37961578369141
48, 0, 0, 62.48752593994141
49, 0, 0, 64.79444885253906
50, 0, 0, 63.86476516723633
51, 0, 0, 67.79137420654297
52, 0, 0, 67.319091796875
53, 0, 0, 67.13351440429688
54, 0, 0, 68.571044921875
55, 0, 0, 68.61637878417969
56, 0, 0, 69.40765380859375
57, 0, 0, 69.6329345703125
58, 0, 0, 70.98462677001953
59, 0, 0, 72.78762054443359
60, 0, 0, 73.08349609375
61, 0, 0, 76.14715576171875
62, 0, 0, 75.72265625
63, 0, 0, 76.65436553955078
64, 0, 0, 77.99304962158203
65, 0, 0, 78.12282562255859
66, 0, 0, 79.0216064453125
67, 0, 0, 79.53662109375
68, 0, 0, 81.96940612792969
69, 0, 0, 86.28134918212891
70, 0, 0, 84.23162841796875
71, 0, 0, 87.63777160644531
72, 0, 0, 89.17657470703125
73, 0, 0, 91.53424835205078
74, 0, 0, 92.24909973144531
75, 0, 0, 93.85869598388672
76, 0, 0, 96.19455718994141
77, 0, 0, 100.4443740844727
78, 0, 0, 102.558235168457
79, 0, 0, 106.7068710327148
80, 0, 0, 110.5651931762695
81, 0, 0, 113.5476837158203
82, 0, 0, 120.733757019043
83, 0, 0, 124.2555389404297
84, 0, 0, 130.1002807617188
85, 0, 0, 138.7623901367188
86, 0, 0, 147.2615814208984
87, 0, 0, 159.4690399169922
88, 0, 0, 175.0194854736328
89, 0, 0, 200.4474029541016
90, 0, 0, 243.7434539794922
91, 0, 0, 296.3163146972656
92, 0, 0, 286.8630676269531
93, 0, 0, 217.5625762939453
94, 0, 0, 65.32599639892578
95, 0, 0, 26.69494819641113
96, 0, 0, 0
97, 0, 0, 0
98, 0, 0, 0
99, 0, 0, 0
100, 0, 0, 0
101, 0, 0, 0
102, 0, 0, 0
103, 0, 0, 0
104, 0, 0, 0
105, 0, 0, 0
106, 0, 0, 0
107, 0, 0, 0
108, 0, 0, 0
109, 0, 0, 0
110, 0, 0, 0
111, 0, 0, 0
112, 0, 0, 0
113, 0, 0, 0
114, 0, 0, 0
115, 0, 0, 0
116, 0, 0, 0
117, 0, 0, 0
118, 0, 0, 0
119, 0, 0, 0
120, 0, 0, 0
121, 0, 0, 0
122, 0, 0, 0
123, 0, 0, 0
124, 0, 0, 0
125, 0, 0, 0
126, 0, 0, 0
127, 0, 0, 0
128, 0, 0, 0
129, 0, 0, 0
130, 0, 0, 0
131, 0, 0, 0
132, 0, 0, 0
133, 0, 0, 0
134, 0, 0, 0
135, 0, 0, 0
136, 0, 0, 0
137, 0, 0, 0
138, 0, 0, 0
139, 0, 0, 0
140, 0, 0, 0
141, 0, 0, 0
142, 0, 0, 0
143, 0, 0, 0
144, 0, 0, 0
145, 0, 0, 0
146, 0, 0, 0
147, 0, 0, 0
148, 0, 0, 0
149, 0, 0, 0
150, 0, 0, 0
151, 0, 0, 0
152, 0, 0, 0
153, 0, 0, 0
154, 0, 0, 0
155, 0, 0, 0
156, 0, 0, 0
157, 0, 0, 0
158, 0, 0, 0
159, 0, 0, 0
160, 0, 0, 0
161, 0, 0, 0
162, 0, 0, 0
163, 0, 0, 0
164, 0, 0, 0
165, 0, 0, 0
166, 0, 0, 0
167, 0, 0, 0
168, 0, 0, 0
169, 0, 0, 0
170, 0, 0, 0
171, 0, 0, 0
172, 0, 0, 0
173, 0, 0, 0
174, 0, 0, 0
175, 0, 0, 0
176, 0, 0, 0
177, 0, 0, 0
178, 0, 0, 0
179, 0, 0, 0
