# TOPAS Version: 3.3.p1
# Parameter File: Simple_Pattern.txt
# Results for scorer MLIC_Scorer
# Scored in component: MLIC
# X in 180 bins of 0.222222 cm
# Y in 1 bin  of 10 cm
# Z in 1 bin  of 10 cm
# EnergyDeposit ( MeV ) : Sum   
0, 0, 0, 1087.493041992188
1, 0, 0, 1099.83349609375
2, 0, 0, 1097.773071289062
3, 0, 0, 1101.110107421875
4, 0, 0, 1108.731323242188
5, 0, 0, 1115.917114257812
6, 0, 0, 1123.304809570312
7, 0, 0, 1128.666870117188
8, 0, 0, 1122.136474609375
9, 0, 0, 1130.129516601562
10, 0, 0, 1134.57373046875
11, 0, 0, 1136.470458984375
12, 0, 0, 1144.026245117188
13, 0, 0, 1154.441528320312
14, 0, 0, 1167.043823242188
15, 0, 0, 1176.536254882812
16, 0, 0, 1165.949829101562
17, 0, 0, 1179.035034179688
18, 0, 0, 1184.5771484375
19, 0, 0, 1196.670532226562
20, 0, 0, 1199.658081054688
21, 0, 0, 1206.430297851562
22, 0, 0, 1204.828735351562
23, 0, 0, 1212.878173828125
24, 0, 0, 1222.231689453125
25, 0, 0, 1240.6845703125
26, 0, 0, 1234.088134765625
27, 0, 0, 1240.4140625
28, 0, 0, 1247.496704101562
29, 0, 0, 1262.241577148438
30, 0, 0, 1267.209716796875
31, 0, 0, 1270.591064453125
32, 0, 0, 1291.953735351562
33, 0, 0, 1293.315673828125
34, 0, 0, 1308.832763671875
35, 0, 0, 1315.197265625
36, 0, 0, 1320.216430664062
37, 0, 0, 1319.2890625
38, 0, 0, 1341.161010742188
39, 0, 0, 1348.517700195312
40, 0, 0, 1354.601806640625
41, 0, 0, 1374.744384765625
42, 0, 0, 1388.736572265625
43, 0, 0, 1384.637084960938
44, 0, 0, 1408.265747070312
45, 0, 0, 1418.542236328125
46, 0, 0, 1434.4404296875
47, 0, 0, 1446.441162109375
48, 0, 0, 1456.987915039062
49, 0, 0, 1479.58203125
50, 0, 0, 1484.071411132812
51, 0, 0, 1498.819213867188
52, 0, 0, 1518.53564453125
53, 0, 0, 1533.313232421875
54, 0, 0, 1550.058837890625
55, 0, 0, 1574.093017578125
56, 0, 0, 1589.0234375
57, 0, 0, 1601.835815429688
58, 0, 0, 1625.680908203125
59, 0, 0, 1635.83447265625
60, 0, 0, 1667.549682617188
61, 0, 0, 1684.448608398438
62, 0, 0, 1710.817138671875
63, 0, 0, 1726.7509765625
64, 0, 0, 1751.996459960938
65, 0, 0, 1787.974731445312
66, 0, 0, 1806.151489257812
67, 0, 0, 1839.119262695312
68, 0, 0, 1874.897583007812
69, 0, 0, 1899.047119140625
70, 0, 0, 1937.7177734375
71, 0, 0, 1981.287109375
72, 0, 0, 2017.276733398438
73, 0, 0, 2064.15625
74, 0, 0, 2117.267578125
75, 0, 0, 2160.021240234375
76, 0, 0, 2218.007080078125
77, 0, 0, 2280.7548828125
78, 0, 0, 2334.547119140625
79, 0, 0, 2427.373291015625
80, 0, 0, 2509.767333984375
81, 0, 0, 2602.9013671875
82, 0, 0, 2717.601318359375
83, 0, 0, 2837.8330078125
84, 0, 0, 2988.46435546875
85, 0, 0, 3174.84130859375
86, 0, 0, 3396.578857421875
87, 0, 0, 3696.3994140625
88, 0, 0, 4138.6298828125
89, 0, 0, 4697.13623046875
90, 0, 0, 5613.26416015625
91, 0, 0, 6331.4521484375
92, 0, 0, 5715.2060546875
93, 0, 0, 4078.14990234375
94, 0, 0, 2033.111328125
95, 0, 0, 675.8597412109375
96, 0, 0, 153.4912414550781
97, 0, 0, 31.76947784423828
98, 0, 0, 4.953891277313232
99, 0, 0, 0
100, 0, 0, 0.001433434896171093
101, 0, 0, 0
102, 0, 0, 0
103, 0, 0, 0
104, 0, 0, 0.008581348694860935
105, 0, 0, 0
106, 0, 0, 0
107, 0, 0, 0
108, 0, 0, 0
109, 0, 0, 0
110, 0, 0, 0
111, 0, 0, 0
112, 0, 0, 0.0001799297024263069
113, 0, 0, 0.001292184228077531
114, 0, 0, 0.02902786061167717
115, 0, 0, 0
116, 0, 0, 0
117, 0, 0, 0
118, 0, 0, 0
119, 0, 0, 0
120, 0, 0, 0
121, 0, 0, 0
122, 0, 0, 0
123, 0, 0, 0
124, 0, 0, 0
125, 0, 0, 0
126, 0, 0, 0
127, 0, 0, 0
128, 0, 0, 0
129, 0, 0, 0
130, 0, 0, 0
131, 0, 0, 0
132, 0, 0, 0
133, 0, 0, 0
134, 0, 0, 0
135, 0, 0, 0
136, 0, 0, 0
137, 0, 0, 0
138, 0, 0, 0
139, 0, 0, 0
140, 0, 0, 0
141, 0, 0, 0
142, 0, 0, 0
143, 0, 0, 0
144, 0, 0, 0
145, 0, 0, 0
146, 0, 0, 0
147, 0, 0, 0
148, 0, 0, 0
149, 0, 0, 0
150, 0, 0, 0
151, 0, 0, 0
152, 0, 0, 0
153, 0, 0, 0
154, 0, 0, 0
155, 0, 0, 0
156, 0, 0, 0
157, 0, 0, 0
158, 0, 0, 0
159, 0, 0, 0
160, 0, 0, 0
161, 0, 0, 0
162, 0, 0, 0
163, 0, 0, 0
164, 0, 0, 0
165, 0, 0, 0
166, 0, 0, 0
167, 0, 0, 0
168, 0, 0, 0
169, 0, 0, 0
170, 0, 0, 0
171, 0, 0, 0
172, 0, 0, 0
173, 0, 0, 0
174, 0, 0, 0
175, 0, 0, 0
176, 0, 0, 0
177, 0, 0, 0
178, 0, 0, 0
179, 0, 0, 0
