# TOPAS Version: 3.3.p1
# Parameter File: Simple_Pattern.txt
# Results for scorer MLIC_Scorer
# Scored in component: MLIC
# X in 180 bins of 0.222222 cm
# Y in 1 bin  of 10 cm
# Z in 1 bin  of 10 cm
# EnergyDeposit ( MeV ) : Sum   
0, 0, 0, 1076.243774414062
1, 0, 0, 1081.937622070312
2, 0, 0, 1089.414794921875
3, 0, 0, 1094.827392578125
4, 0, 0, 1097.1962890625
5, 0, 0, 1103.40283203125
6, 0, 0, 1116.669799804688
7, 0, 0, 1111.732177734375
8, 0, 0, 1121.764038085938
9, 0, 0, 1127.608642578125
10, 0, 0, 1124.20361328125
11, 0, 0, 1132.806518554688
12, 0, 0, 1138.539672851562
13, 0, 0, 1142.364990234375
14, 0, 0, 1150.741577148438
15, 0, 0, 1156.567504882812
16, 0, 0, 1156.253295898438
17, 0, 0, 1170.462036132812
18, 0, 0, 1167.437866210938
19, 0, 0, 1165.14501953125
20, 0, 0, 1179.005859375
21, 0, 0, 1173.932861328125
22, 0, 0, 1173.873413085938
23, 0, 0, 1181.924560546875
24, 0, 0, 1185.798828125
25, 0, 0, 1187.6953125
26, 0, 0, 1187.275756835938
27, 0, 0, 1193.620361328125
28, 0, 0, 1196.901489257812
29, 0, 0, 1201.731689453125
30, 0, 0, 1202.264770507812
31, 0, 0, 1210.669189453125
32, 0, 0, 1211.64013671875
33, 0, 0, 1215.7255859375
34, 0, 0, 1222.965576171875
35, 0, 0, 1229.070556640625
36, 0, 0, 1224.730102539062
37, 0, 0, 1232.695556640625
38, 0, 0, 1240.871337890625
39, 0, 0, 1234.503295898438
40, 0, 0, 1231.276123046875
41, 0, 0, 1245.079956054688
42, 0, 0, 1260.921875
43, 0, 0, 1261.107788085938
44, 0, 0, 1263.43994140625
45, 0, 0, 1269.997192382812
46, 0, 0, 1270.860107421875
47, 0, 0, 1275.842895507812
48, 0, 0, 1290.307006835938
49, 0, 0, 1293.105590820312
50, 0, 0, 1303.499633789062
51, 0, 0, 1303.736938476562
52, 0, 0, 1319.980102539062
53, 0, 0, 1332.427368164062
54, 0, 0, 1342.522827148438
55, 0, 0, 1347.973754882812
56, 0, 0, 1369.807373046875
57, 0, 0, 1379.781005859375
58, 0, 0, 1387.796508789062
59, 0, 0, 1403.226440429688
60, 0, 0, 1428.218994140625
61, 0, 0, 1440.091796875
62, 0, 0, 1446.884765625
63, 0, 0, 1470.017211914062
64, 0, 0, 1479.0078125
65, 0, 0, 1500.425170898438
66, 0, 0, 1516.496459960938
67, 0, 0, 1536.202026367188
68, 0, 0, 1557.768798828125
69, 0, 0, 1579.376708984375
70, 0, 0, 1612.031005859375
71, 0, 0, 1631.903442382812
72, 0, 0, 1652.569458007812
73, 0, 0, 1690.312866210938
74, 0, 0, 1712.24755859375
75, 0, 0, 1756.07470703125
76, 0, 0, 1795.924072265625
77, 0, 0, 1838.8583984375
78, 0, 0, 1883.762573242188
79, 0, 0, 1937.069091796875
80, 0, 0, 1991.707641601562
81, 0, 0, 2066.33984375
82, 0, 0, 2129.870849609375
83, 0, 0, 2229.970703125
84, 0, 0, 2334.628173828125
85, 0, 0, 2472.734130859375
86, 0, 0, 2626.62841796875
87, 0, 0, 2841.978759765625
88, 0, 0, 3139.477294921875
89, 0, 0, 3589.886962890625
90, 0, 0, 4189.4345703125
91, 0, 0, 4613.47900390625
92, 0, 0, 4467.88427734375
93, 0, 0, 3420.966796875
94, 0, 0, 1730.637573242188
95, 0, 0, 463.97998046875
96, 0, 0, 140.009521484375
97, 0, 0, 13.17446422576904
98, 0, 0, 0
99, 0, 0, 0.00730827683582902
100, 0, 0, 0.006344330497086048
101, 0, 0, 0.02023078501224518
102, 0, 0, 0.08078138530254364
103, 0, 0, 0
104, 0, 0, 0
105, 0, 0, 0
106, 0, 0, 0
107, 0, 0, 0.08920737355947495
108, 0, 0, 0
109, 0, 0, 0
110, 0, 0, 0.01047506276518106
111, 0, 0, 0
112, 0, 0, 0
113, 0, 0, 0.01402841135859489
114, 0, 0, 0
115, 0, 0, 0.007061339449137449
116, 0, 0, 0
117, 0, 0, 0
118, 0, 0, 0
119, 0, 0, 0
120, 0, 0, 0
121, 0, 0, 0
122, 0, 0, 0.1770812273025513
123, 0, 0, 0.08904003351926804
124, 0, 0, 0.03980600088834763
125, 0, 0, 0.04757989197969437
126, 0, 0, 0
127, 0, 0, 0
128, 0, 0, 0
129, 0, 0, 0
130, 0, 0, 0.07092899829149246
131, 0, 0, 0
132, 0, 0, 0
133, 0, 0, 0.0973377451300621
134, 0, 0, 0
135, 0, 0, 0
136, 0, 0, 0.01913918927311897
137, 0, 0, 0.01871015504002571
138, 0, 0, 0.01268002390861511
139, 0, 0, 0
140, 0, 0, 0
141, 0, 0, 0
142, 0, 0, 0
143, 0, 0, 0
144, 0, 0, 0
145, 0, 0, 0
146, 0, 0, 0.01545719150453806
147, 0, 0, 0
148, 0, 0, 0
149, 0, 0, 0.007579614873975515
150, 0, 0, 0.02524516545236111
151, 0, 0, 0
152, 0, 0, 0.0253168623894453
153, 0, 0, 0.2248761206865311
154, 0, 0, 0
155, 0, 0, 0.01174172852188349
156, 0, 0, 0
157, 0, 0, 0
158, 0, 0, 0
159, 0, 0, 0
160, 0, 0, 0
161, 0, 0, 0
162, 0, 0, 0
163, 0, 0, 0
164, 0, 0, 0
165, 0, 0, 0.1334352046251297
166, 0, 0, 0
167, 0, 0, 0.00658148992806673
168, 0, 0, 0
169, 0, 0, 0
170, 0, 0, 0
171, 0, 0, 0
172, 0, 0, 0
173, 0, 0, 0
174, 0, 0, 0
175, 0, 0, 0
176, 0, 0, 0.103723019361496
177, 0, 0, 0
178, 0, 0, 0
179, 0, 0, 0
