# TOPAS Version: 3.3.p1
# Parameter File: Simple_Pattern.txt
# Results for scorer MLIC_Scorer
# Scored in component: MLIC
# X in 165 bins of 0.2 cm
# Y in 1 bin  of 10 cm
# Z in 1 bin  of 10 cm
# EnergyDeposit ( MeV ) : Sum   
0, 0, 0, 960.7464599609375
1, 0, 0, 956.6920166015625
2, 0, 0, 969.635498046875
3, 0, 0, 972.67236328125
4, 0, 0, 973.5458374023438
5, 0, 0, 979.8543701171875
6, 0, 0, 980.5486450195312
7, 0, 0, 986.4521484375
8, 0, 0, 982.3294067382812
9, 0, 0, 990.58349609375
10, 0, 0, 999.1502685546875
11, 0, 0, 999.5269775390625
12, 0, 0, 1002.260620117188
13, 0, 0, 1007.842834472656
14, 0, 0, 1011.321838378906
15, 0, 0, 1018.453552246094
16, 0, 0, 1022.974182128906
17, 0, 0, 1029.727905273438
18, 0, 0, 1030.317626953125
19, 0, 0, 1033.802612304688
20, 0, 0, 1047.843994140625
21, 0, 0, 1039.885131835938
22, 0, 0, 1049.994140625
23, 0, 0, 1056.597045898438
24, 0, 0, 1056.931030273438
25, 0, 0, 1063.9814453125
26, 0, 0, 1066.944091796875
27, 0, 0, 1072.9609375
28, 0, 0, 1080.063842773438
29, 0, 0, 1088.322998046875
30, 0, 0, 1095.071899414062
31, 0, 0, 1091.275146484375
32, 0, 0, 1102.552368164062
33, 0, 0, 1108.822021484375
34, 0, 0, 1119.280517578125
35, 0, 0, 1123.573974609375
36, 0, 0, 1133.94091796875
37, 0, 0, 1129.989013671875
38, 0, 0, 1139.578491210938
39, 0, 0, 1154.233520507812
40, 0, 0, 1152.014526367188
41, 0, 0, 1170.302124023438
42, 0, 0, 1163.339721679688
43, 0, 0, 1166.620239257812
44, 0, 0, 1180.021484375
45, 0, 0, 1188.475708007812
46, 0, 0, 1201.418579101562
47, 0, 0, 1204.170654296875
48, 0, 0, 1215.244506835938
49, 0, 0, 1213.599365234375
50, 0, 0, 1230.058959960938
51, 0, 0, 1230.456665039062
52, 0, 0, 1245.855346679688
53, 0, 0, 1268.0810546875
54, 0, 0, 1266.08056640625
55, 0, 0, 1277.2578125
56, 0, 0, 1282.522705078125
57, 0, 0, 1303.386474609375
58, 0, 0, 1309.290649414062
59, 0, 0, 1322.869750976562
60, 0, 0, 1326.922485351562
61, 0, 0, 1344.469848632812
62, 0, 0, 1355.588256835938
63, 0, 0, 1372.726440429688
64, 0, 0, 1379.1923828125
65, 0, 0, 1397.870361328125
66, 0, 0, 1407.72802734375
67, 0, 0, 1425.563598632812
68, 0, 0, 1441.784545898438
69, 0, 0, 1460.748291015625
70, 0, 0, 1479.056762695312
71, 0, 0, 1492.649169921875
72, 0, 0, 1511.7490234375
73, 0, 0, 1525.46533203125
74, 0, 0, 1543.333618164062
75, 0, 0, 1563.299682617188
76, 0, 0, 1586.69091796875
77, 0, 0, 1613.37158203125
78, 0, 0, 1636.75537109375
79, 0, 0, 1665.144287109375
80, 0, 0, 1682.18896484375
81, 0, 0, 1721.8623046875
82, 0, 0, 1748.73583984375
83, 0, 0, 1794.313842773438
84, 0, 0, 1823.021240234375
85, 0, 0, 1865.843627929688
86, 0, 0, 1909.298461914062
87, 0, 0, 1948.130249023438
88, 0, 0, 2005.81982421875
89, 0, 0, 2061.333740234375
90, 0, 0, 2120.3212890625
91, 0, 0, 2197.387939453125
92, 0, 0, 2281.0048828125
93, 0, 0, 2382.407958984375
94, 0, 0, 2496.867431640625
95, 0, 0, 2635.842529296875
96, 0, 0, 2843.354736328125
97, 0, 0, 3139.142333984375
98, 0, 0, 3419.984375
99, 0, 0, 3624.444091796875
100, 0, 0, 3626.496826171875
101, 0, 0, 3187.318115234375
102, 0, 0, 2451.156982421875
103, 0, 0, 1945.524169921875
104, 0, 0, 1632.229370117188
105, 0, 0, 1563.048095703125
106, 0, 0, 1576.29541015625
107, 0, 0, 1635.368530273438
108, 0, 0, 1677.352661132812
109, 0, 0, 1830.185668945312
110, 0, 0, 1940.024536132812
111, 0, 0, 2177.771484375
112, 0, 0, 2557.560791015625
113, 0, 0, 2760.88232421875
114, 0, 0, 2628.195068359375
115, 0, 0, 2264.505126953125
116, 0, 0, 1510.438720703125
117, 0, 0, 724.3230590820312
118, 0, 0, 228.1382141113281
119, 0, 0, 62.36133575439453
120, 0, 0, 17.60101509094238
121, 0, 0, 0
122, 0, 0, 0
123, 0, 0, 0
124, 0, 0, 0
125, 0, 0, 0
126, 0, 0, 0
127, 0, 0, 0
128, 0, 0, 0
129, 0, 0, 0
130, 0, 0, 0
131, 0, 0, 0
132, 0, 0, 0
133, 0, 0, 0
134, 0, 0, 0
135, 0, 0, 0
136, 0, 0, 0
137, 0, 0, 0
138, 0, 0, 0
139, 0, 0, 0
140, 0, 0, 0
141, 0, 0, 0
142, 0, 0, 0
143, 0, 0, 0
144, 0, 0, 0
145, 0, 0, 0
146, 0, 0, 0
147, 0, 0, 0
148, 0, 0, 0
149, 0, 0, 0
150, 0, 0, 0
151, 0, 0, 0
152, 0, 0, 0
153, 0, 0, 0
154, 0, 0, 0
155, 0, 0, 0
156, 0, 0, 0
157, 0, 0, 0
158, 0, 0, 0
159, 0, 0, 0
160, 0, 0, 0
161, 0, 0, 0
162, 0, 0, 0
163, 0, 0, 0
164, 0, 0, 0
