# TOPAS Version: 3.3.p1
# Parameter File: Simple_Pattern.txt
# Results for scorer MLIC_Scorer
# Scored in component: MLIC
# X in 180 bins of 0.222222 cm
# Y in 1 bin  of 10 cm
# Z in 1 bin  of 10 cm
# EnergyDeposit ( MeV ) : Sum   
0, 0, 0, 1086.836059570312
1, 0, 0, 1082.991821289062
2, 0, 0, 1101.720947265625
3, 0, 0, 1100.331298828125
4, 0, 0, 1113.40869140625
5, 0, 0, 1102.803588867188
6, 0, 0, 1113.478515625
7, 0, 0, 1121.145141601562
8, 0, 0, 1125.135131835938
9, 0, 0, 1135.301025390625
10, 0, 0, 1133.3525390625
11, 0, 0, 1129.359375
12, 0, 0, 1143.718505859375
13, 0, 0, 1150.7451171875
14, 0, 0, 1156.805786132812
15, 0, 0, 1160.337280273438
16, 0, 0, 1162.050048828125
17, 0, 0, 1163.09423828125
18, 0, 0, 1186.5908203125
19, 0, 0, 1189.687622070312
20, 0, 0, 1197.0537109375
21, 0, 0, 1198.43896484375
22, 0, 0, 1211.759155273438
23, 0, 0, 1214.928466796875
24, 0, 0, 1223.923095703125
25, 0, 0, 1231.42822265625
26, 0, 0, 1238.7021484375
27, 0, 0, 1242.845092773438
28, 0, 0, 1253.882080078125
29, 0, 0, 1248.29833984375
30, 0, 0, 1270.970947265625
31, 0, 0, 1277.491943359375
32, 0, 0, 1290.061645507812
33, 0, 0, 1294.165405273438
34, 0, 0, 1300.2705078125
35, 0, 0, 1315.956176757812
36, 0, 0, 1317.882568359375
37, 0, 0, 1332.845703125
38, 0, 0, 1345.531616210938
39, 0, 0, 1339.891723632812
40, 0, 0, 1363.013916015625
41, 0, 0, 1366.93505859375
42, 0, 0, 1373.180908203125
43, 0, 0, 1392.47900390625
44, 0, 0, 1402.394287109375
45, 0, 0, 1419.991943359375
46, 0, 0, 1431.533935546875
47, 0, 0, 1438.244262695312
48, 0, 0, 1456.605224609375
49, 0, 0, 1471.93798828125
50, 0, 0, 1482.979125976562
51, 0, 0, 1498.812255859375
52, 0, 0, 1515.640991210938
53, 0, 0, 1521.732543945312
54, 0, 0, 1551.958862304688
55, 0, 0, 1559.289916992188
56, 0, 0, 1577.482055664062
57, 0, 0, 1600.900024414062
58, 0, 0, 1613.310913085938
59, 0, 0, 1641.12939453125
60, 0, 0, 1662.8798828125
61, 0, 0, 1679.727294921875
62, 0, 0, 1693.178955078125
63, 0, 0, 1729.630126953125
64, 0, 0, 1754.668334960938
65, 0, 0, 1769.83447265625
66, 0, 0, 1798.896606445312
67, 0, 0, 1826.682006835938
68, 0, 0, 1857.53173828125
69, 0, 0, 1888.458374023438
70, 0, 0, 1928.761352539062
71, 0, 0, 1966.568725585938
72, 0, 0, 2001.473999023438
73, 0, 0, 2046.962646484375
74, 0, 0, 2091.8623046875
75, 0, 0, 2150.246826171875
76, 0, 0, 2201.995849609375
77, 0, 0, 2270.611328125
78, 0, 0, 2328.858154296875
79, 0, 0, 2405.99365234375
80, 0, 0, 2492.144775390625
81, 0, 0, 2587.679931640625
82, 0, 0, 2679.550048828125
83, 0, 0, 2806.419189453125
84, 0, 0, 2956.50537109375
85, 0, 0, 3137.70849609375
86, 0, 0, 3355.228759765625
87, 0, 0, 3640.849853515625
88, 0, 0, 4037.548095703125
89, 0, 0, 4654.8564453125
90, 0, 0, 5467.61669921875
91, 0, 0, 6028.4755859375
92, 0, 0, 5982.3408203125
93, 0, 0, 4130.0947265625
94, 0, 0, 2137.83837890625
95, 0, 0, 730.0618286132812
96, 0, 0, 148.6073760986328
97, 0, 0, 22.62084007263184
98, 0, 0, 0
99, 0, 0, 0.001233650953508914
100, 0, 0, 0
101, 0, 0, 0
102, 0, 0, 0.01064618863165379
103, 0, 0, 0
104, 0, 0, 0
105, 0, 0, 0.0256786085665226
106, 0, 0, 0
107, 0, 0, 0
108, 0, 0, 0
109, 0, 0, 0
110, 0, 0, 0
111, 0, 0, 0
112, 0, 0, 0
113, 0, 0, 0
114, 0, 0, 0
115, 0, 0, 0.01566481404006481
116, 0, 0, 0.01164731662720442
117, 0, 0, 0
118, 0, 0, 0
119, 0, 0, 0
120, 0, 0, 0
121, 0, 0, 0
122, 0, 0, 0
123, 0, 0, 0
124, 0, 0, 0
125, 0, 0, 0
126, 0, 0, 0
127, 0, 0, 0
128, 0, 0, 0
129, 0, 0, 0
130, 0, 0, 0
131, 0, 0, 0
132, 0, 0, 0
133, 0, 0, 0
134, 0, 0, 0
135, 0, 0, 0
136, 0, 0, 0
137, 0, 0, 0
138, 0, 0, 0
139, 0, 0, 0
140, 0, 0, 0
141, 0, 0, 0
142, 0, 0, 0
143, 0, 0, 0
144, 0, 0, 0
145, 0, 0, 0
146, 0, 0, 0
147, 0, 0, 0
148, 0, 0, 0
149, 0, 0, 0
150, 0, 0, 0
151, 0, 0, 0
152, 0, 0, 0
153, 0, 0, 0
154, 0, 0, 0
155, 0, 0, 0
156, 0, 0, 0
157, 0, 0, 0
158, 0, 0, 0
159, 0, 0, 0
160, 0, 0, 0
161, 0, 0, 0
162, 0, 0, 0
163, 0, 0, 0
164, 0, 0, 0
165, 0, 0, 0
166, 0, 0, 0
167, 0, 0, 0
168, 0, 0, 0
169, 0, 0, 0
170, 0, 0, 0
171, 0, 0, 0
172, 0, 0, 0
173, 0, 0, 0
174, 0, 0, 0
175, 0, 0, 0
176, 0, 0, 0
177, 0, 0, 0
178, 0, 0, 0
179, 0, 0, 0
