# TOPAS Version: 3.3.p1
# Parameter File: Simple_Pattern.txt
# Results for scorer MLIC_Scorer
# Scored in component: MLIC
# X in 165 bins of 0.2 cm
# Y in 1 bin  of 10 cm
# Z in 1 bin  of 10 cm
# EnergyDeposit ( MeV ) : Sum   
0, 0, 0, 939.4909057617188
1, 0, 0, 933.66552734375
2, 0, 0, 942.2437133789062
3, 0, 0, 950.6392211914062
4, 0, 0, 943.904296875
5, 0, 0, 961.7060546875
6, 0, 0, 956.9483032226562
7, 0, 0, 952.1596069335938
8, 0, 0, 960.149169921875
9, 0, 0, 970.2685546875
10, 0, 0, 970.8948974609375
11, 0, 0, 979.59130859375
12, 0, 0, 977.6495361328125
13, 0, 0, 986.2528076171875
14, 0, 0, 991.7251586914062
15, 0, 0, 993.6942749023438
16, 0, 0, 995.2539672851562
17, 0, 0, 990.6920166015625
18, 0, 0, 998.8515014648438
19, 0, 0, 1003.170471191406
20, 0, 0, 1012.052917480469
21, 0, 0, 1021.254638671875
22, 0, 0, 1016.750671386719
23, 0, 0, 1023.826599121094
24, 0, 0, 1028.6181640625
25, 0, 0, 1026.28662109375
26, 0, 0, 1036.857299804688
27, 0, 0, 1039.254516601562
28, 0, 0, 1043.8291015625
29, 0, 0, 1043.701171875
30, 0, 0, 1052.870239257812
31, 0, 0, 1061.415161132812
32, 0, 0, 1058.916137695312
33, 0, 0, 1067.588745117188
34, 0, 0, 1079.125244140625
35, 0, 0, 1085.481079101562
36, 0, 0, 1081.301147460938
37, 0, 0, 1090.5673828125
38, 0, 0, 1087.075927734375
39, 0, 0, 1097.674560546875
40, 0, 0, 1117.1162109375
41, 0, 0, 1120.77685546875
42, 0, 0, 1116.767700195312
43, 0, 0, 1132.281127929688
44, 0, 0, 1140.872192382812
45, 0, 0, 1150.439208984375
46, 0, 0, 1143.145141601562
47, 0, 0, 1157.869384765625
48, 0, 0, 1160.315063476562
49, 0, 0, 1163.504516601562
50, 0, 0, 1172.805297851562
51, 0, 0, 1184.084838867188
52, 0, 0, 1195.296752929688
53, 0, 0, 1193.00634765625
54, 0, 0, 1192.149536132812
55, 0, 0, 1215.265747070312
56, 0, 0, 1221.208374023438
57, 0, 0, 1229.242919921875
58, 0, 0, 1236.98583984375
59, 0, 0, 1246.703125
60, 0, 0, 1259.102905273438
61, 0, 0, 1268.19140625
62, 0, 0, 1266.672119140625
63, 0, 0, 1287.0439453125
64, 0, 0, 1299.97265625
65, 0, 0, 1296.739868164062
66, 0, 0, 1311.427001953125
67, 0, 0, 1324.01513671875
68, 0, 0, 1336.93505859375
69, 0, 0, 1355.858520507812
70, 0, 0, 1368.697265625
71, 0, 0, 1379.139526367188
72, 0, 0, 1392.78125
73, 0, 0, 1402.81884765625
74, 0, 0, 1420.5732421875
75, 0, 0, 1427.209838867188
76, 0, 0, 1454.373657226562
77, 0, 0, 1470.2734375
78, 0, 0, 1480.294921875
79, 0, 0, 1499.024658203125
80, 0, 0, 1513.50341796875
81, 0, 0, 1537.318603515625
82, 0, 0, 1559.329223632812
83, 0, 0, 1573.564819335938
84, 0, 0, 1594.964477539062
85, 0, 0, 1618.899536132812
86, 0, 0, 1647.858032226562
87, 0, 0, 1664.413330078125
88, 0, 0, 1695.7392578125
89, 0, 0, 1720.427734375
90, 0, 0, 1757.544189453125
91, 0, 0, 1789.457763671875
92, 0, 0, 1819.953979492188
93, 0, 0, 1848.599853515625
94, 0, 0, 1890.296508789062
95, 0, 0, 1934.26416015625
96, 0, 0, 1974.140258789062
97, 0, 0, 2017.048583984375
98, 0, 0, 2081.875244140625
99, 0, 0, 2136.58349609375
100, 0, 0, 2191.1337890625
101, 0, 0, 2269.0556640625
102, 0, 0, 2332.139892578125
103, 0, 0, 2427.531982421875
104, 0, 0, 2529.217041015625
105, 0, 0, 2634.35986328125
106, 0, 0, 2774.8857421875
107, 0, 0, 2924.122314453125
108, 0, 0, 3132.15771484375
109, 0, 0, 3389.80859375
110, 0, 0, 3725.78466796875
111, 0, 0, 4306.13134765625
112, 0, 0, 4923.15478515625
113, 0, 0, 5531.1669921875
114, 0, 0, 5487.6015625
115, 0, 0, 4467.47021484375
116, 0, 0, 2629.86376953125
117, 0, 0, 1452.7802734375
118, 0, 0, 480.5654907226562
119, 0, 0, 102.0182647705078
120, 0, 0, 30.54074096679688
121, 0, 0, 0
122, 0, 0, 0
123, 0, 0, 0.002164296107366681
124, 0, 0, 0
125, 0, 0, 0
126, 0, 0, 0
127, 0, 0, 0
128, 0, 0, 0
129, 0, 0, 0
130, 0, 0, 0
131, 0, 0, 0
132, 0, 0, 0
133, 0, 0, 0
134, 0, 0, 0
135, 0, 0, 0
136, 0, 0, 0
137, 0, 0, 0
138, 0, 0, 0.004575627855956554
139, 0, 0, 0
140, 0, 0, 0
141, 0, 0, 0
142, 0, 0, 0
143, 0, 0, 0
144, 0, 0, 0
145, 0, 0, 0.04116817191243172
146, 0, 0, 0
147, 0, 0, 0
148, 0, 0, 0
149, 0, 0, 0
150, 0, 0, 0
151, 0, 0, 0
152, 0, 0, 0
153, 0, 0, 0
154, 0, 0, 0
155, 0, 0, 0
156, 0, 0, 0
157, 0, 0, 0
158, 0, 0, 0
159, 0, 0, 0
160, 0, 0, 0
161, 0, 0, 0
162, 0, 0, 0
163, 0, 0, 0
164, 0, 0, 0
