# TOPAS Version: 3.3.p1
# Parameter File: Simple_Pattern.txt
# Results for scorer MLIC_Scorer
# Scored in component: MLIC
# X in 180 bins of 0.222222 cm
# Y in 1 bin  of 10 cm
# Z in 1 bin  of 10 cm
# EnergyDeposit ( MeV ) : Sum   
0, 0, 0, 30.01338005065918
1, 0, 0, 31.82110023498535
2, 0, 0, 32.30663681030273
3, 0, 0, 30.18359565734863
4, 0, 0, 32.10758972167969
5, 0, 0, 31.58047866821289
6, 0, 0, 32.34646606445312
7, 0, 0, 33.01338195800781
8, 0, 0, 32.95478820800781
9, 0, 0, 33.98001861572266
10, 0, 0, 32.51403045654297
11, 0, 0, 32.09725189208984
12, 0, 0, 32.96443176269531
13, 0, 0, 33.06892395019531
14, 0, 0, 33.72943878173828
15, 0, 0, 33.79931259155273
16, 0, 0, 34.07311248779297
17, 0, 0, 33.56105422973633
18, 0, 0, 33.96805191040039
19, 0, 0, 35.98663330078125
20, 0, 0, 34.87197113037109
21, 0, 0, 34.42412567138672
22, 0, 0, 34.7752799987793
23, 0, 0, 34.93616485595703
24, 0, 0, 34.55442047119141
25, 0, 0, 34.01906204223633
26, 0, 0, 35.99269866943359
27, 0, 0, 36.17308044433594
28, 0, 0, 36.45955657958984
29, 0, 0, 37.24832153320312
30, 0, 0, 38.29188537597656
31, 0, 0, 36.38201904296875
32, 0, 0, 37.10691833496094
33, 0, 0, 37.60358047485352
34, 0, 0, 37.93190002441406
35, 0, 0, 37.59706497192383
36, 0, 0, 38.89069747924805
37, 0, 0, 39.15563201904297
38, 0, 0, 37.45964050292969
39, 0, 0, 39.70733642578125
40, 0, 0, 39.59037780761719
41, 0, 0, 38.92737579345703
42, 0, 0, 40.38637924194336
43, 0, 0, 41.14802551269531
44, 0, 0, 39.88364410400391
45, 0, 0, 39.78870391845703
46, 0, 0, 41.47556686401367
47, 0, 0, 41.2078742980957
48, 0, 0, 42.38852691650391
49, 0, 0, 41.55203628540039
50, 0, 0, 42.66621780395508
51, 0, 0, 43.03160095214844
52, 0, 0, 42.33037567138672
53, 0, 0, 44.68252182006836
54, 0, 0, 44.55424880981445
55, 0, 0, 44.18001556396484
56, 0, 0, 44.99031066894531
57, 0, 0, 47.08647155761719
58, 0, 0, 46.34334564208984
59, 0, 0, 48.19606018066406
60, 0, 0, 46.56280517578125
61, 0, 0, 46.37183380126953
62, 0, 0, 49.79750442504883
63, 0, 0, 50.11389541625977
64, 0, 0, 50.68459320068359
65, 0, 0, 50.76993560791016
66, 0, 0, 52.0269660949707
67, 0, 0, 54.02506256103516
68, 0, 0, 54.18813323974609
69, 0, 0, 54.28491973876953
70, 0, 0, 54.52758407592773
71, 0, 0, 56.551025390625
72, 0, 0, 57.20069122314453
73, 0, 0, 59.87987518310547
74, 0, 0, 60.62616348266602
75, 0, 0, 63.62817764282227
76, 0, 0, 63.61027526855469
77, 0, 0, 64.40545654296875
78, 0, 0, 68.55672454833984
79, 0, 0, 71.61300659179688
80, 0, 0, 70.92830657958984
81, 0, 0, 73.52962493896484
82, 0, 0, 77.51290130615234
83, 0, 0, 81.72080993652344
84, 0, 0, 85.24765014648438
85, 0, 0, 90.70101165771484
86, 0, 0, 96.23600769042969
87, 0, 0, 103.0648193359375
88, 0, 0, 113.7774124145508
89, 0, 0, 130.2673034667969
90, 0, 0, 162.8513336181641
91, 0, 0, 163.6387023925781
92, 0, 0, 153.9423980712891
93, 0, 0, 174.0670013427734
94, 0, 0, 112.6674270629883
95, 0, 0, 7.652480125427246
96, 0, 0, 0
97, 0, 0, 0
98, 0, 0, 0
99, 0, 0, 0
100, 0, 0, 0
101, 0, 0, 0
102, 0, 0, 0
103, 0, 0, 0
104, 0, 0, 0
105, 0, 0, 0
106, 0, 0, 0
107, 0, 0, 0
108, 0, 0, 0
109, 0, 0, 0
110, 0, 0, 0
111, 0, 0, 0
112, 0, 0, 0
113, 0, 0, 0
114, 0, 0, 0
115, 0, 0, 0
116, 0, 0, 0
117, 0, 0, 0
118, 0, 0, 0
119, 0, 0, 0
120, 0, 0, 0
121, 0, 0, 0
122, 0, 0, 0
123, 0, 0, 0
124, 0, 0, 0
125, 0, 0, 0
126, 0, 0, 0
127, 0, 0, 0
128, 0, 0, 0
129, 0, 0, 0
130, 0, 0, 0
131, 0, 0, 0
132, 0, 0, 0
133, 0, 0, 0
134, 0, 0, 0
135, 0, 0, 0
136, 0, 0, 0
137, 0, 0, 0
138, 0, 0, 0
139, 0, 0, 0
140, 0, 0, 0
141, 0, 0, 0
142, 0, 0, 0
143, 0, 0, 0
144, 0, 0, 0
145, 0, 0, 0
146, 0, 0, 0
147, 0, 0, 0
148, 0, 0, 0
149, 0, 0, 0
150, 0, 0, 0
151, 0, 0, 0
152, 0, 0, 0
153, 0, 0, 0
154, 0, 0, 0
155, 0, 0, 0
156, 0, 0, 0
157, 0, 0, 0
158, 0, 0, 0
159, 0, 0, 0
160, 0, 0, 0
161, 0, 0, 0
162, 0, 0, 0
163, 0, 0, 0
164, 0, 0, 0
165, 0, 0, 0
166, 0, 0, 0
167, 0, 0, 0
168, 0, 0, 0
169, 0, 0, 0
170, 0, 0, 0
171, 0, 0, 0
172, 0, 0, 0
173, 0, 0, 0
174, 0, 0, 0
175, 0, 0, 0
176, 0, 0, 0
177, 0, 0, 0
178, 0, 0, 0
179, 0, 0, 0
