# TOPAS Version: 3.3.p1
# Parameter File: Simple_Pattern.txt
# Results for scorer MLIC_Scorer
# Scored in component: MLIC
# X in 180 bins of 0.222222 cm
# Y in 1 bin  of 10 cm
# Z in 1 bin  of 10 cm
# EnergyDeposit ( MeV ) : Sum   
0, 0, 0, 97.71755981445312
1, 0, 0, 97.36562347412109
2, 0, 0, 99.83143615722656
3, 0, 0, 103.1476593017578
4, 0, 0, 100.5762252807617
5, 0, 0, 100.4119873046875
6, 0, 0, 101.4815979003906
7, 0, 0, 102.7155303955078
8, 0, 0, 102.6851119995117
9, 0, 0, 101.3354339599609
10, 0, 0, 104.5323486328125
11, 0, 0, 106.919792175293
12, 0, 0, 102.7399368286133
13, 0, 0, 102.3248519897461
14, 0, 0, 105.4711380004883
15, 0, 0, 105.5582122802734
16, 0, 0, 106.9822463989258
17, 0, 0, 108.2779998779297
18, 0, 0, 107.9360809326172
19, 0, 0, 107.0685729980469
20, 0, 0, 108.8519821166992
21, 0, 0, 108.3850860595703
22, 0, 0, 109.4977264404297
23, 0, 0, 107.6673202514648
24, 0, 0, 112.1557235717773
25, 0, 0, 111.278205871582
26, 0, 0, 114.3505935668945
27, 0, 0, 113.5727005004883
28, 0, 0, 114.4691390991211
29, 0, 0, 114.260856628418
30, 0, 0, 116.5736236572266
31, 0, 0, 118.53662109375
32, 0, 0, 114.4947814941406
33, 0, 0, 119.3211822509766
34, 0, 0, 115.6281280517578
35, 0, 0, 117.718391418457
36, 0, 0, 116.0627212524414
37, 0, 0, 116.8633422851562
38, 0, 0, 119.2981109619141
39, 0, 0, 115.8756103515625
40, 0, 0, 118.1273193359375
41, 0, 0, 117.9375457763672
42, 0, 0, 118.3338470458984
43, 0, 0, 119.8607025146484
44, 0, 0, 120.4109268188477
45, 0, 0, 120.3799514770508
46, 0, 0, 122.7342834472656
47, 0, 0, 124.2112350463867
48, 0, 0, 126.0574340820312
49, 0, 0, 124.3878784179688
50, 0, 0, 128.5792999267578
51, 0, 0, 125.7522125244141
52, 0, 0, 129.9755859375
53, 0, 0, 130.3153686523438
54, 0, 0, 133.0546264648438
55, 0, 0, 133.8932037353516
56, 0, 0, 135.1762084960938
57, 0, 0, 136.9777374267578
58, 0, 0, 133.5205688476562
59, 0, 0, 133.4030609130859
60, 0, 0, 134.2130889892578
61, 0, 0, 136.189453125
62, 0, 0, 135.16259765625
63, 0, 0, 138.2068634033203
64, 0, 0, 140.6636810302734
65, 0, 0, 145.0360412597656
66, 0, 0, 144.3136138916016
67, 0, 0, 146.8757934570312
68, 0, 0, 148.2117767333984
69, 0, 0, 146.9646759033203
70, 0, 0, 148.3622283935547
71, 0, 0, 149.8071899414062
72, 0, 0, 153.9470062255859
73, 0, 0, 155.7196502685547
74, 0, 0, 157.2425537109375
75, 0, 0, 161.1136322021484
76, 0, 0, 163.8001556396484
77, 0, 0, 167.3636322021484
78, 0, 0, 173.80322265625
79, 0, 0, 174.5119171142578
80, 0, 0, 181.5310668945312
81, 0, 0, 188.4979248046875
82, 0, 0, 196.9416656494141
83, 0, 0, 203.8441925048828
84, 0, 0, 215.9453277587891
85, 0, 0, 228.8919525146484
86, 0, 0, 245.7331695556641
87, 0, 0, 257.1055297851562
88, 0, 0, 289.536376953125
89, 0, 0, 346.1366577148438
90, 0, 0, 347.124267578125
91, 0, 0, 409.7234191894531
92, 0, 0, 395.6324462890625
93, 0, 0, 336.7872314453125
94, 0, 0, 160.1008605957031
95, 0, 0, 68.14251708984375
96, 0, 0, 15.33745765686035
97, 0, 0, 0
98, 0, 0, 0
99, 0, 0, 0
100, 0, 0, 0
101, 0, 0, 0
102, 0, 0, 0
103, 0, 0, 0
104, 0, 0, 0
105, 0, 0, 0
106, 0, 0, 0
107, 0, 0, 0
108, 0, 0, 0
109, 0, 0, 0
110, 0, 0, 0
111, 0, 0, 0
112, 0, 0, 0
113, 0, 0, 0
114, 0, 0, 0
115, 0, 0, 0
116, 0, 0, 0
117, 0, 0, 0
118, 0, 0, 0
119, 0, 0, 0
120, 0, 0, 0
121, 0, 0, 0
122, 0, 0, 0
123, 0, 0, 0
124, 0, 0, 0
125, 0, 0, 0
126, 0, 0, 0
127, 0, 0, 0
128, 0, 0, 0
129, 0, 0, 0
130, 0, 0, 0
131, 0, 0, 0
132, 0, 0, 0
133, 0, 0, 0
134, 0, 0, 0
135, 0, 0, 0
136, 0, 0, 0
137, 0, 0, 0
138, 0, 0, 0
139, 0, 0, 0
140, 0, 0, 0
141, 0, 0, 0
142, 0, 0, 0
143, 0, 0, 0
144, 0, 0, 0
145, 0, 0, 0
146, 0, 0, 0
147, 0, 0, 0.07578025013208389
148, 0, 0, 0
149, 0, 0, 0
150, 0, 0, 0
151, 0, 0, 0
152, 0, 0, 0
153, 0, 0, 0
154, 0, 0, 0
155, 0, 0, 0
156, 0, 0, 0
157, 0, 0, 0
158, 0, 0, 0
159, 0, 0, 0
160, 0, 0, 0
161, 0, 0, 0
162, 0, 0, 0
163, 0, 0, 0
164, 0, 0, 0
165, 0, 0, 0
166, 0, 0, 0
167, 0, 0, 0
168, 0, 0, 0
169, 0, 0, 0
170, 0, 0, 0
171, 0, 0, 0
172, 0, 0, 0
173, 0, 0, 0
174, 0, 0, 0
175, 0, 0, 0
176, 0, 0, 0.03873403370380402
177, 0, 0, 0
178, 0, 0, 0
179, 0, 0, 0
