# TOPAS Version: 3.3.p1
# Parameter File: Simple_Pattern.txt
# Results for scorer MLIC_Scorer
# Scored in component: MLIC
# X in 180 bins of 0.222222 cm
# Y in 1 bin  of 10 cm
# Z in 1 bin  of 10 cm
# EnergyDeposit ( MeV ) : Sum   
0, 0, 0, 53.47948455810547
1, 0, 0, 54.29239654541016
2, 0, 0, 55.16778945922852
3, 0, 0, 54.61729049682617
4, 0, 0, 53.85173797607422
5, 0, 0, 55.66849517822266
6, 0, 0, 54.57897186279297
7, 0, 0, 55.46537780761719
8, 0, 0, 55.38544464111328
9, 0, 0, 55.52715682983398
10, 0, 0, 58.19858551025391
11, 0, 0, 55.68128204345703
12, 0, 0, 57.03213882446289
13, 0, 0, 57.43171691894531
14, 0, 0, 57.47453689575195
15, 0, 0, 58.0025749206543
16, 0, 0, 58.78288650512695
17, 0, 0, 58.88157272338867
18, 0, 0, 58.70650482177734
19, 0, 0, 58.50981903076172
20, 0, 0, 59.22601318359375
21, 0, 0, 58.43153762817383
22, 0, 0, 60.80604934692383
23, 0, 0, 60.15195465087891
24, 0, 0, 62.00887298583984
25, 0, 0, 62.38233184814453
26, 0, 0, 61.03504943847656
27, 0, 0, 61.76738357543945
28, 0, 0, 63.37257766723633
29, 0, 0, 62.72581481933594
30, 0, 0, 62.90769577026367
31, 0, 0, 64.97759246826172
32, 0, 0, 64.94460296630859
33, 0, 0, 65.09326171875
34, 0, 0, 64.99868774414062
35, 0, 0, 66.79986572265625
36, 0, 0, 67.87918853759766
37, 0, 0, 69.30314636230469
38, 0, 0, 68.42694091796875
39, 0, 0, 67.58716583251953
40, 0, 0, 70.86334991455078
41, 0, 0, 69.83645629882812
42, 0, 0, 71.16271209716797
43, 0, 0, 71.58272552490234
44, 0, 0, 72.53010559082031
45, 0, 0, 74.99588775634766
46, 0, 0, 71.51771545410156
47, 0, 0, 75.77545928955078
48, 0, 0, 75.70048522949219
49, 0, 0, 76.57121276855469
50, 0, 0, 78.72028350830078
51, 0, 0, 80.75254821777344
52, 0, 0, 79.3192138671875
53, 0, 0, 79.79443359375
54, 0, 0, 82.41067504882812
55, 0, 0, 83.92896270751953
56, 0, 0, 84.91846466064453
57, 0, 0, 85.05216217041016
58, 0, 0, 86.80825042724609
59, 0, 0, 87.11983489990234
60, 0, 0, 92.61772155761719
61, 0, 0, 92.70182800292969
62, 0, 0, 93.18411254882812
63, 0, 0, 96.02497863769531
64, 0, 0, 99.52476501464844
65, 0, 0, 98.37990570068359
66, 0, 0, 103.2582855224609
67, 0, 0, 104.2677764892578
68, 0, 0, 110.2297592163086
69, 0, 0, 112.2707672119141
70, 0, 0, 115.7658386230469
71, 0, 0, 120.6332473754883
72, 0, 0, 126.6736373901367
73, 0, 0, 134.5240325927734
74, 0, 0, 142.6621704101562
75, 0, 0, 157.6009674072266
76, 0, 0, 162.9468994140625
77, 0, 0, 184.1641387939453
78, 0, 0, 216.2850036621094
79, 0, 0, 199.7888488769531
80, 0, 0, 176.2807312011719
81, 0, 0, 126.087776184082
82, 0, 0, 90.35389709472656
83, 0, 0, 71.99668121337891
84, 0, 0, 81.06502532958984
85, 0, 0, 82.85667419433594
86, 0, 0, 71.74296569824219
87, 0, 0, 77.08241271972656
88, 0, 0, 85.17034912109375
89, 0, 0, 96.86312866210938
90, 0, 0, 117.4413528442383
91, 0, 0, 174.3055877685547
92, 0, 0, 115.2601547241211
93, 0, 0, 84.52410888671875
94, 0, 0, 31.75722694396973
95, 0, 0, 0
96, 0, 0, 0
97, 0, 0, 0
98, 0, 0, 0
99, 0, 0, 0
100, 0, 0, 0
101, 0, 0, 0
102, 0, 0, 0
103, 0, 0, 0
104, 0, 0, 0
105, 0, 0, 0
106, 0, 0, 0
107, 0, 0, 0
108, 0, 0, 0
109, 0, 0, 0
110, 0, 0, 0
111, 0, 0, 0
112, 0, 0, 0
113, 0, 0, 0
114, 0, 0, 0
115, 0, 0, 0
116, 0, 0, 0
117, 0, 0, 0
118, 0, 0, 0
119, 0, 0, 0
120, 0, 0, 0
121, 0, 0, 0
122, 0, 0, 0
123, 0, 0, 0
124, 0, 0, 0
125, 0, 0, 0
126, 0, 0, 0
127, 0, 0, 0
128, 0, 0, 0
129, 0, 0, 0
130, 0, 0, 0
131, 0, 0, 0
132, 0, 0, 0
133, 0, 0, 0
134, 0, 0, 0
135, 0, 0, 0
136, 0, 0, 0
137, 0, 0, 0
138, 0, 0, 0
139, 0, 0, 0
140, 0, 0, 0
141, 0, 0, 0
142, 0, 0, 0
143, 0, 0, 0
144, 0, 0, 0
145, 0, 0, 0
146, 0, 0, 0
147, 0, 0, 0
148, 0, 0, 0
149, 0, 0, 0
150, 0, 0, 0
151, 0, 0, 0
152, 0, 0, 0
153, 0, 0, 0
154, 0, 0, 0
155, 0, 0, 0
156, 0, 0, 0
157, 0, 0, 0
158, 0, 0, 0
159, 0, 0, 0
160, 0, 0, 0
161, 0, 0, 0
162, 0, 0, 0
163, 0, 0, 0
164, 0, 0, 0
165, 0, 0, 0
166, 0, 0, 0
167, 0, 0, 0
168, 0, 0, 0
169, 0, 0, 0
170, 0, 0, 0
171, 0, 0, 0
172, 0, 0, 0
173, 0, 0, 0
174, 0, 0, 0
175, 0, 0, 0
176, 0, 0, 0
177, 0, 0, 0
178, 0, 0, 0
179, 0, 0, 0
