# TOPAS Version: 3.3.p1
# Parameter File: Simple_Pattern.txt
# Results for scorer MLIC_Scorer
# Scored in component: MLIC
# X in 180 bins of 0.222222 cm
# Y in 1 bin  of 10 cm
# Z in 1 bin  of 10 cm
# EnergyDeposit ( MeV ) : Sum   
0, 0, 0, 1089.843872070312
1, 0, 0, 1088.67822265625
2, 0, 0, 1093.966796875
3, 0, 0, 1097.9296875
4, 0, 0, 1110.43896484375
5, 0, 0, 1120.985473632812
6, 0, 0, 1122.501953125
7, 0, 0, 1115.066528320312
8, 0, 0, 1123.5078125
9, 0, 0, 1130.107421875
10, 0, 0, 1135.32958984375
11, 0, 0, 1141.29150390625
12, 0, 0, 1151.848266601562
13, 0, 0, 1156.339965820312
14, 0, 0, 1153.082641601562
15, 0, 0, 1161.474731445312
16, 0, 0, 1162.689331054688
17, 0, 0, 1171.848388671875
18, 0, 0, 1183.132080078125
19, 0, 0, 1191.5205078125
20, 0, 0, 1201.453979492188
21, 0, 0, 1204.456176757812
22, 0, 0, 1217.406005859375
23, 0, 0, 1219.944213867188
24, 0, 0, 1231.853637695312
25, 0, 0, 1237.7451171875
26, 0, 0, 1231.545654296875
27, 0, 0, 1246.418334960938
28, 0, 0, 1247.441284179688
29, 0, 0, 1254.444702148438
30, 0, 0, 1265.442993164062
31, 0, 0, 1271.474975585938
32, 0, 0, 1289.2890625
33, 0, 0, 1291.789916992188
34, 0, 0, 1303.673217773438
35, 0, 0, 1309.156005859375
36, 0, 0, 1315.395874023438
37, 0, 0, 1330.4931640625
38, 0, 0, 1343.420532226562
39, 0, 0, 1351.937133789062
40, 0, 0, 1363.42431640625
41, 0, 0, 1380.6875
42, 0, 0, 1388.1279296875
43, 0, 0, 1379.295288085938
44, 0, 0, 1405.526245117188
45, 0, 0, 1420.061645507812
46, 0, 0, 1434.08203125
47, 0, 0, 1437.584594726562
48, 0, 0, 1452.207275390625
49, 0, 0, 1464.888916015625
50, 0, 0, 1488.8310546875
51, 0, 0, 1506.021850585938
52, 0, 0, 1519.818359375
53, 0, 0, 1524.442626953125
54, 0, 0, 1554.045776367188
55, 0, 0, 1564.447631835938
56, 0, 0, 1582.438598632812
57, 0, 0, 1598.228759765625
58, 0, 0, 1613.939331054688
59, 0, 0, 1634.333984375
60, 0, 0, 1660.541625976562
61, 0, 0, 1680.457153320312
62, 0, 0, 1701.338989257812
63, 0, 0, 1725.783325195312
64, 0, 0, 1756.700805664062
65, 0, 0, 1778.0888671875
66, 0, 0, 1816.174072265625
67, 0, 0, 1847.452758789062
68, 0, 0, 1869.820922851562
69, 0, 0, 1907.181396484375
70, 0, 0, 1947.43701171875
71, 0, 0, 1971.951782226562
72, 0, 0, 2017.800170898438
73, 0, 0, 2064.418701171875
74, 0, 0, 2115.178955078125
75, 0, 0, 2165.986083984375
76, 0, 0, 2223.017822265625
77, 0, 0, 2282.0244140625
78, 0, 0, 2357.276123046875
79, 0, 0, 2423.794677734375
80, 0, 0, 2515.65283203125
81, 0, 0, 2612.704345703125
82, 0, 0, 2715.546875
83, 0, 0, 2845.4482421875
84, 0, 0, 2990.5068359375
85, 0, 0, 3174.62646484375
86, 0, 0, 3398.85546875
87, 0, 0, 3695.2353515625
88, 0, 0, 4098.8857421875
89, 0, 0, 4767.52392578125
90, 0, 0, 5456.837890625
91, 0, 0, 6148.97998046875
92, 0, 0, 5952.380859375
93, 0, 0, 4462.9609375
94, 0, 0, 2188.82958984375
95, 0, 0, 625.6121826171875
96, 0, 0, 114.070915222168
97, 0, 0, 37.1752815246582
98, 0, 0, 0
99, 0, 0, 0
100, 0, 0, 0
101, 0, 0, 0
102, 0, 0, 0
103, 0, 0, 0
104, 0, 0, 0
105, 0, 0, 0
106, 0, 0, 0
107, 0, 0, 0
108, 0, 0, 0
109, 0, 0, 0
110, 0, 0, 0.001563157886266708
111, 0, 0, 0
112, 0, 0, 0
113, 0, 0, 0
114, 0, 0, 0
115, 0, 0, 0
116, 0, 0, 0
117, 0, 0, 0
118, 0, 0, 0
119, 0, 0, 0
120, 0, 0, 0
121, 0, 0, 0
122, 0, 0, 0
123, 0, 0, 0
124, 0, 0, 0
125, 0, 0, 0
126, 0, 0, 0
127, 0, 0, 0
128, 0, 0, 0
129, 0, 0, 0
130, 0, 0, 0
131, 0, 0, 0
132, 0, 0, 0
133, 0, 0, 0
134, 0, 0, 0
135, 0, 0, 0
136, 0, 0, 0
137, 0, 0, 0
138, 0, 0, 0
139, 0, 0, 0
140, 0, 0, 0
141, 0, 0, 0
142, 0, 0, 0
143, 0, 0, 0
144, 0, 0, 0
145, 0, 0, 0
146, 0, 0, 0
147, 0, 0, 0
148, 0, 0, 0
149, 0, 0, 0
150, 0, 0, 0
151, 0, 0, 0
152, 0, 0, 0
153, 0, 0, 0
154, 0, 0, 0
155, 0, 0, 0
156, 0, 0, 0
157, 0, 0, 0
158, 0, 0, 0
159, 0, 0, 0
160, 0, 0, 0
161, 0, 0, 0
162, 0, 0, 0
163, 0, 0, 0
164, 0, 0, 0
165, 0, 0, 0
166, 0, 0, 0
167, 0, 0, 0
168, 0, 0, 0
169, 0, 0, 0
170, 0, 0, 0
171, 0, 0, 0
172, 0, 0, 0
173, 0, 0, 0
174, 0, 0, 0
175, 0, 0, 0
176, 0, 0, 0
177, 0, 0, 0
178, 0, 0, 0
179, 0, 0, 0
