# TOPAS Version: 3.3.p1
# Parameter File: Simple_Pattern.txt
# Results for scorer MLIC_Scorer
# Scored in component: MLIC
# X in 180 bins of 0.222222 cm
# Y in 1 bin  of 10 cm
# Z in 1 bin  of 10 cm
# EnergyDeposit ( MeV ) : Sum   
0, 0, 0, 23.53726959228516
1, 0, 0, 22.59525489807129
2, 0, 0, 22.77527809143066
3, 0, 0, 23.51277923583984
4, 0, 0, 23.50443649291992
5, 0, 0, 22.76075744628906
6, 0, 0, 24.14206123352051
7, 0, 0, 23.26620483398438
8, 0, 0, 24.25136566162109
9, 0, 0, 22.59931373596191
10, 0, 0, 23.92314720153809
11, 0, 0, 24.05111885070801
12, 0, 0, 24.84596824645996
13, 0, 0, 23.48500061035156
14, 0, 0, 24.36530494689941
15, 0, 0, 24.44768714904785
16, 0, 0, 23.64240455627441
17, 0, 0, 24.63907432556152
18, 0, 0, 26.09928321838379
19, 0, 0, 23.96979713439941
20, 0, 0, 25.89399337768555
21, 0, 0, 23.976318359375
22, 0, 0, 26.16248321533203
23, 0, 0, 25.56728744506836
24, 0, 0, 25.63751220703125
25, 0, 0, 26.01097297668457
26, 0, 0, 27.32133674621582
27, 0, 0, 26.57783889770508
28, 0, 0, 26.12900924682617
29, 0, 0, 26.46905899047852
30, 0, 0, 26.32562065124512
31, 0, 0, 27.60316467285156
32, 0, 0, 28.4221076965332
33, 0, 0, 27.33514785766602
34, 0, 0, 27.73591804504395
35, 0, 0, 27.17510414123535
36, 0, 0, 28.29440498352051
37, 0, 0, 27.86379814147949
38, 0, 0, 28.71223068237305
39, 0, 0, 27.44814872741699
40, 0, 0, 29.07861328125
41, 0, 0, 29.66649627685547
42, 0, 0, 29.55765724182129
43, 0, 0, 30.09143257141113
44, 0, 0, 29.67361068725586
45, 0, 0, 29.58648109436035
46, 0, 0, 30.88941192626953
47, 0, 0, 29.94149208068848
48, 0, 0, 31.08974456787109
49, 0, 0, 31.32937622070312
50, 0, 0, 30.99964141845703
51, 0, 0, 31.70749473571777
52, 0, 0, 32.18610000610352
53, 0, 0, 32.42847061157227
54, 0, 0, 32.47526931762695
55, 0, 0, 35.34563446044922
56, 0, 0, 33.93195343017578
57, 0, 0, 34.0089111328125
58, 0, 0, 34.91819000244141
59, 0, 0, 35.82985687255859
60, 0, 0, 35.34654998779297
61, 0, 0, 35.25444412231445
62, 0, 0, 36.40287017822266
63, 0, 0, 37.59360504150391
64, 0, 0, 36.29350280761719
65, 0, 0, 38.33737182617188
66, 0, 0, 39.50221633911133
67, 0, 0, 39.72238159179688
68, 0, 0, 39.72806930541992
69, 0, 0, 40.38540267944336
70, 0, 0, 41.80069351196289
71, 0, 0, 42.68440246582031
72, 0, 0, 42.6988639831543
73, 0, 0, 44.95190811157227
74, 0, 0, 45.90610122680664
75, 0, 0, 47.76599884033203
76, 0, 0, 48.5714225769043
77, 0, 0, 48.60009384155273
78, 0, 0, 50.30305099487305
79, 0, 0, 51.65961837768555
80, 0, 0, 53.49235534667969
81, 0, 0, 56.38232803344727
82, 0, 0, 59.03409576416016
83, 0, 0, 61.53561401367188
84, 0, 0, 65.76260375976562
85, 0, 0, 69.62477111816406
86, 0, 0, 75.15497589111328
87, 0, 0, 84.84492492675781
88, 0, 0, 96.06661987304688
89, 0, 0, 124.6350250244141
90, 0, 0, 124.9997940063477
91, 0, 0, 82.08712768554688
92, 0, 0, 102.3262634277344
93, 0, 0, 72.18296813964844
94, 0, 0, 41.83519744873047
95, 0, 0, 6.349627494812012
96, 0, 0, 0
97, 0, 0, 0
98, 0, 0, 0
99, 0, 0, 0
100, 0, 0, 0
101, 0, 0, 0
102, 0, 0, 0
103, 0, 0, 0
104, 0, 0, 0
105, 0, 0, 0
106, 0, 0, 0
107, 0, 0, 0
108, 0, 0, 0
109, 0, 0, 0
110, 0, 0, 0
111, 0, 0, 0
112, 0, 0, 0
113, 0, 0, 0
114, 0, 0, 0
115, 0, 0, 0
116, 0, 0, 0
117, 0, 0, 0
118, 0, 0, 0
119, 0, 0, 0
120, 0, 0, 0
121, 0, 0, 0
122, 0, 0, 0
123, 0, 0, 0
124, 0, 0, 0
125, 0, 0, 0
126, 0, 0, 0
127, 0, 0, 0
128, 0, 0, 0
129, 0, 0, 0
130, 0, 0, 0
131, 0, 0, 0
132, 0, 0, 0
133, 0, 0, 0
134, 0, 0, 0
135, 0, 0, 0
136, 0, 0, 0
137, 0, 0, 0
138, 0, 0, 0
139, 0, 0, 0
140, 0, 0, 0
141, 0, 0, 0
142, 0, 0, 0
143, 0, 0, 0
144, 0, 0, 0
145, 0, 0, 0
146, 0, 0, 0
147, 0, 0, 0
148, 0, 0, 0
149, 0, 0, 0
150, 0, 0, 0
151, 0, 0, 0
152, 0, 0, 0
153, 0, 0, 0
154, 0, 0, 0
155, 0, 0, 0
156, 0, 0, 0
157, 0, 0, 0
158, 0, 0, 0
159, 0, 0, 0
160, 0, 0, 0
161, 0, 0, 0
162, 0, 0, 0
163, 0, 0, 0
164, 0, 0, 0
165, 0, 0, 0
166, 0, 0, 0
167, 0, 0, 0
168, 0, 0, 0
169, 0, 0, 0
170, 0, 0, 0
171, 0, 0, 0
172, 0, 0, 0
173, 0, 0, 0
174, 0, 0, 0
175, 0, 0, 0
176, 0, 0, 0
177, 0, 0, 0
178, 0, 0, 0
179, 0, 0, 0
