# TOPAS Version: 3.3.p1
# Parameter File: Simple_Pattern.txt
# Results for scorer MLIC_Scorer
# Scored in component: MLIC
# X in 180 bins of 0.222222 cm
# Y in 1 bin  of 10 cm
# Z in 1 bin  of 10 cm
# EnergyDeposit ( MeV ) : Sum   
0, 0, 0, 1088.190063476562
1, 0, 0, 1100.240478515625
2, 0, 0, 1088.734252929688
3, 0, 0, 1106.424072265625
4, 0, 0, 1107.605834960938
5, 0, 0, 1113.164428710938
6, 0, 0, 1116.186645507812
7, 0, 0, 1126.678100585938
8, 0, 0, 1124.9921875
9, 0, 0, 1137.039306640625
10, 0, 0, 1137.668701171875
11, 0, 0, 1135.017822265625
12, 0, 0, 1146.142333984375
13, 0, 0, 1151.122192382812
14, 0, 0, 1155.171875
15, 0, 0, 1157.33740234375
16, 0, 0, 1169.797485351562
17, 0, 0, 1180.888549804688
18, 0, 0, 1170.995727539062
19, 0, 0, 1184.531127929688
20, 0, 0, 1189.687377929688
21, 0, 0, 1208.07177734375
22, 0, 0, 1209.022216796875
23, 0, 0, 1211.354370117188
24, 0, 0, 1219.6220703125
25, 0, 0, 1228.140380859375
26, 0, 0, 1231.639282226562
27, 0, 0, 1252.359008789062
28, 0, 0, 1247.356567382812
29, 0, 0, 1259.086181640625
30, 0, 0, 1272.510864257812
31, 0, 0, 1262.424194335938
32, 0, 0, 1280.9296875
33, 0, 0, 1293.38037109375
34, 0, 0, 1303.492309570312
35, 0, 0, 1311.072509765625
36, 0, 0, 1317.259521484375
37, 0, 0, 1316.685546875
38, 0, 0, 1332.519653320312
39, 0, 0, 1341.059448242188
40, 0, 0, 1354.279296875
41, 0, 0, 1380.909301757812
42, 0, 0, 1374.786010742188
43, 0, 0, 1386.694458007812
44, 0, 0, 1395.099365234375
45, 0, 0, 1413.137573242188
46, 0, 0, 1435.455688476562
47, 0, 0, 1440.271728515625
48, 0, 0, 1455.50048828125
49, 0, 0, 1462.395874023438
50, 0, 0, 1485.553344726562
51, 0, 0, 1501.366821289062
52, 0, 0, 1517.632690429688
53, 0, 0, 1533.80126953125
54, 0, 0, 1546.587524414062
55, 0, 0, 1561.29833984375
56, 0, 0, 1582.518676757812
57, 0, 0, 1602.637329101562
58, 0, 0, 1624.390014648438
59, 0, 0, 1645.074096679688
60, 0, 0, 1661.673461914062
61, 0, 0, 1678.963745117188
62, 0, 0, 1700.486083984375
63, 0, 0, 1728.929077148438
64, 0, 0, 1761.3955078125
65, 0, 0, 1781.807983398438
66, 0, 0, 1801.652221679688
67, 0, 0, 1836.536987304688
68, 0, 0, 1877.344848632812
69, 0, 0, 1905.805053710938
70, 0, 0, 1936.48974609375
71, 0, 0, 1970.164794921875
72, 0, 0, 2023.387329101562
73, 0, 0, 2058.189697265625
74, 0, 0, 2107.588134765625
75, 0, 0, 2151.977783203125
76, 0, 0, 2213.301025390625
77, 0, 0, 2274.247802734375
78, 0, 0, 2341.434814453125
79, 0, 0, 2426.365966796875
80, 0, 0, 2505.04931640625
81, 0, 0, 2601.6337890625
82, 0, 0, 2700.028076171875
83, 0, 0, 2830.703125
84, 0, 0, 2977.14404296875
85, 0, 0, 3162.057861328125
86, 0, 0, 3376.949951171875
87, 0, 0, 3663.43310546875
88, 0, 0, 4037.216064453125
89, 0, 0, 4684.951171875
90, 0, 0, 5525.98583984375
91, 0, 0, 6137.7451171875
92, 0, 0, 6077.873046875
93, 0, 0, 4519.29248046875
94, 0, 0, 2298.857177734375
95, 0, 0, 676.9017944335938
96, 0, 0, 153.9923400878906
97, 0, 0, 28.78530502319336
98, 0, 0, 0
99, 0, 0, 0
100, 0, 0, 0
101, 0, 0, 0
102, 0, 0, 0
103, 0, 0, 0
104, 0, 0, 0
105, 0, 0, 0
106, 0, 0, 0
107, 0, 0, 0
108, 0, 0, 0
109, 0, 0, 0
110, 0, 0, 0
111, 0, 0, 0
112, 0, 0, 0
113, 0, 0, 0
114, 0, 0, 0
115, 0, 0, 0.03413093835115433
116, 0, 0, 0
117, 0, 0, 0
118, 0, 0, 0
119, 0, 0, 0
120, 0, 0, 0
121, 0, 0, 0
122, 0, 0, 0
123, 0, 0, 0
124, 0, 0, 0
125, 0, 0, 0
126, 0, 0, 0
127, 0, 0, 0
128, 0, 0, 0
129, 0, 0, 0
130, 0, 0, 0
131, 0, 0, 0
132, 0, 0, 0
133, 0, 0, 0
134, 0, 0, 0
135, 0, 0, 0
136, 0, 0, 0
137, 0, 0, 0
138, 0, 0, 0
139, 0, 0, 0
140, 0, 0, 0
141, 0, 0, 0
142, 0, 0, 0
143, 0, 0, 0
144, 0, 0, 0
145, 0, 0, 0
146, 0, 0, 0
147, 0, 0, 0
148, 0, 0, 0
149, 0, 0, 0
150, 0, 0, 0
151, 0, 0, 0
152, 0, 0, 0
153, 0, 0, 0
154, 0, 0, 0
155, 0, 0, 0
156, 0, 0, 0
157, 0, 0, 0
158, 0, 0, 0
159, 0, 0, 0
160, 0, 0, 0
161, 0, 0, 0
162, 0, 0, 0
163, 0, 0, 0
164, 0, 0, 0
165, 0, 0, 0
166, 0, 0, 0
167, 0, 0, 0
168, 0, 0, 0
169, 0, 0, 0
170, 0, 0, 0
171, 0, 0, 0
172, 0, 0, 0
173, 0, 0, 0
174, 0, 0, 0
175, 0, 0, 0
176, 0, 0, 0
177, 0, 0, 0
178, 0, 0, 0
179, 0, 0, 0
