# TOPAS Version: 3.3.p1
# Parameter File: Simple_Pattern.txt
# Results for scorer MLIC_Scorer
# Scored in component: MLIC
# X in 180 bins of 0.222222 cm
# Y in 1 bin  of 10 cm
# Z in 1 bin  of 10 cm
# EnergyDeposit ( MeV ) : Sum   
0, 0, 0, 58.91824340820312
1, 0, 0, 59.83928298950195
2, 0, 0, 59.9471435546875
3, 0, 0, 60.27506256103516
4, 0, 0, 60.19794082641602
5, 0, 0, 59.56677627563477
6, 0, 0, 59.91820907592773
7, 0, 0, 59.96308898925781
8, 0, 0, 62.73711776733398
9, 0, 0, 61.52669525146484
10, 0, 0, 60.44206237792969
11, 0, 0, 62.64862442016602
12, 0, 0, 62.98207855224609
13, 0, 0, 62.31567764282227
14, 0, 0, 61.37411117553711
15, 0, 0, 61.58467483520508
16, 0, 0, 62.82235336303711
17, 0, 0, 64.77298736572266
18, 0, 0, 65.33595275878906
19, 0, 0, 66.55388641357422
20, 0, 0, 65.46839904785156
21, 0, 0, 63.58194732666016
22, 0, 0, 65.84530639648438
23, 0, 0, 65.15239715576172
24, 0, 0, 65.40684509277344
25, 0, 0, 66.10242462158203
26, 0, 0, 66.96929168701172
27, 0, 0, 67.38762664794922
28, 0, 0, 66.34702301025391
29, 0, 0, 70.61608123779297
30, 0, 0, 65.97604370117188
31, 0, 0, 69.10496520996094
32, 0, 0, 69.58148193359375
33, 0, 0, 69.49105072021484
34, 0, 0, 70.56570434570312
35, 0, 0, 71.39974212646484
36, 0, 0, 71.63143157958984
37, 0, 0, 71.60184478759766
38, 0, 0, 72.69821166992188
39, 0, 0, 73.50508117675781
40, 0, 0, 74.7874755859375
41, 0, 0, 74.43658447265625
42, 0, 0, 74.96652984619141
43, 0, 0, 76.97650146484375
44, 0, 0, 75.23232269287109
45, 0, 0, 75.41725158691406
46, 0, 0, 78.51839447021484
47, 0, 0, 77.42857360839844
48, 0, 0, 78.89401245117188
49, 0, 0, 79.70290374755859
50, 0, 0, 79.66360473632812
51, 0, 0, 81.9857177734375
52, 0, 0, 82.47628021240234
53, 0, 0, 83.15345764160156
54, 0, 0, 83.15839385986328
55, 0, 0, 84.86530303955078
56, 0, 0, 84.82224273681641
57, 0, 0, 84.97721099853516
58, 0, 0, 89.69971466064453
59, 0, 0, 86.78256225585938
60, 0, 0, 88.15740966796875
61, 0, 0, 91.83155059814453
62, 0, 0, 91.46907043457031
63, 0, 0, 93.28292846679688
64, 0, 0, 94.900634765625
65, 0, 0, 97.43627166748047
66, 0, 0, 100.4818572998047
67, 0, 0, 99.07074737548828
68, 0, 0, 102.7423400878906
69, 0, 0, 104.460334777832
70, 0, 0, 104.4995880126953
71, 0, 0, 107.1602630615234
72, 0, 0, 110.9287567138672
73, 0, 0, 111.4328079223633
74, 0, 0, 114.7478866577148
75, 0, 0, 115.1074981689453
76, 0, 0, 120.6227188110352
77, 0, 0, 122.1871185302734
78, 0, 0, 128.8183746337891
79, 0, 0, 131.7328033447266
80, 0, 0, 136.0728302001953
81, 0, 0, 140.2906494140625
82, 0, 0, 145.7550048828125
83, 0, 0, 153.9820861816406
84, 0, 0, 161.3927917480469
85, 0, 0, 171.1499328613281
86, 0, 0, 184.2388305664062
87, 0, 0, 199.7831878662109
88, 0, 0, 222.0416107177734
89, 0, 0, 255.7157745361328
90, 0, 0, 309.7398071289062
91, 0, 0, 346.5920104980469
92, 0, 0, 302.6740417480469
93, 0, 0, 233.0281524658203
94, 0, 0, 128.7152557373047
95, 0, 0, 16.13231658935547
96, 0, 0, 0
97, 0, 0, 0
98, 0, 0, 0
99, 0, 0, 0
100, 0, 0, 0
101, 0, 0, 0
102, 0, 0, 0
103, 0, 0, 0
104, 0, 0, 0
105, 0, 0, 0
106, 0, 0, 0
107, 0, 0, 0
108, 0, 0, 0
109, 0, 0, 0
110, 0, 0, 0
111, 0, 0, 0
112, 0, 0, 0
113, 0, 0, 0
114, 0, 0, 0
115, 0, 0, 0
116, 0, 0, 0
117, 0, 0, 0
118, 0, 0, 0
119, 0, 0, 0
120, 0, 0, 0
121, 0, 0, 0
122, 0, 0, 0
123, 0, 0, 0
124, 0, 0, 0
125, 0, 0, 0
126, 0, 0, 0
127, 0, 0, 0
128, 0, 0, 0
129, 0, 0, 0
130, 0, 0, 0
131, 0, 0, 0
132, 0, 0, 0
133, 0, 0, 0
134, 0, 0, 0
135, 0, 0, 0
136, 0, 0, 0
137, 0, 0, 0
138, 0, 0, 0
139, 0, 0, 0
140, 0, 0, 0
141, 0, 0, 0
142, 0, 0, 0
143, 0, 0, 0
144, 0, 0, 0
145, 0, 0, 0
146, 0, 0, 0
147, 0, 0, 0
148, 0, 0, 0
149, 0, 0, 0
150, 0, 0, 0
151, 0, 0, 0
152, 0, 0, 0
153, 0, 0, 0
154, 0, 0, 0
155, 0, 0, 0
156, 0, 0, 0
157, 0, 0, 0
158, 0, 0, 0
159, 0, 0, 0
160, 0, 0, 0
161, 0, 0, 0
162, 0, 0, 0
163, 0, 0, 0
164, 0, 0, 0
165, 0, 0, 0
166, 0, 0, 0
167, 0, 0, 0
168, 0, 0, 0
169, 0, 0, 0
170, 0, 0, 0
171, 0, 0, 0
172, 0, 0, 0
173, 0, 0, 0
174, 0, 0, 0
175, 0, 0, 0
176, 0, 0, 0
177, 0, 0, 0
178, 0, 0, 0
179, 0, 0, 0
