# TOPAS Version: 3.3.p1
# Parameter File: Simple_Pattern.txt
# Results for scorer MLIC_Scorer
# Scored in component: MLIC
# X in 180 bins of 0.222222 cm
# Y in 1 bin  of 10 cm
# Z in 1 bin  of 10 cm
# EnergyDeposit ( MeV ) : Sum   
0, 0, 0, 20.16827774047852
1, 0, 0, 20.07248497009277
2, 0, 0, 21.02517890930176
3, 0, 0, 21.23090553283691
4, 0, 0, 20.23873138427734
5, 0, 0, 21.0587329864502
6, 0, 0, 21.20621109008789
7, 0, 0, 21.5677318572998
8, 0, 0, 20.6644229888916
9, 0, 0, 21.62250900268555
10, 0, 0, 21.97718238830566
11, 0, 0, 21.0236988067627
12, 0, 0, 21.51323699951172
13, 0, 0, 21.48328971862793
14, 0, 0, 22.74594497680664
15, 0, 0, 22.83387184143066
16, 0, 0, 22.43876266479492
17, 0, 0, 21.20918083190918
18, 0, 0, 22.85715484619141
19, 0, 0, 22.23731994628906
20, 0, 0, 22.72121429443359
21, 0, 0, 23.57137107849121
22, 0, 0, 23.38376426696777
23, 0, 0, 23.11745834350586
24, 0, 0, 22.44736099243164
25, 0, 0, 24.20391464233398
26, 0, 0, 24.49995040893555
27, 0, 0, 24.2685604095459
28, 0, 0, 24.16746139526367
29, 0, 0, 25.46792793273926
30, 0, 0, 24.32324028015137
31, 0, 0, 23.90254402160645
32, 0, 0, 22.61026382446289
33, 0, 0, 24.54310035705566
34, 0, 0, 24.65270805358887
35, 0, 0, 24.50182151794434
36, 0, 0, 25.26822090148926
37, 0, 0, 24.23957633972168
38, 0, 0, 24.21127891540527
39, 0, 0, 25.10595703125
40, 0, 0, 24.68709754943848
41, 0, 0, 24.35468482971191
42, 0, 0, 24.05398368835449
43, 0, 0, 23.64332962036133
44, 0, 0, 23.15416145324707
45, 0, 0, 23.72760581970215
46, 0, 0, 23.86402320861816
47, 0, 0, 24.42788887023926
48, 0, 0, 24.67714881896973
49, 0, 0, 24.90653800964355
50, 0, 0, 24.51951789855957
51, 0, 0, 24.27178382873535
52, 0, 0, 25.4169864654541
53, 0, 0, 25.3790397644043
54, 0, 0, 26.86078834533691
55, 0, 0, 26.46786117553711
56, 0, 0, 26.71600532531738
57, 0, 0, 27.28263854980469
58, 0, 0, 26.13196754455566
59, 0, 0, 25.80779647827148
60, 0, 0, 26.2471809387207
61, 0, 0, 26.64740180969238
62, 0, 0, 26.87761497497559
63, 0, 0, 28.41422271728516
64, 0, 0, 27.20434761047363
65, 0, 0, 27.79586601257324
66, 0, 0, 28.52737617492676
67, 0, 0, 28.73027229309082
68, 0, 0, 29.08711624145508
69, 0, 0, 30.81509017944336
70, 0, 0, 30.87484741210938
71, 0, 0, 30.82770919799805
72, 0, 0, 31.90848159790039
73, 0, 0, 33.20973587036133
74, 0, 0, 33.20151138305664
75, 0, 0, 34.47611999511719
76, 0, 0, 35.12930679321289
77, 0, 0, 35.90863800048828
78, 0, 0, 37.36845779418945
79, 0, 0, 38.31151962280273
80, 0, 0, 39.14261245727539
81, 0, 0, 40.96723175048828
82, 0, 0, 43.10466384887695
83, 0, 0, 44.21480178833008
84, 0, 0, 46.62807083129883
85, 0, 0, 48.95386123657227
86, 0, 0, 52.01060485839844
87, 0, 0, 57.569091796875
88, 0, 0, 62.29587173461914
89, 0, 0, 69.60082244873047
90, 0, 0, 85.70062255859375
91, 0, 0, 85.60301971435547
92, 0, 0, 110.0643081665039
93, 0, 0, 85.68260192871094
94, 0, 0, 33.22564315795898
95, 0, 0, 13.10800933837891
96, 0, 0, 0
97, 0, 0, 0
98, 0, 0, 0
99, 0, 0, 0
100, 0, 0, 0
101, 0, 0, 0
102, 0, 0, 0
103, 0, 0, 0
104, 0, 0, 0
105, 0, 0, 0
106, 0, 0, 0
107, 0, 0, 0
108, 0, 0, 0
109, 0, 0, 0
110, 0, 0, 0
111, 0, 0, 0
112, 0, 0, 0
113, 0, 0, 0
114, 0, 0, 0
115, 0, 0, 0
116, 0, 0, 0
117, 0, 0, 0
118, 0, 0, 0
119, 0, 0, 0
120, 0, 0, 0
121, 0, 0, 0
122, 0, 0, 0
123, 0, 0, 0
124, 0, 0, 0
125, 0, 0, 0
126, 0, 0, 0
127, 0, 0, 0
128, 0, 0, 0
129, 0, 0, 0
130, 0, 0, 0
131, 0, 0, 0
132, 0, 0, 0
133, 0, 0, 0
134, 0, 0, 0
135, 0, 0, 0
136, 0, 0, 0
137, 0, 0, 0
138, 0, 0, 0
139, 0, 0, 0
140, 0, 0, 0
141, 0, 0, 0
142, 0, 0, 0
143, 0, 0, 0
144, 0, 0, 0
145, 0, 0, 0
146, 0, 0, 0
147, 0, 0, 0
148, 0, 0, 0
149, 0, 0, 0
150, 0, 0, 0.05456316843628883
151, 0, 0, 0
152, 0, 0, 0
153, 0, 0, 0
154, 0, 0, 0
155, 0, 0, 0
156, 0, 0, 0
157, 0, 0, 0
158, 0, 0, 0
159, 0, 0, 0
160, 0, 0, 0
161, 0, 0, 0
162, 0, 0, 0
163, 0, 0, 0
164, 0, 0, 0
165, 0, 0, 0
166, 0, 0, 0
167, 0, 0, 0
168, 0, 0, 0
169, 0, 0, 0
170, 0, 0, 0
171, 0, 0, 0
172, 0, 0, 0
173, 0, 0, 0
174, 0, 0, 0
175, 0, 0, 0
176, 0, 0, 0
177, 0, 0, 0
178, 0, 0, 0
179, 0, 0, 0
