# TOPAS Version: 3.3.p1
# Parameter File: Simple_Pattern.txt
# Results for scorer MLIC_Scorer
# Scored in component: MLIC
# X in 180 bins of 0.222222 cm
# Y in 1 bin  of 10 cm
# Z in 1 bin  of 10 cm
# EnergyDeposit ( MeV ) : Sum   
0, 0, 0, 32.79087829589844
1, 0, 0, 33.99094009399414
2, 0, 0, 33.31502532958984
3, 0, 0, 33.35847091674805
4, 0, 0, 34.42109298706055
5, 0, 0, 34.32590866088867
6, 0, 0, 34.58301544189453
7, 0, 0, 36.38521194458008
8, 0, 0, 35.78668975830078
9, 0, 0, 34.51081085205078
10, 0, 0, 33.43204116821289
11, 0, 0, 34.40499114990234
12, 0, 0, 34.70786666870117
13, 0, 0, 35.15936279296875
14, 0, 0, 34.83828353881836
15, 0, 0, 36.20378494262695
16, 0, 0, 35.95781326293945
17, 0, 0, 35.78709030151367
18, 0, 0, 36.54288482666016
19, 0, 0, 36.31072235107422
20, 0, 0, 36.78047180175781
21, 0, 0, 37.65200805664062
22, 0, 0, 37.20511627197266
23, 0, 0, 39.15766143798828
24, 0, 0, 36.66378402709961
25, 0, 0, 38.65536499023438
26, 0, 0, 38.13174438476562
27, 0, 0, 39.95783996582031
28, 0, 0, 39.37580108642578
29, 0, 0, 38.77602386474609
30, 0, 0, 38.70660018920898
31, 0, 0, 40.7486686706543
32, 0, 0, 40.56818389892578
33, 0, 0, 39.42860794067383
34, 0, 0, 40.96224975585938
35, 0, 0, 41.61264801025391
36, 0, 0, 39.98025131225586
37, 0, 0, 41.12678527832031
38, 0, 0, 40.79471969604492
39, 0, 0, 41.86456298828125
40, 0, 0, 41.69144058227539
41, 0, 0, 42.42112350463867
42, 0, 0, 44.66261291503906
43, 0, 0, 43.30503463745117
44, 0, 0, 43.02532196044922
45, 0, 0, 43.41833114624023
46, 0, 0, 43.02389907836914
47, 0, 0, 42.96773147583008
48, 0, 0, 44.18091583251953
49, 0, 0, 43.84716415405273
50, 0, 0, 44.26990127563477
51, 0, 0, 44.15192031860352
52, 0, 0, 45.81736755371094
53, 0, 0, 46.35276794433594
54, 0, 0, 45.22293853759766
55, 0, 0, 44.04647827148438
56, 0, 0, 45.34016418457031
57, 0, 0, 45.03217697143555
58, 0, 0, 48.87214660644531
59, 0, 0, 47.91061401367188
60, 0, 0, 47.95434951782227
61, 0, 0, 47.53819274902344
62, 0, 0, 47.83575057983398
63, 0, 0, 50.64359664916992
64, 0, 0, 50.39423370361328
65, 0, 0, 50.9012451171875
66, 0, 0, 52.35312652587891
67, 0, 0, 52.23107528686523
68, 0, 0, 54.28952789306641
69, 0, 0, 54.83935165405273
70, 0, 0, 55.48044967651367
71, 0, 0, 56.52751541137695
72, 0, 0, 58.46502304077148
73, 0, 0, 61.06699371337891
74, 0, 0, 60.4420280456543
75, 0, 0, 62.49574279785156
76, 0, 0, 64.81359100341797
77, 0, 0, 66.45928955078125
78, 0, 0, 64.59388732910156
79, 0, 0, 67.63189697265625
80, 0, 0, 69.42049407958984
81, 0, 0, 72.53302001953125
82, 0, 0, 74.80381774902344
83, 0, 0, 79.07013702392578
84, 0, 0, 85.6109619140625
85, 0, 0, 87.51235198974609
86, 0, 0, 93.82838439941406
87, 0, 0, 102.6229934692383
88, 0, 0, 111.4521255493164
89, 0, 0, 127.2696990966797
90, 0, 0, 157.8869171142578
91, 0, 0, 170.7410736083984
92, 0, 0, 189.5061798095703
93, 0, 0, 132.2995147705078
94, 0, 0, 28.40190696716309
95, 0, 0, 0
96, 0, 0, 0
97, 0, 0, 0
98, 0, 0, 0
99, 0, 0, 0
100, 0, 0, 0
101, 0, 0, 0
102, 0, 0, 0
103, 0, 0, 0.02330939099192619
104, 0, 0, 0
105, 0, 0, 0
106, 0, 0, 0
107, 0, 0, 0
108, 0, 0, 0
109, 0, 0, 0
110, 0, 0, 0
111, 0, 0, 0
112, 0, 0, 0
113, 0, 0, 0
114, 0, 0, 0
115, 0, 0, 0
116, 0, 0, 0
117, 0, 0, 0
118, 0, 0, 0
119, 0, 0, 0
120, 0, 0, 0
121, 0, 0, 0
122, 0, 0, 0
123, 0, 0, 0
124, 0, 0, 0
125, 0, 0, 0
126, 0, 0, 0
127, 0, 0, 0
128, 0, 0, 0
129, 0, 0, 0
130, 0, 0, 0
131, 0, 0, 0
132, 0, 0, 0
133, 0, 0, 0
134, 0, 0, 0
135, 0, 0, 0
136, 0, 0, 0
137, 0, 0, 0
138, 0, 0, 0
139, 0, 0, 0
140, 0, 0, 0
141, 0, 0, 0
142, 0, 0, 0
143, 0, 0, 0
144, 0, 0, 0
145, 0, 0, 0
146, 0, 0, 0
147, 0, 0, 0
148, 0, 0, 0
149, 0, 0, 0
150, 0, 0, 0
151, 0, 0, 0
152, 0, 0, 0
153, 0, 0, 0
154, 0, 0, 0
155, 0, 0, 0
156, 0, 0, 0
157, 0, 0, 0
158, 0, 0, 0
159, 0, 0, 0
160, 0, 0, 0
161, 0, 0, 0
162, 0, 0, 0
163, 0, 0, 0
164, 0, 0, 0
165, 0, 0, 0
166, 0, 0, 0
167, 0, 0, 0
168, 0, 0, 0
169, 0, 0, 0
170, 0, 0, 0
171, 0, 0, 0
172, 0, 0, 0
173, 0, 0, 0
174, 0, 0, 0
175, 0, 0, 0
176, 0, 0, 0
177, 0, 0, 0
178, 0, 0, 0
179, 0, 0, 0
