# TOPAS Version: 3.3.p1
# Parameter File: Simple_Pattern.txt
# Results for scorer MLIC_Scorer
# Scored in component: MLIC
# X in 180 bins of 0.222222 cm
# Y in 1 bin  of 10 cm
# Z in 1 bin  of 10 cm
# EnergyDeposit ( MeV ) : Sum   
0, 0, 0, 36.18431854248047
1, 0, 0, 34.92345428466797
2, 0, 0, 34.52162551879883
3, 0, 0, 35.5808219909668
4, 0, 0, 34.36722183227539
5, 0, 0, 35.83430099487305
6, 0, 0, 36.92831420898438
7, 0, 0, 36.2056770324707
8, 0, 0, 35.48726272583008
9, 0, 0, 35.80569458007812
10, 0, 0, 36.55792617797852
11, 0, 0, 35.77682495117188
12, 0, 0, 36.54741287231445
13, 0, 0, 36.02892303466797
14, 0, 0, 36.69384765625
15, 0, 0, 37.82210922241211
16, 0, 0, 37.79875946044922
17, 0, 0, 36.10630416870117
18, 0, 0, 36.6879997253418
19, 0, 0, 37.59672546386719
20, 0, 0, 38.01403427124023
21, 0, 0, 37.46332550048828
22, 0, 0, 37.72209930419922
23, 0, 0, 39.06949234008789
24, 0, 0, 39.90710830688477
25, 0, 0, 40.17852783203125
26, 0, 0, 40.07411575317383
27, 0, 0, 40.70795440673828
28, 0, 0, 39.37562942504883
29, 0, 0, 41.18738174438477
30, 0, 0, 39.42758941650391
31, 0, 0, 41.03251266479492
32, 0, 0, 41.10370254516602
33, 0, 0, 41.04827880859375
34, 0, 0, 42.18257141113281
35, 0, 0, 41.70609283447266
36, 0, 0, 40.88534164428711
37, 0, 0, 42.47785949707031
38, 0, 0, 42.11492538452148
39, 0, 0, 44.34122085571289
40, 0, 0, 42.63681411743164
41, 0, 0, 44.32323837280273
42, 0, 0, 45.52102661132812
43, 0, 0, 44.98095703125
44, 0, 0, 45.62825393676758
45, 0, 0, 44.02080917358398
46, 0, 0, 45.68545913696289
47, 0, 0, 46.20824813842773
48, 0, 0, 47.38351821899414
49, 0, 0, 47.30898666381836
50, 0, 0, 47.27478408813477
51, 0, 0, 47.81375885009766
52, 0, 0, 48.79580688476562
53, 0, 0, 49.34054946899414
54, 0, 0, 50.14883422851562
55, 0, 0, 49.47320175170898
56, 0, 0, 50.46416854858398
57, 0, 0, 51.1859016418457
58, 0, 0, 52.245849609375
59, 0, 0, 51.82674789428711
60, 0, 0, 52.20771026611328
61, 0, 0, 54.63269424438477
62, 0, 0, 54.49432373046875
63, 0, 0, 55.15665054321289
64, 0, 0, 56.14155197143555
65, 0, 0, 57.4731330871582
66, 0, 0, 57.56991577148438
67, 0, 0, 59.19873046875
68, 0, 0, 59.53159332275391
69, 0, 0, 59.84182357788086
70, 0, 0, 61.21195983886719
71, 0, 0, 63.55167388916016
72, 0, 0, 65.03043365478516
73, 0, 0, 65.01578521728516
74, 0, 0, 68.27437591552734
75, 0, 0, 68.44178771972656
76, 0, 0, 71.58282470703125
77, 0, 0, 73.381591796875
78, 0, 0, 74.72605895996094
79, 0, 0, 78.00205993652344
80, 0, 0, 78.82635498046875
81, 0, 0, 81.73659515380859
82, 0, 0, 84.47927856445312
83, 0, 0, 89.51441955566406
84, 0, 0, 94.87519073486328
85, 0, 0, 100.9171905517578
86, 0, 0, 103.6604461669922
87, 0, 0, 113.0778503417969
88, 0, 0, 124.5075225830078
89, 0, 0, 142.8954010009766
90, 0, 0, 173.1605682373047
91, 0, 0, 192.6630859375
92, 0, 0, 172.0703887939453
93, 0, 0, 169.0374755859375
94, 0, 0, 70.15744781494141
95, 0, 0, 19.63766288757324
96, 0, 0, 5.279783248901367
97, 0, 0, 0
98, 0, 0, 0
99, 0, 0, 0
100, 0, 0, 0
101, 0, 0, 0
102, 0, 0, 0
103, 0, 0, 0
104, 0, 0, 0
105, 0, 0, 0
106, 0, 0, 0
107, 0, 0, 0
108, 0, 0, 0
109, 0, 0, 0
110, 0, 0, 0
111, 0, 0, 0
112, 0, 0, 0
113, 0, 0, 0
114, 0, 0, 0
115, 0, 0, 0
116, 0, 0, 0
117, 0, 0, 0
118, 0, 0, 0
119, 0, 0, 0
120, 0, 0, 0
121, 0, 0, 0
122, 0, 0, 0
123, 0, 0, 0
124, 0, 0, 0
125, 0, 0, 0
126, 0, 0, 0
127, 0, 0, 0
128, 0, 0, 0
129, 0, 0, 0
130, 0, 0, 0
131, 0, 0, 0.06856916844844818
132, 0, 0, 0
133, 0, 0, 0
134, 0, 0, 0
135, 0, 0, 0
136, 0, 0, 0
137, 0, 0, 0
138, 0, 0, 0
139, 0, 0, 0
140, 0, 0, 0
141, 0, 0, 0
142, 0, 0, 0
143, 0, 0, 0
144, 0, 0, 0
145, 0, 0, 0
146, 0, 0, 0
147, 0, 0, 0
148, 0, 0, 0
149, 0, 0, 0
150, 0, 0, 0
151, 0, 0, 0
152, 0, 0, 0
153, 0, 0, 0
154, 0, 0, 0
155, 0, 0, 0
156, 0, 0, 0
157, 0, 0, 0
158, 0, 0, 0
159, 0, 0, 0
160, 0, 0, 0
161, 0, 0, 0
162, 0, 0, 0
163, 0, 0, 0
164, 0, 0, 0
165, 0, 0, 0
166, 0, 0, 0
167, 0, 0, 0
168, 0, 0, 0
169, 0, 0, 0
170, 0, 0, 0
171, 0, 0, 0
172, 0, 0, 0
173, 0, 0, 0
174, 0, 0, 0
175, 0, 0, 0
176, 0, 0, 0
177, 0, 0, 0
178, 0, 0, 0
179, 0, 0, 0
