# TOPAS Version: 3.3.p1
# Parameter File: Simple_Pattern.txt
# Results for scorer MLIC_Scorer
# Scored in component: MLIC
# X in 180 bins of 0.222222 cm
# Y in 1 bin  of 10 cm
# Z in 1 bin  of 10 cm
# EnergyDeposit ( MeV ) : Sum   
0, 0, 0, 1117.83837890625
1, 0, 0, 1120.991088867188
2, 0, 0, 1128.102416992188
3, 0, 0, 1139.042602539062
4, 0, 0, 1139.861450195312
5, 0, 0, 1148.144775390625
6, 0, 0, 1147.354125976562
7, 0, 0, 1151.060791015625
8, 0, 0, 1167.141235351562
9, 0, 0, 1164.71728515625
10, 0, 0, 1173.441040039062
11, 0, 0, 1169.013061523438
12, 0, 0, 1183.333984375
13, 0, 0, 1195.778686523438
14, 0, 0, 1197.4228515625
15, 0, 0, 1210.897583007812
16, 0, 0, 1209.781494140625
17, 0, 0, 1221.28076171875
18, 0, 0, 1228.287841796875
19, 0, 0, 1233.912231445312
20, 0, 0, 1235.61181640625
21, 0, 0, 1250.313110351562
22, 0, 0, 1255.373901367188
23, 0, 0, 1265.484130859375
24, 0, 0, 1274.504272460938
25, 0, 0, 1277.56005859375
26, 0, 0, 1284.138427734375
27, 0, 0, 1297.012451171875
28, 0, 0, 1316.4375
29, 0, 0, 1326.3837890625
30, 0, 0, 1323.812255859375
31, 0, 0, 1341.213500976562
32, 0, 0, 1350.192138671875
33, 0, 0, 1358.008544921875
34, 0, 0, 1366.00830078125
35, 0, 0, 1376.146606445312
36, 0, 0, 1384.947265625
37, 0, 0, 1399.673950195312
38, 0, 0, 1408.5419921875
39, 0, 0, 1425.413818359375
40, 0, 0, 1441.402709960938
41, 0, 0, 1461.002075195312
42, 0, 0, 1466.71923828125
43, 0, 0, 1486.238037109375
44, 0, 0, 1495.13330078125
45, 0, 0, 1503.1796875
46, 0, 0, 1518.14453125
47, 0, 0, 1536.512084960938
48, 0, 0, 1574.31591796875
49, 0, 0, 1579.265380859375
50, 0, 0, 1602.369384765625
51, 0, 0, 1617.217407226562
52, 0, 0, 1632.607666015625
53, 0, 0, 1654.117309570312
54, 0, 0, 1682.408203125
55, 0, 0, 1693.639282226562
56, 0, 0, 1718.979736328125
57, 0, 0, 1756.925415039062
58, 0, 0, 1775.278930664062
59, 0, 0, 1812.116943359375
60, 0, 0, 1846.075439453125
61, 0, 0, 1883.188598632812
62, 0, 0, 1914.139038085938
63, 0, 0, 1951.281005859375
64, 0, 0, 1985.23974609375
65, 0, 0, 2042.450927734375
66, 0, 0, 2090.296630859375
67, 0, 0, 2147.508544921875
68, 0, 0, 2203.56982421875
69, 0, 0, 2276.469482421875
70, 0, 0, 2345.954345703125
71, 0, 0, 2435.508544921875
72, 0, 0, 2545.57421875
73, 0, 0, 2669.0302734375
74, 0, 0, 2823.538818359375
75, 0, 0, 3049.802001953125
76, 0, 0, 3362.091796875
77, 0, 0, 3717.01025390625
78, 0, 0, 3972.111083984375
79, 0, 0, 4072.146484375
80, 0, 0, 3482.75146484375
81, 0, 0, 2507.441162109375
82, 0, 0, 1934.925170898438
83, 0, 0, 1668.421630859375
84, 0, 0, 1674.740234375
85, 0, 0, 1783.50390625
86, 0, 0, 1864.504028320312
87, 0, 0, 2010.332153320312
88, 0, 0, 2167.76171875
89, 0, 0, 2483.796630859375
90, 0, 0, 2850.41943359375
91, 0, 0, 3172.193115234375
92, 0, 0, 3029.11474609375
93, 0, 0, 2379.431640625
94, 0, 0, 1177.99658203125
95, 0, 0, 446.4763793945312
96, 0, 0, 74.28643798828125
97, 0, 0, 8.700508117675781
98, 0, 0, 0
99, 0, 0, 0
100, 0, 0, 0
101, 0, 0, 0
102, 0, 0, 0
103, 0, 0, 0
104, 0, 0, 0
105, 0, 0, 0
106, 0, 0, 0
107, 0, 0, 0.02540460415184498
108, 0, 0, 0
109, 0, 0, 0
110, 0, 0, 0
111, 0, 0, 0
112, 0, 0, 0
113, 0, 0, 0
114, 0, 0, 0
115, 0, 0, 0
116, 0, 0, 0
117, 0, 0, 0
118, 0, 0, 0
119, 0, 0, 0
120, 0, 0, 0
121, 0, 0, 0
122, 0, 0, 0
123, 0, 0, 0
124, 0, 0, 0
125, 0, 0, 0
126, 0, 0, 0
127, 0, 0, 0
128, 0, 0, 0
129, 0, 0, 0
130, 0, 0, 0
131, 0, 0, 0
132, 0, 0, 0
133, 0, 0, 0
134, 0, 0, 0
135, 0, 0, 0
136, 0, 0, 0
137, 0, 0, 0
138, 0, 0, 0
139, 0, 0, 0
140, 0, 0, 0
141, 0, 0, 0
142, 0, 0, 0
143, 0, 0, 0
144, 0, 0, 0
145, 0, 0, 0
146, 0, 0, 0
147, 0, 0, 0
148, 0, 0, 0
149, 0, 0, 0
150, 0, 0, 0
151, 0, 0, 0
152, 0, 0, 0
153, 0, 0, 0
154, 0, 0, 0
155, 0, 0, 0
156, 0, 0, 0
157, 0, 0, 0
158, 0, 0, 0
159, 0, 0, 0
160, 0, 0, 0
161, 0, 0, 0
162, 0, 0, 0
163, 0, 0, 0
164, 0, 0, 0
165, 0, 0, 0
166, 0, 0, 0
167, 0, 0, 0
168, 0, 0, 0
169, 0, 0, 0
170, 0, 0, 0
171, 0, 0, 0
172, 0, 0, 0
173, 0, 0, 0
174, 0, 0, 0
175, 0, 0, 0
176, 0, 0, 0
177, 0, 0, 0
178, 0, 0, 0
179, 0, 0, 0
