# TOPAS Version: 3.3.p1
# Parameter File: Simple_Pattern.txt
# Results for scorer MLIC_Scorer
# Scored in component: MLIC
# X in 180 bins of 0.222222 cm
# Y in 1 bin  of 10 cm
# Z in 1 bin  of 10 cm
# EnergyDeposit ( MeV ) : Sum   
0, 0, 0, 49.46183013916016
1, 0, 0, 48.93147277832031
2, 0, 0, 48.43391418457031
3, 0, 0, 47.29491424560547
4, 0, 0, 49.3382453918457
5, 0, 0, 46.72219467163086
6, 0, 0, 48.21249771118164
7, 0, 0, 49.45994186401367
8, 0, 0, 49.00436782836914
9, 0, 0, 51.16900634765625
10, 0, 0, 50.75539779663086
11, 0, 0, 49.99415588378906
12, 0, 0, 49.45005416870117
13, 0, 0, 52.20697021484375
14, 0, 0, 49.80535125732422
15, 0, 0, 52.30823516845703
16, 0, 0, 52.11098480224609
17, 0, 0, 51.90669631958008
18, 0, 0, 52.39609146118164
19, 0, 0, 52.65522384643555
20, 0, 0, 53.04142761230469
21, 0, 0, 53.1717414855957
22, 0, 0, 54.73210906982422
23, 0, 0, 55.73005294799805
24, 0, 0, 54.63253784179688
25, 0, 0, 54.26202011108398
26, 0, 0, 53.5532112121582
27, 0, 0, 55.89457321166992
28, 0, 0, 54.60384368896484
29, 0, 0, 54.58599853515625
30, 0, 0, 57.37400054931641
31, 0, 0, 58.5340690612793
32, 0, 0, 56.76821517944336
33, 0, 0, 56.83495712280273
34, 0, 0, 56.3151969909668
35, 0, 0, 58.09433746337891
36, 0, 0, 58.45252990722656
37, 0, 0, 58.03029632568359
38, 0, 0, 58.13029479980469
39, 0, 0, 60.67557525634766
40, 0, 0, 59.31705474853516
41, 0, 0, 61.09639358520508
42, 0, 0, 59.60844421386719
43, 0, 0, 62.01628494262695
44, 0, 0, 62.98377990722656
45, 0, 0, 63.25890350341797
46, 0, 0, 63.97714614868164
47, 0, 0, 64.65451049804688
48, 0, 0, 63.89321136474609
49, 0, 0, 65.97055053710938
50, 0, 0, 66.56205749511719
51, 0, 0, 64.43526458740234
52, 0, 0, 68.42642974853516
53, 0, 0, 67.84060668945312
54, 0, 0, 69.63324737548828
55, 0, 0, 70.46805572509766
56, 0, 0, 69.77033233642578
57, 0, 0, 73.05272674560547
58, 0, 0, 71.2156982421875
59, 0, 0, 71.72205352783203
60, 0, 0, 72.86091613769531
61, 0, 0, 73.92756652832031
62, 0, 0, 75.65235137939453
63, 0, 0, 75.12236022949219
64, 0, 0, 76.67519378662109
65, 0, 0, 78.22930145263672
66, 0, 0, 76.97255706787109
67, 0, 0, 77.71204376220703
68, 0, 0, 80.00746154785156
69, 0, 0, 81.47750854492188
70, 0, 0, 83.06279754638672
71, 0, 0, 86.5791015625
72, 0, 0, 85.66635894775391
73, 0, 0, 88.54203033447266
74, 0, 0, 92.076416015625
75, 0, 0, 94.58523559570312
76, 0, 0, 95.09725952148438
77, 0, 0, 98.06123352050781
78, 0, 0, 101.1485290527344
79, 0, 0, 107.4369125366211
80, 0, 0, 108.7001419067383
81, 0, 0, 112.2484283447266
82, 0, 0, 118.3603057861328
83, 0, 0, 124.7749786376953
84, 0, 0, 129.8336334228516
85, 0, 0, 131.5210418701172
86, 0, 0, 139.9654083251953
87, 0, 0, 154.3767852783203
88, 0, 0, 171.6717834472656
89, 0, 0, 199.9861450195312
90, 0, 0, 257.2950439453125
91, 0, 0, 281.3102722167969
92, 0, 0, 187.6416320800781
93, 0, 0, 162.4199829101562
94, 0, 0, 73.50429534912109
95, 0, 0, 10.00611305236816
96, 0, 0, 7.625113964080811
97, 0, 0, 0
98, 0, 0, 0
99, 0, 0, 0
100, 0, 0, 0
101, 0, 0, 0
102, 0, 0, 0
103, 0, 0, 0
104, 0, 0, 0
105, 0, 0, 0
106, 0, 0, 0
107, 0, 0, 0
108, 0, 0, 0
109, 0, 0, 0
110, 0, 0, 0
111, 0, 0, 0
112, 0, 0, 0
113, 0, 0, 0
114, 0, 0, 0
115, 0, 0, 0
116, 0, 0, 0
117, 0, 0, 0
118, 0, 0, 0
119, 0, 0, 0
120, 0, 0, 0
121, 0, 0, 0
122, 0, 0, 0
123, 0, 0, 0
124, 0, 0, 0
125, 0, 0, 0
126, 0, 0, 0
127, 0, 0, 0
128, 0, 0, 0
129, 0, 0, 0
130, 0, 0, 0
131, 0, 0, 0
132, 0, 0, 0
133, 0, 0, 0
134, 0, 0, 0
135, 0, 0, 0
136, 0, 0, 0
137, 0, 0, 0
138, 0, 0, 0
139, 0, 0, 0
140, 0, 0, 0
141, 0, 0, 0
142, 0, 0, 0
143, 0, 0, 0
144, 0, 0, 0
145, 0, 0, 0
146, 0, 0, 0
147, 0, 0, 0
148, 0, 0, 0
149, 0, 0, 0
150, 0, 0, 0
151, 0, 0, 0
152, 0, 0, 0
153, 0, 0, 0
154, 0, 0, 0
155, 0, 0, 0
156, 0, 0, 0
157, 0, 0, 0
158, 0, 0, 0
159, 0, 0, 0
160, 0, 0, 0
161, 0, 0, 0
162, 0, 0, 0
163, 0, 0, 0
164, 0, 0, 0
165, 0, 0, 0
166, 0, 0, 0
167, 0, 0, 0
168, 0, 0, 0
169, 0, 0, 0
170, 0, 0, 0
171, 0, 0, 0
172, 0, 0, 0
173, 0, 0, 0
174, 0, 0, 0
175, 0, 0, 0
176, 0, 0, 0
177, 0, 0, 0
178, 0, 0, 0
179, 0, 0, 0
