# TOPAS Version: 3.3.p1
# Parameter File: Simple_Pattern.txt
# Results for scorer MLIC_Scorer
# Scored in component: MLIC
# X in 180 bins of 0.222222 cm
# Y in 1 bin  of 10 cm
# Z in 1 bin  of 10 cm
# EnergyDeposit ( MeV ) : Sum   
0, 0, 0, 711.71923828125
1, 0, 0, 713.8490600585938
2, 0, 0, 712.5921630859375
3, 0, 0, 713.2608642578125
4, 0, 0, 723.56787109375
5, 0, 0, 718.0032348632812
6, 0, 0, 720.9446411132812
7, 0, 0, 722.8716430664062
8, 0, 0, 731.6082153320312
9, 0, 0, 736.9949951171875
10, 0, 0, 742.2985229492188
11, 0, 0, 740.7200927734375
12, 0, 0, 739.5303955078125
13, 0, 0, 752.2372436523438
14, 0, 0, 743.7489013671875
15, 0, 0, 756.8084106445312
16, 0, 0, 765.0256958007812
17, 0, 0, 763.6843872070312
18, 0, 0, 768.3206176757812
19, 0, 0, 770.3511352539062
20, 0, 0, 773.7175903320312
21, 0, 0, 784.0875854492188
22, 0, 0, 785.4534301757812
23, 0, 0, 787.9869995117188
24, 0, 0, 792.4143676757812
25, 0, 0, 794.8793334960938
26, 0, 0, 802.3457641601562
27, 0, 0, 810.1082763671875
28, 0, 0, 808.2840576171875
29, 0, 0, 818.5978393554688
30, 0, 0, 822.0762329101562
31, 0, 0, 824.8001098632812
32, 0, 0, 827.38818359375
33, 0, 0, 837.465576171875
34, 0, 0, 839.0376586914062
35, 0, 0, 850.6559448242188
36, 0, 0, 854.509033203125
37, 0, 0, 863.608642578125
38, 0, 0, 868.5880737304688
39, 0, 0, 878.1389770507812
40, 0, 0, 884.1845092773438
41, 0, 0, 894.9603881835938
42, 0, 0, 896.3787231445312
43, 0, 0, 900.1373291015625
44, 0, 0, 916.8665161132812
45, 0, 0, 914.6377563476562
46, 0, 0, 931.4441528320312
47, 0, 0, 927.9478759765625
48, 0, 0, 947.8499755859375
49, 0, 0, 958.00634765625
50, 0, 0, 960.6698608398438
51, 0, 0, 972.7132568359375
52, 0, 0, 981.8374633789062
53, 0, 0, 988.3995361328125
54, 0, 0, 1000.541320800781
55, 0, 0, 1002.179382324219
56, 0, 0, 1028.3291015625
57, 0, 0, 1038.280517578125
58, 0, 0, 1054.280395507812
59, 0, 0, 1052.101440429688
60, 0, 0, 1076.294311523438
61, 0, 0, 1087.086669921875
62, 0, 0, 1099.937622070312
63, 0, 0, 1116.4150390625
64, 0, 0, 1125.499267578125
65, 0, 0, 1148.002807617188
66, 0, 0, 1166.655517578125
67, 0, 0, 1182.319458007812
68, 0, 0, 1213.164428710938
69, 0, 0, 1227.30859375
70, 0, 0, 1249.864135742188
71, 0, 0, 1271.306274414062
72, 0, 0, 1305.643188476562
73, 0, 0, 1323.416259765625
74, 0, 0, 1353.090942382812
75, 0, 0, 1394.521728515625
76, 0, 0, 1423.400024414062
77, 0, 0, 1462.4189453125
78, 0, 0, 1509.720825195312
79, 0, 0, 1553.529541015625
80, 0, 0, 1606.9130859375
81, 0, 0, 1670.93896484375
82, 0, 0, 1736.435546875
83, 0, 0, 1808.860595703125
84, 0, 0, 1902.983520507812
85, 0, 0, 2020.16943359375
86, 0, 0, 2152.624267578125
87, 0, 0, 2329.88330078125
88, 0, 0, 2596.0859375
89, 0, 0, 2938.06298828125
90, 0, 0, 3514.66064453125
91, 0, 0, 3899.732177734375
92, 0, 0, 3871.545654296875
93, 0, 0, 2661.33984375
94, 0, 0, 1359.363525390625
95, 0, 0, 470.5627136230469
96, 0, 0, 95.79753875732422
97, 0, 0, 26.78061103820801
98, 0, 0, 0
99, 0, 0, 0
100, 0, 0, 0
101, 0, 0, 0
102, 0, 0, 0
103, 0, 0, 0
104, 0, 0, 0
105, 0, 0, 0.001253756228834391
106, 0, 0, 0.0008751182467676699
107, 0, 0, 0
108, 0, 0, 0
109, 0, 0, 0
110, 0, 0, 0
111, 0, 0, 0
112, 0, 0, 0
113, 0, 0, 0
114, 0, 0, 0
115, 0, 0, 0
116, 0, 0, 0
117, 0, 0, 0
118, 0, 0, 0
119, 0, 0, 0
120, 0, 0, 0
121, 0, 0, 0
122, 0, 0, 0
123, 0, 0, 0
124, 0, 0, 0
125, 0, 0, 0
126, 0, 0, 0
127, 0, 0, 0
128, 0, 0, 0
129, 0, 0, 0
130, 0, 0, 0
131, 0, 0, 0
132, 0, 0, 0
133, 0, 0, 0
134, 0, 0, 0
135, 0, 0, 0
136, 0, 0, 0
137, 0, 0, 0
138, 0, 0, 0
139, 0, 0, 0
140, 0, 0, 0
141, 0, 0, 0
142, 0, 0, 0
143, 0, 0, 0
144, 0, 0, 0
145, 0, 0, 0
146, 0, 0, 0
147, 0, 0, 0
148, 0, 0, 0
149, 0, 0, 0
150, 0, 0, 0
151, 0, 0, 0
152, 0, 0, 0
153, 0, 0, 0
154, 0, 0, 0
155, 0, 0, 0
156, 0, 0, 0
157, 0, 0, 0
158, 0, 0, 0
159, 0, 0, 0
160, 0, 0, 0
161, 0, 0, 0
162, 0, 0, 0
163, 0, 0, 0
164, 0, 0, 0
165, 0, 0, 0
166, 0, 0, 0
167, 0, 0, 0
168, 0, 0, 0
169, 0, 0, 0
170, 0, 0, 0
171, 0, 0, 0
172, 0, 0, 0
173, 0, 0, 0
174, 0, 0, 0
175, 0, 0, 0
176, 0, 0, 0
177, 0, 0, 0
178, 0, 0, 0
179, 0, 0, 0
