# TOPAS Version: 3.3.p1
# Parameter File: Simple_Pattern.txt
# Results for scorer MLIC_Scorer
# Scored in component: MLIC
# X in 180 bins of 0.222222 cm
# Y in 1 bin  of 10 cm
# Z in 1 bin  of 10 cm
# EnergyDeposit ( MeV ) : Sum   
0, 0, 0, 54.73974227905273
1, 0, 0, 56.91533660888672
2, 0, 0, 56.87930297851562
3, 0, 0, 58.419189453125
4, 0, 0, 57.74176025390625
5, 0, 0, 59.67158126831055
6, 0, 0, 57.32976531982422
7, 0, 0, 58.03801727294922
8, 0, 0, 60.77727890014648
9, 0, 0, 60.51913452148438
10, 0, 0, 58.62631988525391
11, 0, 0, 58.67047882080078
12, 0, 0, 60.66018676757812
13, 0, 0, 60.18541717529297
14, 0, 0, 62.43462753295898
15, 0, 0, 61.90436172485352
16, 0, 0, 63.16033935546875
17, 0, 0, 62.02217864990234
18, 0, 0, 62.32949447631836
19, 0, 0, 61.45699691772461
20, 0, 0, 64.09199523925781
21, 0, 0, 65.14357757568359
22, 0, 0, 64.09702301025391
23, 0, 0, 63.97019195556641
24, 0, 0, 64.69350433349609
25, 0, 0, 65.62660980224609
26, 0, 0, 64.75112915039062
27, 0, 0, 64.66738891601562
28, 0, 0, 67.15656280517578
29, 0, 0, 68.81825256347656
30, 0, 0, 69.26276397705078
31, 0, 0, 68.30442810058594
32, 0, 0, 69.04074096679688
33, 0, 0, 69.60007476806641
34, 0, 0, 70.13245391845703
35, 0, 0, 70.16562652587891
36, 0, 0, 72.88249206542969
37, 0, 0, 73.12040710449219
38, 0, 0, 70.94255828857422
39, 0, 0, 74.05583953857422
40, 0, 0, 74.37791442871094
41, 0, 0, 77.10829925537109
42, 0, 0, 74.49099731445312
43, 0, 0, 75.54368591308594
44, 0, 0, 78.50531005859375
45, 0, 0, 77.21718597412109
46, 0, 0, 80.06033325195312
47, 0, 0, 81.23276519775391
48, 0, 0, 82.63949584960938
49, 0, 0, 83.37318420410156
50, 0, 0, 82.65808868408203
51, 0, 0, 87.47174072265625
52, 0, 0, 86.3839111328125
53, 0, 0, 89.06806945800781
54, 0, 0, 90.99984741210938
55, 0, 0, 92.02418518066406
56, 0, 0, 94.31819915771484
57, 0, 0, 94.12943267822266
58, 0, 0, 95.27403259277344
59, 0, 0, 100.2620010375977
60, 0, 0, 100.6676025390625
61, 0, 0, 104.5065383911133
62, 0, 0, 105.6713943481445
63, 0, 0, 107.1638717651367
64, 0, 0, 111.7869720458984
65, 0, 0, 117.4928359985352
66, 0, 0, 118.3690643310547
67, 0, 0, 120.503776550293
68, 0, 0, 126.6849899291992
69, 0, 0, 132.1808319091797
70, 0, 0, 140.2328338623047
71, 0, 0, 144.7742309570312
72, 0, 0, 154.9989929199219
73, 0, 0, 165.5597076416016
74, 0, 0, 177.3375244140625
75, 0, 0, 197.5691528320312
76, 0, 0, 223.7790222167969
77, 0, 0, 281.5136413574219
78, 0, 0, 322.2203979492188
79, 0, 0, 303.4850158691406
80, 0, 0, 174.2356414794922
81, 0, 0, 92.97800445556641
82, 0, 0, 27.40935325622559
83, 0, 0, 10.15468120574951
84, 0, 0, 13.52428245544434
85, 0, 0, 2.637492418289185
86, 0, 0, 3.059277296066284
87, 0, 0, 3.313563346862793
88, 0, 0, 3.561904430389404
89, 0, 0, 3.526003360748291
90, 0, 0, 4.013180255889893
91, 0, 0, 4.58611011505127
92, 0, 0, 5.463869571685791
93, 0, 0, 7.074771404266357
94, 0, 0, 12.32070350646973
95, 0, 0, 0
96, 0, 0, 0
97, 0, 0, 0
98, 0, 0, 0
99, 0, 0, 0
100, 0, 0, 0
101, 0, 0, 0
102, 0, 0, 0
103, 0, 0, 0
104, 0, 0, 0
105, 0, 0, 0
106, 0, 0, 0
107, 0, 0, 0
108, 0, 0, 0
109, 0, 0, 0
110, 0, 0, 0
111, 0, 0, 0
112, 0, 0, 0
113, 0, 0, 0
114, 0, 0, 0
115, 0, 0, 0
116, 0, 0, 0
117, 0, 0, 0
118, 0, 0, 0
119, 0, 0, 0
120, 0, 0, 0
121, 0, 0, 0
122, 0, 0, 0
123, 0, 0, 0
124, 0, 0, 0
125, 0, 0, 0
126, 0, 0, 0
127, 0, 0, 0
128, 0, 0, 0
129, 0, 0, 0
130, 0, 0, 0
131, 0, 0, 0
132, 0, 0, 0
133, 0, 0, 0
134, 0, 0, 0
135, 0, 0, 0
136, 0, 0, 0
137, 0, 0, 0
138, 0, 0, 0
139, 0, 0, 0
140, 0, 0, 0
141, 0, 0, 0
142, 0, 0, 0
143, 0, 0, 0
144, 0, 0, 0
145, 0, 0, 0
146, 0, 0, 0
147, 0, 0, 0
148, 0, 0, 0
149, 0, 0, 0
150, 0, 0, 0
151, 0, 0, 0
152, 0, 0, 0
153, 0, 0, 0
154, 0, 0, 0
155, 0, 0, 0
156, 0, 0, 0
157, 0, 0, 0
158, 0, 0, 0
159, 0, 0, 0
160, 0, 0, 0
161, 0, 0, 0
162, 0, 0, 0
163, 0, 0, 0
164, 0, 0, 0
165, 0, 0, 0
166, 0, 0, 0
167, 0, 0, 0
168, 0, 0, 0
169, 0, 0, 0
170, 0, 0, 0
171, 0, 0, 0
172, 0, 0, 0
173, 0, 0, 0
174, 0, 0, 0
175, 0, 0, 0
176, 0, 0, 0
177, 0, 0, 0
178, 0, 0, 0
179, 0, 0, 0
