# TOPAS Version: 3.3.p1
# Parameter File: Simple_Pattern.txt
# Results for scorer MLIC_Scorer
# Scored in component: MLIC
# X in 180 bins of 0.222222 cm
# Y in 1 bin  of 10 cm
# Z in 1 bin  of 10 cm
# EnergyDeposit ( MeV ) : Sum   
0, 0, 0, 1158.680053710938
1, 0, 0, 1159.393676757812
2, 0, 0, 1165.784423828125
3, 0, 0, 1165.602172851562
4, 0, 0, 1175.18798828125
5, 0, 0, 1178.72265625
6, 0, 0, 1185.794067382812
7, 0, 0, 1202.707885742188
8, 0, 0, 1201.300170898438
9, 0, 0, 1204.974853515625
10, 0, 0, 1218.4619140625
11, 0, 0, 1226.039794921875
12, 0, 0, 1224.384887695312
13, 0, 0, 1242.243041992188
14, 0, 0, 1251.70751953125
15, 0, 0, 1255.249389648438
16, 0, 0, 1257.793334960938
17, 0, 0, 1271.073608398438
18, 0, 0, 1271.866333007812
19, 0, 0, 1281.444213867188
20, 0, 0, 1285.043823242188
21, 0, 0, 1302.390502929688
22, 0, 0, 1316.04638671875
23, 0, 0, 1320.544067382812
24, 0, 0, 1338.221923828125
25, 0, 0, 1357.52685546875
26, 0, 0, 1361.807861328125
27, 0, 0, 1370.17626953125
28, 0, 0, 1371.720581054688
29, 0, 0, 1389.334228515625
30, 0, 0, 1395.294555664062
31, 0, 0, 1400.5673828125
32, 0, 0, 1422.68701171875
33, 0, 0, 1428.564575195312
34, 0, 0, 1442.7998046875
35, 0, 0, 1456.998168945312
36, 0, 0, 1474.910766601562
37, 0, 0, 1486.096435546875
38, 0, 0, 1499.448974609375
39, 0, 0, 1509.998657226562
40, 0, 0, 1521.019775390625
41, 0, 0, 1535.433471679688
42, 0, 0, 1563.770263671875
43, 0, 0, 1577.96240234375
44, 0, 0, 1596.430541992188
45, 0, 0, 1619.688354492188
46, 0, 0, 1637.52294921875
47, 0, 0, 1657.223754882812
48, 0, 0, 1682.118286132812
49, 0, 0, 1711.3798828125
50, 0, 0, 1715.229248046875
51, 0, 0, 1752.308227539062
52, 0, 0, 1781.356323242188
53, 0, 0, 1808.900512695312
54, 0, 0, 1839.90478515625
55, 0, 0, 1865.830322265625
56, 0, 0, 1902.245971679688
57, 0, 0, 1948.488403320312
58, 0, 0, 1974.848754882812
59, 0, 0, 2010.708618164062
60, 0, 0, 2049.14892578125
61, 0, 0, 2106.60498046875
62, 0, 0, 2148.56640625
63, 0, 0, 2214.29345703125
64, 0, 0, 2274.856201171875
65, 0, 0, 2338.5263671875
66, 0, 0, 2418.08984375
67, 0, 0, 2495.151611328125
68, 0, 0, 2594.294189453125
69, 0, 0, 2705.750244140625
70, 0, 0, 2817.7119140625
71, 0, 0, 2969.742919921875
72, 0, 0, 3144.198974609375
73, 0, 0, 3380.645751953125
74, 0, 0, 3652.02392578125
75, 0, 0, 4083.930419921875
76, 0, 0, 4706.3125
77, 0, 0, 5484.01318359375
78, 0, 0, 6091.203125
79, 0, 0, 5802.35498046875
80, 0, 0, 4132.31689453125
81, 0, 0, 2329.289306640625
82, 0, 0, 909.21484375
83, 0, 0, 259.4574584960938
84, 0, 0, 119.7497024536133
85, 0, 0, 89.40159606933594
86, 0, 0, 47.88527297973633
87, 0, 0, 59.33404159545898
88, 0, 0, 32.50554275512695
89, 0, 0, 45.5015869140625
90, 0, 0, 14.16884803771973
91, 0, 0, 8.256870269775391
92, 0, 0, 8.927684783935547
93, 0, 0, 0
94, 0, 0, 0
95, 0, 0, 0
96, 0, 0, 0
97, 0, 0, 0
98, 0, 0, 0
99, 0, 0, 0
100, 0, 0, 0
101, 0, 0, 0
102, 0, 0, 0.008221455849707127
103, 0, 0, 0
104, 0, 0, 0
105, 0, 0, 0
106, 0, 0, 0
107, 0, 0, 0
108, 0, 0, 0
109, 0, 0, 0
110, 0, 0, 0
111, 0, 0, 0
112, 0, 0, 0
113, 0, 0, 0
114, 0, 0, 0
115, 0, 0, 0
116, 0, 0, 0
117, 0, 0, 0
118, 0, 0, 0
119, 0, 0, 0
120, 0, 0, 0
121, 0, 0, 0
122, 0, 0, 0
123, 0, 0, 0
124, 0, 0, 0
125, 0, 0, 0
126, 0, 0, 0
127, 0, 0, 0
128, 0, 0, 0
129, 0, 0, 0
130, 0, 0, 0
131, 0, 0, 0
132, 0, 0, 0
133, 0, 0, 0
134, 0, 0, 0
135, 0, 0, 0
136, 0, 0, 0
137, 0, 0, 0
138, 0, 0, 0
139, 0, 0, 0
140, 0, 0, 0
141, 0, 0, 0
142, 0, 0, 0
143, 0, 0, 0
144, 0, 0, 0
145, 0, 0, 0
146, 0, 0, 0
147, 0, 0, 0
148, 0, 0, 0
149, 0, 0, 0
150, 0, 0, 0
151, 0, 0, 0
152, 0, 0, 0
153, 0, 0, 0
154, 0, 0, 0
155, 0, 0, 0
156, 0, 0, 0
157, 0, 0, 0
158, 0, 0, 0
159, 0, 0, 0
160, 0, 0, 0
161, 0, 0, 0
162, 0, 0, 0
163, 0, 0, 0
164, 0, 0, 0
165, 0, 0, 0
166, 0, 0, 0
167, 0, 0, 0
168, 0, 0, 0
169, 0, 0, 0
170, 0, 0, 0
171, 0, 0, 0
172, 0, 0, 0
173, 0, 0, 0
174, 0, 0, 0
175, 0, 0, 0
176, 0, 0, 0
177, 0, 0, 0
178, 0, 0, 0
179, 0, 0, 0
