# TOPAS Version: 3.3.p1
# Parameter File: Simple_Pattern.txt
# Results for scorer MLIC_Scorer
# Scored in component: MLIC
# X in 180 bins of 0.222222 cm
# Y in 1 bin  of 10 cm
# Z in 1 bin  of 10 cm
# EnergyDeposit ( MeV ) : Sum   
0, 0, 0, 208.6384887695312
1, 0, 0, 209.0206146240234
2, 0, 0, 212.9605560302734
3, 0, 0, 210.6598510742188
4, 0, 0, 216.9339294433594
5, 0, 0, 213.6795349121094
6, 0, 0, 214.0152435302734
7, 0, 0, 217.6177368164062
8, 0, 0, 221.5386352539062
9, 0, 0, 220.0485534667969
10, 0, 0, 218.373046875
11, 0, 0, 219.0065765380859
12, 0, 0, 222.5182495117188
13, 0, 0, 222.8904571533203
14, 0, 0, 219.6795959472656
15, 0, 0, 221.3317718505859
16, 0, 0, 227.1262969970703
17, 0, 0, 224.2533416748047
18, 0, 0, 229.3388824462891
19, 0, 0, 231.8533782958984
20, 0, 0, 228.9403533935547
21, 0, 0, 228.7340545654297
22, 0, 0, 234.9076690673828
23, 0, 0, 232.6986083984375
24, 0, 0, 234.6006774902344
25, 0, 0, 237.6117248535156
26, 0, 0, 240.2128143310547
27, 0, 0, 240.490234375
28, 0, 0, 244.0997619628906
29, 0, 0, 246.5387115478516
30, 0, 0, 244.7104034423828
31, 0, 0, 249.2097625732422
32, 0, 0, 249.4083404541016
33, 0, 0, 251.8558349609375
34, 0, 0, 250.9189605712891
35, 0, 0, 253.0809783935547
36, 0, 0, 251.2799377441406
37, 0, 0, 257.6683654785156
38, 0, 0, 259.2459716796875
39, 0, 0, 260.8050537109375
40, 0, 0, 261.8115234375
41, 0, 0, 265.0027770996094
42, 0, 0, 266.144775390625
43, 0, 0, 272.59814453125
44, 0, 0, 267.6632385253906
45, 0, 0, 273.2878723144531
46, 0, 0, 275.2657775878906
47, 0, 0, 276.3440246582031
48, 0, 0, 279.7670593261719
49, 0, 0, 285.5332946777344
50, 0, 0, 284.127685546875
51, 0, 0, 288.1945495605469
52, 0, 0, 294.1226196289062
53, 0, 0, 296.4693298339844
54, 0, 0, 297.295654296875
55, 0, 0, 299.9633483886719
56, 0, 0, 305.2237243652344
57, 0, 0, 306.8593444824219
58, 0, 0, 316.7667236328125
59, 0, 0, 313.5975646972656
60, 0, 0, 318.5805358886719
61, 0, 0, 323.8248596191406
62, 0, 0, 326.7921142578125
63, 0, 0, 331.060791015625
64, 0, 0, 339.4840087890625
65, 0, 0, 345.2771911621094
66, 0, 0, 350.4496459960938
67, 0, 0, 354.1296081542969
68, 0, 0, 363.8549499511719
69, 0, 0, 366.5142822265625
70, 0, 0, 371.4348754882812
71, 0, 0, 383.6127014160156
72, 0, 0, 389.9264831542969
73, 0, 0, 395.0783996582031
74, 0, 0, 405.9837036132812
75, 0, 0, 416.3138732910156
76, 0, 0, 428.5513305664062
77, 0, 0, 439.4136352539062
78, 0, 0, 452.0804138183594
79, 0, 0, 468.11328125
80, 0, 0, 483.7257385253906
81, 0, 0, 497.3416748046875
82, 0, 0, 519.3883056640625
83, 0, 0, 546.5861206054688
84, 0, 0, 568.7255859375
85, 0, 0, 605.6190185546875
86, 0, 0, 649.1565551757812
87, 0, 0, 700.7760009765625
88, 0, 0, 776.0087890625
89, 0, 0, 889.61572265625
90, 0, 0, 1089.101318359375
91, 0, 0, 1217.638427734375
92, 0, 0, 1182.882080078125
93, 0, 0, 883.9991455078125
94, 0, 0, 414.42333984375
95, 0, 0, 128.2478637695312
96, 0, 0, 30.49755096435547
97, 0, 0, 0
98, 0, 0, 0
99, 0, 0, 0
100, 0, 0, 0
101, 0, 0, 0
102, 0, 0, 0
103, 0, 0, 0
104, 0, 0, 0
105, 0, 0, 0
106, 0, 0, 0
107, 0, 0, 0
108, 0, 0, 0
109, 0, 0, 0
110, 0, 0, 0
111, 0, 0, 0
112, 0, 0, 0
113, 0, 0, 0
114, 0, 0, 0
115, 0, 0, 0
116, 0, 0, 0
117, 0, 0, 0
118, 0, 0, 0
119, 0, 0, 0
120, 0, 0, 0
121, 0, 0, 0
122, 0, 0, 0
123, 0, 0, 0
124, 0, 0, 0
125, 0, 0, 0
126, 0, 0, 0
127, 0, 0, 0
128, 0, 0, 0
129, 0, 0, 0
130, 0, 0, 0
131, 0, 0, 0
132, 0, 0, 0
133, 0, 0, 0
134, 0, 0, 0
135, 0, 0, 0
136, 0, 0, 0
137, 0, 0, 0
138, 0, 0, 0
139, 0, 0, 0
140, 0, 0, 0
141, 0, 0, 0
142, 0, 0, 0
143, 0, 0, 0
144, 0, 0, 0
145, 0, 0, 0
146, 0, 0, 0
147, 0, 0, 0
148, 0, 0, 0
149, 0, 0, 0
150, 0, 0, 0
151, 0, 0, 0
152, 0, 0, 0
153, 0, 0, 0
154, 0, 0, 0
155, 0, 0, 0
156, 0, 0, 0
157, 0, 0, 0
158, 0, 0, 0
159, 0, 0, 0
160, 0, 0, 0
161, 0, 0, 0
162, 0, 0, 0
163, 0, 0, 0
164, 0, 0, 0
165, 0, 0, 0
166, 0, 0, 0
167, 0, 0, 0
168, 0, 0, 0
169, 0, 0, 0
170, 0, 0, 0
171, 0, 0, 0
172, 0, 0, 0
173, 0, 0, 0
174, 0, 0, 0
175, 0, 0, 0
176, 0, 0, 0
177, 0, 0, 0
178, 0, 0, 0
179, 0, 0, 0
