# TOPAS Version: 3.3.p1
# Parameter File: Simple_Pattern.txt
# Results for scorer MLIC_Scorer
# Scored in component: MLIC
# X in 180 bins of 0.222222 cm
# Y in 1 bin  of 10 cm
# Z in 1 bin  of 10 cm
# EnergyDeposit ( MeV ) : Sum   
0, 0, 0, 1089.767700195312
1, 0, 0, 1098.864013671875
2, 0, 0, 1105.736938476562
3, 0, 0, 1096.819458007812
4, 0, 0, 1112.987548828125
5, 0, 0, 1112.697387695312
6, 0, 0, 1120.91064453125
7, 0, 0, 1117.698852539062
8, 0, 0, 1128.608154296875
9, 0, 0, 1136.089599609375
10, 0, 0, 1161.707275390625
11, 0, 0, 1133.262939453125
12, 0, 0, 1139.953491210938
13, 0, 0, 1155.402221679688
14, 0, 0, 1159.344482421875
15, 0, 0, 1160.987915039062
16, 0, 0, 1168.6796875
17, 0, 0, 1180.548461914062
18, 0, 0, 1180.18603515625
19, 0, 0, 1191.63818359375
20, 0, 0, 1199.687133789062
21, 0, 0, 1199.681396484375
22, 0, 0, 1200.9169921875
23, 0, 0, 1206.814453125
24, 0, 0, 1225.998291015625
25, 0, 0, 1217.701049804688
26, 0, 0, 1230.562255859375
27, 0, 0, 1239.324584960938
28, 0, 0, 1254.479248046875
29, 0, 0, 1254.10595703125
30, 0, 0, 1265.002197265625
31, 0, 0, 1277.497314453125
32, 0, 0, 1280.284912109375
33, 0, 0, 1284.98974609375
34, 0, 0, 1295.932373046875
35, 0, 0, 1313.659057617188
36, 0, 0, 1314.9609375
37, 0, 0, 1331.36962890625
38, 0, 0, 1339.378540039062
39, 0, 0, 1344.7705078125
40, 0, 0, 1357.379272460938
41, 0, 0, 1363.743896484375
42, 0, 0, 1378.328247070312
43, 0, 0, 1395.497924804688
44, 0, 0, 1401.659423828125
45, 0, 0, 1413.0283203125
46, 0, 0, 1434.43603515625
47, 0, 0, 1441.806030273438
48, 0, 0, 1459.614868164062
49, 0, 0, 1474.560668945312
50, 0, 0, 1478.324462890625
51, 0, 0, 1501.76171875
52, 0, 0, 1500.089111328125
53, 0, 0, 1528.049194335938
54, 0, 0, 1548.118774414062
55, 0, 0, 1556.670776367188
56, 0, 0, 1579.2880859375
57, 0, 0, 1589.90087890625
58, 0, 0, 1617.719116210938
59, 0, 0, 1639.75390625
60, 0, 0, 1663.82275390625
61, 0, 0, 1674.831298828125
62, 0, 0, 1688.353881835938
63, 0, 0, 1731.190795898438
64, 0, 0, 1756.470458984375
65, 0, 0, 1774.6533203125
66, 0, 0, 1797.7392578125
67, 0, 0, 1847.132446289062
68, 0, 0, 1867.092163085938
69, 0, 0, 1904.60791015625
70, 0, 0, 1931.844360351562
71, 0, 0, 1970.5927734375
72, 0, 0, 2013.032104492188
73, 0, 0, 2052.091796875
74, 0, 0, 2103.958740234375
75, 0, 0, 2164.487548828125
76, 0, 0, 2208.906494140625
77, 0, 0, 2273.10791015625
78, 0, 0, 2341.99365234375
79, 0, 0, 2409.61669921875
80, 0, 0, 2491.167236328125
81, 0, 0, 2581.415771484375
82, 0, 0, 2697.409912109375
83, 0, 0, 2820.42236328125
84, 0, 0, 2971.66357421875
85, 0, 0, 3144.30078125
86, 0, 0, 3364.0908203125
87, 0, 0, 3644.760986328125
88, 0, 0, 4044.030517578125
89, 0, 0, 4623.71533203125
90, 0, 0, 5550.111328125
91, 0, 0, 6180.56787109375
92, 0, 0, 6040.3544921875
93, 0, 0, 4121.1494140625
94, 0, 0, 2093.203369140625
95, 0, 0, 782.1654663085938
96, 0, 0, 99.32894897460938
97, 0, 0, 0.006598304025828838
98, 0, 0, 0.04243112355470657
99, 0, 0, 0
100, 0, 0, 0
101, 0, 0, 0
102, 0, 0, 0
103, 0, 0, 0
104, 0, 0, 0
105, 0, 0, 0
106, 0, 0, 0
107, 0, 0, 0.003356107044965029
108, 0, 0, 0
109, 0, 0, 0
110, 0, 0, 0.04466219618916512
111, 0, 0, 0
112, 0, 0, 0
113, 0, 0, 0
114, 0, 0, 0
115, 0, 0, 0
116, 0, 0, 0.005876040086150169
117, 0, 0, 0
118, 0, 0, 0
119, 0, 0, 0
120, 0, 0, 0
121, 0, 0, 0
122, 0, 0, 0
123, 0, 0, 0
124, 0, 0, 0
125, 0, 0, 0
126, 0, 0, 0
127, 0, 0, 0
128, 0, 0, 0
129, 0, 0, 0
130, 0, 0, 0
131, 0, 0, 0
132, 0, 0, 0
133, 0, 0, 0
134, 0, 0, 0
135, 0, 0, 0
136, 0, 0, 0
137, 0, 0, 0
138, 0, 0, 0
139, 0, 0, 0
140, 0, 0, 0
141, 0, 0, 0
142, 0, 0, 0
143, 0, 0, 0
144, 0, 0, 0
145, 0, 0, 0
146, 0, 0, 0
147, 0, 0, 0
148, 0, 0, 0
149, 0, 0, 0
150, 0, 0, 0
151, 0, 0, 0
152, 0, 0, 0
153, 0, 0, 0
154, 0, 0, 0
155, 0, 0, 0
156, 0, 0, 0
157, 0, 0, 0
158, 0, 0, 0
159, 0, 0, 0
160, 0, 0, 0
161, 0, 0, 0
162, 0, 0, 0
163, 0, 0, 0
164, 0, 0, 0
165, 0, 0, 0
166, 0, 0, 0
167, 0, 0, 0
168, 0, 0, 0
169, 0, 0, 0
170, 0, 0, 0
171, 0, 0, 0
172, 0, 0, 0
173, 0, 0, 0
174, 0, 0, 0
175, 0, 0, 0
176, 0, 0, 0
177, 0, 0, 0
178, 0, 0, 0
179, 0, 0, 0
