# TOPAS Version: 3.3.p1
# Parameter File: Simple_Pattern.txt
# Results for scorer MLIC_Scorer
# Scored in component: MLIC
# X in 180 bins of 0.222222 cm
# Y in 1 bin  of 10 cm
# Z in 1 bin  of 10 cm
# EnergyDeposit ( MeV ) : Sum   
0, 0, 0, 1098.106811523438
1, 0, 0, 1098.31494140625
2, 0, 0, 1096.063354492188
3, 0, 0, 1098.3037109375
4, 0, 0, 1114.785522460938
5, 0, 0, 1108.40625
6, 0, 0, 1111.37353515625
7, 0, 0, 1116.656494140625
8, 0, 0, 1125.483154296875
9, 0, 0, 1135.823852539062
10, 0, 0, 1143.42138671875
11, 0, 0, 1146.87060546875
12, 0, 0, 1144.0771484375
13, 0, 0, 1154.796508789062
14, 0, 0, 1148.787475585938
15, 0, 0, 1164.35888671875
16, 0, 0, 1175.302978515625
17, 0, 0, 1172.296020507812
18, 0, 0, 1184.250122070312
19, 0, 0, 1188.611694335938
20, 0, 0, 1195.438598632812
21, 0, 0, 1205.637573242188
22, 0, 0, 1212.120483398438
23, 0, 0, 1218.234741210938
24, 0, 0, 1219.343139648438
25, 0, 0, 1226.17333984375
26, 0, 0, 1236.935180664062
27, 0, 0, 1244.86474609375
28, 0, 0, 1250.647583007812
29, 0, 0, 1261.494140625
30, 0, 0, 1266.789794921875
31, 0, 0, 1270.449462890625
32, 0, 0, 1277.6337890625
33, 0, 0, 1288.63525390625
34, 0, 0, 1295.82080078125
35, 0, 0, 1305.13671875
36, 0, 0, 1316.111938476562
37, 0, 0, 1328.495727539062
38, 0, 0, 1341.839111328125
39, 0, 0, 1350.006469726562
40, 0, 0, 1357.133911132812
41, 0, 0, 1373.054931640625
42, 0, 0, 1380.624389648438
43, 0, 0, 1390.171630859375
44, 0, 0, 1408.826416015625
45, 0, 0, 1407.983154296875
46, 0, 0, 1434.283569335938
47, 0, 0, 1438.96240234375
48, 0, 0, 1458.7578125
49, 0, 0, 1468.588623046875
50, 0, 0, 1483.160766601562
51, 0, 0, 1500.171264648438
52, 0, 0, 1514.033935546875
53, 0, 0, 1526.507568359375
54, 0, 0, 1538.184936523438
55, 0, 0, 1552.288818359375
56, 0, 0, 1581.402587890625
57, 0, 0, 1597.10302734375
58, 0, 0, 1619.189331054688
59, 0, 0, 1626.686279296875
60, 0, 0, 1660.089965820312
61, 0, 0, 1675.362182617188
62, 0, 0, 1697.647583007812
63, 0, 0, 1721.989868164062
64, 0, 0, 1738.943481445312
65, 0, 0, 1774.45458984375
66, 0, 0, 1796.920776367188
67, 0, 0, 1826.930053710938
68, 0, 0, 1869.939086914062
69, 0, 0, 1903.036376953125
70, 0, 0, 1932.241943359375
71, 0, 0, 1964.882690429688
72, 0, 0, 2014.418701171875
73, 0, 0, 2046.628173828125
74, 0, 0, 2093.5078125
75, 0, 0, 2148.0615234375
76, 0, 0, 2199.07568359375
77, 0, 0, 2251.5458984375
78, 0, 0, 2320.40673828125
79, 0, 0, 2400.774658203125
80, 0, 0, 2474.9775390625
81, 0, 0, 2572.977783203125
82, 0, 0, 2677.36669921875
83, 0, 0, 2794.89892578125
84, 0, 0, 2934.08203125
85, 0, 0, 3118.728515625
86, 0, 0, 3324.533447265625
87, 0, 0, 3590.420654296875
88, 0, 0, 3993.744384765625
89, 0, 0, 4554.4951171875
90, 0, 0, 5447.7578125
91, 0, 0, 5990.30615234375
92, 0, 0, 5918.5947265625
93, 0, 0, 4141.96826171875
94, 0, 0, 2131.142578125
95, 0, 0, 654.0798950195312
96, 0, 0, 134.6075134277344
97, 0, 0, 30.93695259094238
98, 0, 0, 0
99, 0, 0, 0
100, 0, 0, 0
101, 0, 0, 0
102, 0, 0, 0
103, 0, 0, 0
104, 0, 0, 0
105, 0, 0, 0.001253756228834391
106, 0, 0, 0.0008751182467676699
107, 0, 0, 0
108, 0, 0, 0
109, 0, 0, 0
110, 0, 0, 0
111, 0, 0, 0
112, 0, 0, 0
113, 0, 0, 0
114, 0, 0, 0
115, 0, 0, 0
116, 0, 0, 0
117, 0, 0, 0
118, 0, 0, 0
119, 0, 0, 0
120, 0, 0, 0
121, 0, 0, 0
122, 0, 0, 0
123, 0, 0, 0
124, 0, 0, 0
125, 0, 0, 0
126, 0, 0, 0
127, 0, 0, 0
128, 0, 0, 0
129, 0, 0, 0
130, 0, 0, 0
131, 0, 0, 0
132, 0, 0, 0
133, 0, 0, 0
134, 0, 0, 0
135, 0, 0, 0
136, 0, 0, 0
137, 0, 0, 0
138, 0, 0, 0
139, 0, 0, 0
140, 0, 0, 0
141, 0, 0, 0
142, 0, 0, 0
143, 0, 0, 0
144, 0, 0, 0
145, 0, 0, 0
146, 0, 0, 0
147, 0, 0, 0
148, 0, 0, 0
149, 0, 0, 0
150, 0, 0, 0
151, 0, 0, 0
152, 0, 0, 0
153, 0, 0, 0
154, 0, 0, 0
155, 0, 0, 0
156, 0, 0, 0
157, 0, 0, 0
158, 0, 0, 0
159, 0, 0, 0
160, 0, 0, 0
161, 0, 0, 0
162, 0, 0, 0
163, 0, 0, 0
164, 0, 0, 0
165, 0, 0, 0
166, 0, 0, 0
167, 0, 0, 0
168, 0, 0, 0
169, 0, 0, 0
170, 0, 0, 0
171, 0, 0, 0
172, 0, 0, 0
173, 0, 0, 0
174, 0, 0, 0
175, 0, 0, 0
176, 0, 0, 0
177, 0, 0, 0
178, 0, 0, 0
179, 0, 0, 0
