# TOPAS Version: 3.3.p1
# Parameter File: Simple_Pattern.txt
# Results for scorer MLIC_Scorer
# Scored in component: MLIC
# X in 180 bins of 0.222222 cm
# Y in 1 bin  of 10 cm
# Z in 1 bin  of 10 cm
# EnergyDeposit ( MeV ) : Sum   
0, 0, 0, 1090.8779296875
1, 0, 0, 1086.7353515625
2, 0, 0, 1100.41748046875
3, 0, 0, 1088.715209960938
4, 0, 0, 1103.568359375
5, 0, 0, 1113.591064453125
6, 0, 0, 1114.408081054688
7, 0, 0, 1119.319702148438
8, 0, 0, 1124.447509765625
9, 0, 0, 1115.67431640625
10, 0, 0, 1129.167358398438
11, 0, 0, 1134.302124023438
12, 0, 0, 1138.65576171875
13, 0, 0, 1145.142333984375
14, 0, 0, 1141.14013671875
15, 0, 0, 1150.7958984375
16, 0, 0, 1156.779907226562
17, 0, 0, 1154.172119140625
18, 0, 0, 1167.4111328125
19, 0, 0, 1167.818969726562
20, 0, 0, 1174.504272460938
21, 0, 0, 1176.362548828125
22, 0, 0, 1185.571533203125
23, 0, 0, 1197.588256835938
24, 0, 0, 1196.4345703125
25, 0, 0, 1201.3984375
26, 0, 0, 1205.105590820312
27, 0, 0, 1210.547607421875
28, 0, 0, 1206.216796875
29, 0, 0, 1217.385375976562
30, 0, 0, 1218.0625
31, 0, 0, 1224.146606445312
32, 0, 0, 1231.815185546875
33, 0, 0, 1239.573364257812
34, 0, 0, 1255.705078125
35, 0, 0, 1251.800659179688
36, 0, 0, 1248.182861328125
37, 0, 0, 1264.14306640625
38, 0, 0, 1269.687377929688
39, 0, 0, 1267.472045898438
40, 0, 0, 1281.853881835938
41, 0, 0, 1295.170288085938
42, 0, 0, 1300.286987304688
43, 0, 0, 1293.82373046875
44, 0, 0, 1297.802734375
45, 0, 0, 1310.003784179688
46, 0, 0, 1315.60009765625
47, 0, 0, 1317.666015625
48, 0, 0, 1334.590209960938
49, 0, 0, 1339.677612304688
50, 0, 0, 1337.854736328125
51, 0, 0, 1348.387451171875
52, 0, 0, 1356.495727539062
53, 0, 0, 1379.990600585938
54, 0, 0, 1387.767333984375
55, 0, 0, 1406.796020507812
56, 0, 0, 1404.015747070312
57, 0, 0, 1419.773071289062
58, 0, 0, 1437.070922851562
59, 0, 0, 1438.724243164062
60, 0, 0, 1451.977905273438
61, 0, 0, 1472.341918945312
62, 0, 0, 1480.4365234375
63, 0, 0, 1504.70947265625
64, 0, 0, 1515.950805664062
65, 0, 0, 1535.082763671875
66, 0, 0, 1555.258056640625
67, 0, 0, 1573.097900390625
68, 0, 0, 1595.636352539062
69, 0, 0, 1623.268798828125
70, 0, 0, 1640.939575195312
71, 0, 0, 1668.156372070312
72, 0, 0, 1696.98828125
73, 0, 0, 1727.753295898438
74, 0, 0, 1776.172973632812
75, 0, 0, 1805.832153320312
76, 0, 0, 1839.341186523438
77, 0, 0, 1876.052490234375
78, 0, 0, 1937.774169921875
79, 0, 0, 1984.634155273438
80, 0, 0, 2051.29443359375
81, 0, 0, 2120.190185546875
82, 0, 0, 2201.32666015625
83, 0, 0, 2295.29931640625
84, 0, 0, 2404.4794921875
85, 0, 0, 2537.98583984375
86, 0, 0, 2695.836181640625
87, 0, 0, 2916.3359375
88, 0, 0, 3233.296875
89, 0, 0, 3655.463623046875
90, 0, 0, 4289.048828125
91, 0, 0, 4815.95263671875
92, 0, 0, 4603.90283203125
93, 0, 0, 3302.382080078125
94, 0, 0, 1556.914916992188
95, 0, 0, 453.6329956054688
96, 0, 0, 109.493034362793
97, 0, 0, 4.368231296539307
98, 0, 0, 0.03796951472759247
99, 0, 0, 0.01760365627706051
100, 0, 0, 0.01381231192499399
101, 0, 0, 0.1592465192079544
102, 0, 0, 0
103, 0, 0, 0.03432001918554306
104, 0, 0, 0.0744403749704361
105, 0, 0, 0.0430135503411293
106, 0, 0, 0.02099869959056377
107, 0, 0, 0.1144286841154099
108, 0, 0, 0
109, 0, 0, 0.02730009704828262
110, 0, 0, 0
111, 0, 0, 0
112, 0, 0, 0
113, 0, 0, 0
114, 0, 0, 0
115, 0, 0, 0
116, 0, 0, 0
117, 0, 0, 0
118, 0, 0, 0
119, 0, 0, 0
120, 0, 0, 0
121, 0, 0, 0
122, 0, 0, 0
123, 0, 0, 0
124, 0, 0, 0
125, 0, 0, 0.02816490083932877
126, 0, 0, 0
127, 0, 0, 0
128, 0, 0, 0.05060838907957077
129, 0, 0, 0
130, 0, 0, 0.008457720279693604
131, 0, 0, 0
132, 0, 0, 0
133, 0, 0, 0
134, 0, 0, 0
135, 0, 0, 0
136, 0, 0, 0.0006065618945285678
137, 0, 0, 0.01247332058846951
138, 0, 0, 0
139, 0, 0, 0
140, 0, 0, 0
141, 0, 0, 0.03298602998256683
142, 0, 0, 0
143, 0, 0, 0.0101459538564086
144, 0, 0, 0
145, 0, 0, 0
146, 0, 0, 0
147, 0, 0, 0
148, 0, 0, 0
149, 0, 0, 0
150, 0, 0, 0.03197578340768814
151, 0, 0, 0
152, 0, 0, 0
153, 0, 0, 0
154, 0, 0, 0
155, 0, 0, 0.09767773002386093
156, 0, 0, 0
157, 0, 0, 0
158, 0, 0, 0
159, 0, 0, 0
160, 0, 0, 0
161, 0, 0, 0
162, 0, 0, 0
163, 0, 0, 0
164, 0, 0, 0
165, 0, 0, 0
166, 0, 0, 0
167, 0, 0, 0
168, 0, 0, 0
169, 0, 0, 0
170, 0, 0, 0
171, 0, 0, 0.03541122749447823
172, 0, 0, 0
173, 0, 0, 0
174, 0, 0, 0
175, 0, 0, 0
176, 0, 0, 0
177, 0, 0, 0.001013198983855546
178, 0, 0, 0
179, 0, 0, 0.02276712842285633
