# TOPAS Version: 3.3.p1
# Parameter File: Simple_Pattern.txt
# Results for scorer MLIC_Scorer
# Scored in component: MLIC
# X in 180 bins of 0.222222 cm
# Y in 1 bin  of 10 cm
# Z in 1 bin  of 10 cm
# EnergyDeposit ( MeV ) : Sum   
0, 0, 0, 34.91120529174805
1, 0, 0, 34.5482063293457
2, 0, 0, 35.6138801574707
3, 0, 0, 34.2303581237793
4, 0, 0, 34.14308929443359
5, 0, 0, 34.64372253417969
6, 0, 0, 34.66331100463867
7, 0, 0, 35.76651382446289
8, 0, 0, 34.68938064575195
9, 0, 0, 36.12369918823242
10, 0, 0, 34.87380981445312
11, 0, 0, 34.21677780151367
12, 0, 0, 36.08485794067383
13, 0, 0, 35.21500396728516
14, 0, 0, 36.13414764404297
15, 0, 0, 36.012451171875
16, 0, 0, 36.0210075378418
17, 0, 0, 37.86647415161133
18, 0, 0, 36.16655731201172
19, 0, 0, 36.51279449462891
20, 0, 0, 36.47573471069336
21, 0, 0, 37.45857238769531
22, 0, 0, 38.68210983276367
23, 0, 0, 38.94176483154297
24, 0, 0, 37.9411506652832
25, 0, 0, 38.61252212524414
26, 0, 0, 38.68309020996094
27, 0, 0, 39.78424453735352
28, 0, 0, 39.43685150146484
29, 0, 0, 38.92159652709961
30, 0, 0, 39.70571517944336
31, 0, 0, 39.89498519897461
32, 0, 0, 40.15427780151367
33, 0, 0, 39.52084350585938
34, 0, 0, 40.57658767700195
35, 0, 0, 40.13167572021484
36, 0, 0, 39.55267715454102
37, 0, 0, 42.15736389160156
38, 0, 0, 41.49332809448242
39, 0, 0, 42.32099914550781
40, 0, 0, 41.73473739624023
41, 0, 0, 43.03684616088867
42, 0, 0, 43.13228607177734
43, 0, 0, 43.07805633544922
44, 0, 0, 44.17076873779297
45, 0, 0, 44.41098403930664
46, 0, 0, 44.40618896484375
47, 0, 0, 44.86271667480469
48, 0, 0, 46.88596725463867
49, 0, 0, 45.86252975463867
50, 0, 0, 46.52508926391602
51, 0, 0, 45.67700576782227
52, 0, 0, 47.62107849121094
53, 0, 0, 48.71398162841797
54, 0, 0, 48.57471084594727
55, 0, 0, 47.99304580688477
56, 0, 0, 48.55401992797852
57, 0, 0, 49.83773803710938
58, 0, 0, 50.46054077148438
59, 0, 0, 50.19542694091797
60, 0, 0, 51.19068145751953
61, 0, 0, 51.97246551513672
62, 0, 0, 53.05281066894531
63, 0, 0, 54.59085845947266
64, 0, 0, 54.06243515014648
65, 0, 0, 55.46817016601562
66, 0, 0, 56.85906982421875
67, 0, 0, 58.0898551940918
68, 0, 0, 57.91269683837891
69, 0, 0, 58.6215934753418
70, 0, 0, 61.20907211303711
71, 0, 0, 61.89178085327148
72, 0, 0, 62.94488525390625
73, 0, 0, 64.23059844970703
74, 0, 0, 66.69710540771484
75, 0, 0, 68.290771484375
76, 0, 0, 68.61277008056641
77, 0, 0, 72.44661712646484
78, 0, 0, 73.38784790039062
79, 0, 0, 75.08631134033203
80, 0, 0, 80.00645446777344
81, 0, 0, 82.33409118652344
82, 0, 0, 85.47771453857422
83, 0, 0, 88.05583953857422
84, 0, 0, 94.95330810546875
85, 0, 0, 99.56089019775391
86, 0, 0, 106.6295700073242
87, 0, 0, 117.3825912475586
88, 0, 0, 129.7347106933594
89, 0, 0, 152.943115234375
90, 0, 0, 200.7478179931641
91, 0, 0, 186.0590667724609
92, 0, 0, 190.8750610351562
93, 0, 0, 114.2570648193359
94, 0, 0, 34.35412216186523
95, 0, 0, 2.566224575042725
96, 0, 0, 0
97, 0, 0, 0
98, 0, 0, 0
99, 0, 0, 0
100, 0, 0, 0
101, 0, 0, 0
102, 0, 0, 0.03573627024888992
103, 0, 0, 0
104, 0, 0, 0
105, 0, 0, 0
106, 0, 0, 0
107, 0, 0, 0
108, 0, 0, 0
109, 0, 0, 0
110, 0, 0, 0
111, 0, 0, 0
112, 0, 0, 0
113, 0, 0, 0
114, 0, 0, 0
115, 0, 0, 0
116, 0, 0, 0
117, 0, 0, 0
118, 0, 0, 0
119, 0, 0, 0
120, 0, 0, 0
121, 0, 0, 0
122, 0, 0, 0
123, 0, 0, 0
124, 0, 0, 0
125, 0, 0, 0
126, 0, 0, 0
127, 0, 0, 0
128, 0, 0, 0
129, 0, 0, 0
130, 0, 0, 0
131, 0, 0, 0
132, 0, 0, 0
133, 0, 0, 0
134, 0, 0, 0
135, 0, 0, 0
136, 0, 0, 0
137, 0, 0, 0
138, 0, 0, 0
139, 0, 0, 0
140, 0, 0, 0
141, 0, 0, 0
142, 0, 0, 0
143, 0, 0, 0
144, 0, 0, 0
145, 0, 0, 0
146, 0, 0, 0
147, 0, 0, 0
148, 0, 0, 0
149, 0, 0, 0
150, 0, 0, 0
151, 0, 0, 0
152, 0, 0, 0
153, 0, 0, 0
154, 0, 0, 0
155, 0, 0, 0
156, 0, 0, 0
157, 0, 0, 0
158, 0, 0, 0
159, 0, 0, 0
160, 0, 0, 0
161, 0, 0, 0
162, 0, 0, 0
163, 0, 0, 0
164, 0, 0, 0
165, 0, 0, 0
166, 0, 0, 0
167, 0, 0, 0
168, 0, 0, 0
169, 0, 0, 0
170, 0, 0, 0
171, 0, 0, 0
172, 0, 0, 0
173, 0, 0, 0
174, 0, 0, 0
175, 0, 0, 0
176, 0, 0, 0
177, 0, 0, 0
178, 0, 0, 0
179, 0, 0, 0
