# TOPAS Version: 3.3.p1
# Parameter File: Simple_Pattern.txt
# Results for scorer MLIC_Scorer
# Scored in component: MLIC
# X in 180 bins of 0.222222 cm
# Y in 1 bin  of 10 cm
# Z in 1 bin  of 10 cm
# EnergyDeposit ( MeV ) : Sum   
0, 0, 0, 1089.2880859375
1, 0, 0, 1089.243530273438
2, 0, 0, 1092.629028320312
3, 0, 0, 1109.640869140625
4, 0, 0, 1098.358154296875
5, 0, 0, 1120.020874023438
6, 0, 0, 1116.846435546875
7, 0, 0, 1118.428100585938
8, 0, 0, 1127
9, 0, 0, 1128.912475585938
10, 0, 0, 1130.737182617188
11, 0, 0, 1132.620727539062
12, 0, 0, 1140.7216796875
13, 0, 0, 1157.723754882812
14, 0, 0, 1151.736694335938
15, 0, 0, 1162.529907226562
16, 0, 0, 1178.124633789062
17, 0, 0, 1171.320434570312
18, 0, 0, 1181.097534179688
19, 0, 0, 1197.543823242188
20, 0, 0, 1192.023803710938
21, 0, 0, 1193.3740234375
22, 0, 0, 1208.77587890625
23, 0, 0, 1209.655395507812
24, 0, 0, 1226.736328125
25, 0, 0, 1236.39599609375
26, 0, 0, 1234.952392578125
27, 0, 0, 1247.776123046875
28, 0, 0, 1241.470947265625
29, 0, 0, 1260.2763671875
30, 0, 0, 1264.298461914062
31, 0, 0, 1274.367431640625
32, 0, 0, 1276.833374023438
33, 0, 0, 1290.1455078125
34, 0, 0, 1302.723754882812
35, 0, 0, 1309.08251953125
36, 0, 0, 1317.616577148438
37, 0, 0, 1323.87109375
38, 0, 0, 1343.908813476562
39, 0, 0, 1343.117553710938
40, 0, 0, 1365.99169921875
41, 0, 0, 1379.520629882812
42, 0, 0, 1376.761474609375
43, 0, 0, 1393.3095703125
44, 0, 0, 1401.311279296875
45, 0, 0, 1417.401245117188
46, 0, 0, 1430.561767578125
47, 0, 0, 1435.151000976562
48, 0, 0, 1448.242309570312
49, 0, 0, 1470.36767578125
50, 0, 0, 1474.920166015625
51, 0, 0, 1502.711791992188
52, 0, 0, 1511.407958984375
53, 0, 0, 1525.396728515625
54, 0, 0, 1544.880004882812
55, 0, 0, 1553.601928710938
56, 0, 0, 1575.951171875
57, 0, 0, 1594.204345703125
58, 0, 0, 1611.899536132812
59, 0, 0, 1637.346435546875
60, 0, 0, 1653.519287109375
61, 0, 0, 1680.807373046875
62, 0, 0, 1702.451904296875
63, 0, 0, 1719.153930664062
64, 0, 0, 1742.465454101562
65, 0, 0, 1774.256713867188
66, 0, 0, 1803.622802734375
67, 0, 0, 1824.678100585938
68, 0, 0, 1863.06298828125
69, 0, 0, 1892.423217773438
70, 0, 0, 1934.646484375
71, 0, 0, 1962.749877929688
72, 0, 0, 2001.87890625
73, 0, 0, 2053.05908203125
74, 0, 0, 2098.952880859375
75, 0, 0, 2149.239501953125
76, 0, 0, 2209.618408203125
77, 0, 0, 2264.93505859375
78, 0, 0, 2331.523193359375
79, 0, 0, 2404.236572265625
80, 0, 0, 2482.19384765625
81, 0, 0, 2571.309814453125
82, 0, 0, 2671.47509765625
83, 0, 0, 2794.510986328125
84, 0, 0, 2922.765869140625
85, 0, 0, 3111.223876953125
86, 0, 0, 3329.087890625
87, 0, 0, 3608.90234375
88, 0, 0, 4010.372802734375
89, 0, 0, 4595.4619140625
90, 0, 0, 5587.064453125
91, 0, 0, 6226.05322265625
92, 0, 0, 5671.142578125
93, 0, 0, 4160.35693359375
94, 0, 0, 2170.046630859375
95, 0, 0, 665.1182861328125
96, 0, 0, 110.5985794067383
97, 0, 0, 17.80785942077637
98, 0, 0, 0
99, 0, 0, 0
100, 0, 0, 0
101, 0, 0, 0.007306857034564018
102, 0, 0, 0.004633859731256962
103, 0, 0, 0
104, 0, 0, 0
105, 0, 0, 0
106, 0, 0, 0
107, 0, 0, 0
108, 0, 0, 0
109, 0, 0, 0
110, 0, 0, 0.0009637443581596017
111, 0, 0, 0
112, 0, 0, 0
113, 0, 0, 0
114, 0, 0, 0
115, 0, 0, 0
116, 0, 0, 0
117, 0, 0, 0
118, 0, 0, 0
119, 0, 0, 0
120, 0, 0, 0
121, 0, 0, 0
122, 0, 0, 0
123, 0, 0, 0
124, 0, 0, 0
125, 0, 0, 0
126, 0, 0, 0
127, 0, 0, 0
128, 0, 0, 0
129, 0, 0, 0
130, 0, 0, 0
131, 0, 0, 0
132, 0, 0, 0
133, 0, 0, 0
134, 0, 0, 0.002811044687405229
135, 0, 0, 0
136, 0, 0, 0
137, 0, 0, 0
138, 0, 0, 0
139, 0, 0, 0
140, 0, 0, 0
141, 0, 0, 0
142, 0, 0, 0
143, 0, 0, 0
144, 0, 0, 0
145, 0, 0, 0
146, 0, 0, 0
147, 0, 0, 0
148, 0, 0, 0
149, 0, 0, 0
150, 0, 0, 0
151, 0, 0, 0
152, 0, 0, 0
153, 0, 0, 0
154, 0, 0, 0
155, 0, 0, 0
156, 0, 0, 0
157, 0, 0, 0
158, 0, 0, 0
159, 0, 0, 0
160, 0, 0, 0
161, 0, 0, 0
162, 0, 0, 0
163, 0, 0, 0
164, 0, 0, 0
165, 0, 0, 0
166, 0, 0, 0
167, 0, 0, 0
168, 0, 0, 0
169, 0, 0, 0
170, 0, 0, 0
171, 0, 0, 0
172, 0, 0, 0
173, 0, 0, 0
174, 0, 0, 0
175, 0, 0, 0
176, 0, 0, 0
177, 0, 0, 0
178, 0, 0, 0
179, 0, 0, 0
