# TOPAS Version: 3.3.p1
# Parameter File: Simple_Pattern.txt
# Results for scorer MLIC_Scorer
# Scored in component: MLIC
# X in 180 bins of 0.222222 cm
# Y in 1 bin  of 10 cm
# Z in 1 bin  of 10 cm
# EnergyDeposit ( MeV ) : Sum   
0, 0, 0, 1088.322631835938
1, 0, 0, 1085.39111328125
2, 0, 0, 1084.004272460938
3, 0, 0, 1103.884033203125
4, 0, 0, 1100.600341796875
5, 0, 0, 1112.147705078125
6, 0, 0, 1115.778076171875
7, 0, 0, 1119.280395507812
8, 0, 0, 1113.529418945312
9, 0, 0, 1123.95361328125
10, 0, 0, 1132.99365234375
11, 0, 0, 1139.892944335938
12, 0, 0, 1144.368408203125
13, 0, 0, 1145.505493164062
14, 0, 0, 1154.062133789062
15, 0, 0, 1158.935913085938
16, 0, 0, 1157.355590820312
17, 0, 0, 1160.919677734375
18, 0, 0, 1163.135375976562
19, 0, 0, 1161.189331054688
20, 0, 0, 1175.099243164062
21, 0, 0, 1177.46533203125
22, 0, 0, 1184.29296875
23, 0, 0, 1189.875
24, 0, 0, 1189.6904296875
25, 0, 0, 1199.124389648438
26, 0, 0, 1199.435913085938
27, 0, 0, 1207.204223632812
28, 0, 0, 1217.918823242188
29, 0, 0, 1220.447387695312
30, 0, 0, 1228.669677734375
31, 0, 0, 1231.267211914062
32, 0, 0, 1227.81005859375
33, 0, 0, 1239.117919921875
34, 0, 0, 1242.59912109375
35, 0, 0, 1245.699584960938
36, 0, 0, 1251.769287109375
37, 0, 0, 1259.242919921875
38, 0, 0, 1262.537963867188
39, 0, 0, 1270.334594726562
40, 0, 0, 1280.135131835938
41, 0, 0, 1284.065673828125
42, 0, 0, 1288.436157226562
43, 0, 0, 1297.616943359375
44, 0, 0, 1306.522216796875
45, 0, 0, 1310.402709960938
46, 0, 0, 1312.044189453125
47, 0, 0, 1323.179931640625
48, 0, 0, 1326.277221679688
49, 0, 0, 1335.845703125
50, 0, 0, 1338.732788085938
51, 0, 0, 1347.56884765625
52, 0, 0, 1363.30859375
53, 0, 0, 1375.495727539062
54, 0, 0, 1382.117919921875
55, 0, 0, 1391.309814453125
56, 0, 0, 1405.986450195312
57, 0, 0, 1415.973266601562
58, 0, 0, 1432.620849609375
59, 0, 0, 1439.091064453125
60, 0, 0, 1452.705444335938
61, 0, 0, 1466.835327148438
62, 0, 0, 1483.638549804688
63, 0, 0, 1496.441528320312
64, 0, 0, 1508.026489257812
65, 0, 0, 1532.57275390625
66, 0, 0, 1555.749633789062
67, 0, 0, 1567.20361328125
68, 0, 0, 1595.216796875
69, 0, 0, 1618.735107421875
70, 0, 0, 1641.117065429688
71, 0, 0, 1669.838500976562
72, 0, 0, 1709.171508789062
73, 0, 0, 1724.807006835938
74, 0, 0, 1760.28857421875
75, 0, 0, 1795.829711914062
76, 0, 0, 1830.896118164062
77, 0, 0, 1867.796020507812
78, 0, 0, 1910.3994140625
79, 0, 0, 1973.148803710938
80, 0, 0, 2032.9443359375
81, 0, 0, 2097.384521484375
82, 0, 0, 2166.044677734375
83, 0, 0, 2254.91357421875
84, 0, 0, 2359.034423828125
85, 0, 0, 2488.205322265625
86, 0, 0, 2640.65087890625
87, 0, 0, 2855.504150390625
88, 0, 0, 3155.859130859375
89, 0, 0, 3659.6513671875
90, 0, 0, 4247.44677734375
91, 0, 0, 4665.79248046875
92, 0, 0, 4665.2119140625
93, 0, 0, 3289.075927734375
94, 0, 0, 1738.007690429688
95, 0, 0, 644.986572265625
96, 0, 0, 83.26052856445312
97, 0, 0, 0.03440697491168976
98, 0, 0, 0.2994967103004456
99, 0, 0, 0
100, 0, 0, 0.0489838570356369
101, 0, 0, 0.01430304255336523
102, 0, 0, 0
103, 0, 0, 0.008193099871277809
104, 0, 0, 0.06504565477371216
105, 0, 0, 0.0004221480921842158
106, 0, 0, 0.02858768776059151
107, 0, 0, 0.01402242388576269
108, 0, 0, 0
109, 0, 0, 0.05010680854320526
110, 0, 0, 0.1446953117847443
111, 0, 0, 0
112, 0, 0, 0
113, 0, 0, 0
114, 0, 0, 0.001439474755898118
115, 0, 0, 0.07625019550323486
116, 0, 0, 0.1438028812408447
117, 0, 0, 0
118, 0, 0, 0
119, 0, 0, 0.09415534138679504
120, 0, 0, 0
121, 0, 0, 0.06544541567564011
122, 0, 0, 0.03781450912356377
123, 0, 0, 0.0444132462143898
124, 0, 0, 0
125, 0, 0, 0
126, 0, 0, 0.01992920413613319
127, 0, 0, 0
128, 0, 0, 0
129, 0, 0, 0
130, 0, 0, 0
131, 0, 0, 0.1252615302801132
132, 0, 0, 0.08472283184528351
133, 0, 0, 0
134, 0, 0, 0.02900847606360912
135, 0, 0, 0
136, 0, 0, 0
137, 0, 0, 0
138, 0, 0, 0.1085773259401321
139, 0, 0, 0.05269217863678932
140, 0, 0, 0
141, 0, 0, 0.1416502892971039
142, 0, 0, 0
143, 0, 0, 0.05064963549375534
144, 0, 0, 0.02688154391944408
145, 0, 0, 0
146, 0, 0, 0
147, 0, 0, 0.02106850780546665
148, 0, 0, 0
149, 0, 0, 0.03848344832658768
150, 0, 0, 0
151, 0, 0, 0
152, 0, 0, 0
153, 0, 0, 0
154, 0, 0, 0.0313153900206089
155, 0, 0, 0.005084748845547438
156, 0, 0, 0
157, 0, 0, 0
158, 0, 0, 0
159, 0, 0, 0.02116398513317108
160, 0, 0, 0
161, 0, 0, 0
162, 0, 0, 0
163, 0, 0, 0
164, 0, 0, 0
165, 0, 0, 0
166, 0, 0, 0.03317498788237572
167, 0, 0, 0
168, 0, 0, 0
169, 0, 0, 0
170, 0, 0, 0
171, 0, 0, 0
172, 0, 0, 0
173, 0, 0, 0
174, 0, 0, 0
175, 0, 0, 0
176, 0, 0, 0.1130347028374672
177, 0, 0, 0
178, 0, 0, 0.06822854280471802
179, 0, 0, 0
