# TOPAS Version: 3.3.p1
# Parameter File: Simple_Pattern.txt
# Results for scorer MLIC_Scorer
# Scored in component: MLIC
# X in 180 bins of 0.222222 cm
# Y in 1 bin  of 10 cm
# Z in 1 bin  of 10 cm
# EnergyDeposit ( MeV ) : Sum   
0, 0, 0, 37.94328308105469
1, 0, 0, 38.49393081665039
2, 0, 0, 38.90229415893555
3, 0, 0, 38.01826858520508
4, 0, 0, 40.36928558349609
5, 0, 0, 37.99524307250977
6, 0, 0, 39.24665451049805
7, 0, 0, 38.03396987915039
8, 0, 0, 39.52980422973633
9, 0, 0, 38.82167434692383
10, 0, 0, 40.77203750610352
11, 0, 0, 39.65465545654297
12, 0, 0, 42.24346160888672
13, 0, 0, 39.95838165283203
14, 0, 0, 41.77466583251953
15, 0, 0, 41.96439361572266
16, 0, 0, 42.03945922851562
17, 0, 0, 41.98288726806641
18, 0, 0, 41.07287216186523
19, 0, 0, 41.19683456420898
20, 0, 0, 40.84845733642578
21, 0, 0, 41.98040008544922
22, 0, 0, 41.75301361083984
23, 0, 0, 43.32209396362305
24, 0, 0, 44.33537673950195
25, 0, 0, 42.42515563964844
26, 0, 0, 43.5320930480957
27, 0, 0, 43.92113494873047
28, 0, 0, 44.21329879760742
29, 0, 0, 41.83664703369141
30, 0, 0, 43.01833724975586
31, 0, 0, 41.50056076049805
32, 0, 0, 41.09510040283203
33, 0, 0, 45.57530212402344
34, 0, 0, 42.23699569702148
35, 0, 0, 43.78895950317383
36, 0, 0, 43.28467178344727
37, 0, 0, 44.82155227661133
38, 0, 0, 44.66171264648438
39, 0, 0, 45.19779968261719
40, 0, 0, 44.92094421386719
41, 0, 0, 46.27321624755859
42, 0, 0, 47.05319976806641
43, 0, 0, 46.31767272949219
44, 0, 0, 46.76937866210938
45, 0, 0, 46.30120849609375
46, 0, 0, 49.06378173828125
47, 0, 0, 46.03730773925781
48, 0, 0, 45.35740280151367
49, 0, 0, 48.03519821166992
50, 0, 0, 48.37491226196289
51, 0, 0, 47.61785507202148
52, 0, 0, 49.21898651123047
53, 0, 0, 48.34859848022461
54, 0, 0, 48.2315673828125
55, 0, 0, 46.52749633789062
56, 0, 0, 48.29465103149414
57, 0, 0, 47.45779800415039
58, 0, 0, 46.18824005126953
59, 0, 0, 46.38178253173828
60, 0, 0, 46.50042724609375
61, 0, 0, 48.69671630859375
62, 0, 0, 46.77552795410156
63, 0, 0, 48.06031036376953
64, 0, 0, 50.8099250793457
65, 0, 0, 50.35524368286133
66, 0, 0, 50.47957611083984
67, 0, 0, 52.98305892944336
68, 0, 0, 53.64400100708008
69, 0, 0, 54.87515258789062
70, 0, 0, 55.44022750854492
71, 0, 0, 57.26531219482422
72, 0, 0, 56.1440315246582
73, 0, 0, 59.20304489135742
74, 0, 0, 58.89501190185547
75, 0, 0, 60.85514450073242
76, 0, 0, 62.31005859375
77, 0, 0, 64.81967926025391
78, 0, 0, 67.65587615966797
79, 0, 0, 68.05953979492188
80, 0, 0, 71.61795806884766
81, 0, 0, 74.8828125
82, 0, 0, 77.88627624511719
83, 0, 0, 79.90182495117188
84, 0, 0, 84.41988372802734
85, 0, 0, 88.47772216796875
86, 0, 0, 95.64543914794922
87, 0, 0, 105.1448516845703
88, 0, 0, 121.1238632202148
89, 0, 0, 135.9977416992188
90, 0, 0, 146.4134063720703
91, 0, 0, 169.4413909912109
92, 0, 0, 155.5057220458984
93, 0, 0, 86.65653228759766
94, 0, 0, 25.38183784484863
95, 0, 0, 0.03550121560692787
96, 0, 0, 0
97, 0, 0, 0
98, 0, 0, 0
99, 0, 0, 0
100, 0, 0, 0
101, 0, 0, 0
102, 0, 0, 0
103, 0, 0, 0
104, 0, 0, 0
105, 0, 0, 0
106, 0, 0, 0
107, 0, 0, 0
108, 0, 0, 0
109, 0, 0, 0
110, 0, 0, 0
111, 0, 0, 0
112, 0, 0, 0
113, 0, 0, 0
114, 0, 0, 0
115, 0, 0, 0
116, 0, 0, 0
117, 0, 0, 0
118, 0, 0, 0
119, 0, 0, 0
120, 0, 0, 0
121, 0, 0, 0
122, 0, 0, 0
123, 0, 0, 0
124, 0, 0, 0
125, 0, 0, 0
126, 0, 0, 0
127, 0, 0, 0
128, 0, 0, 0
129, 0, 0, 0
130, 0, 0, 0
131, 0, 0, 0
132, 0, 0, 0
133, 0, 0, 0
134, 0, 0, 0
135, 0, 0, 0
136, 0, 0, 0
137, 0, 0, 0
138, 0, 0, 0
139, 0, 0, 0
140, 0, 0, 0
141, 0, 0, 0
142, 0, 0, 0
143, 0, 0, 0
144, 0, 0, 0
145, 0, 0, 0
146, 0, 0, 0
147, 0, 0, 0
148, 0, 0, 0
149, 0, 0, 0
150, 0, 0, 0
151, 0, 0, 0
152, 0, 0, 0
153, 0, 0, 0
154, 0, 0, 0
155, 0, 0, 0
156, 0, 0, 0
157, 0, 0, 0
158, 0, 0, 0
159, 0, 0, 0
160, 0, 0, 0
161, 0, 0, 0
162, 0, 0, 0
163, 0, 0, 0
164, 0, 0, 0
165, 0, 0, 0
166, 0, 0, 0
167, 0, 0, 0
168, 0, 0, 0
169, 0, 0, 0
170, 0, 0, 0
171, 0, 0, 0
172, 0, 0, 0
173, 0, 0, 0
174, 0, 0, 0
175, 0, 0, 0
176, 0, 0, 0
177, 0, 0, 0
178, 0, 0, 0
179, 0, 0, 0
