# TOPAS Version: 3.3.p1
# Parameter File: Simple_Pattern.txt
# Results for scorer MLIC_Scorer
# Scored in component: MLIC
# X in 180 bins of 0.222222 cm
# Y in 1 bin  of 10 cm
# Z in 1 bin  of 10 cm
# EnergyDeposit ( MeV ) : Sum   
0, 0, 0, 1157.634521484375
1, 0, 0, 1151.119018554688
2, 0, 0, 1160.30859375
3, 0, 0, 1164.359741210938
4, 0, 0, 1175.407836914062
5, 0, 0, 1187.9365234375
6, 0, 0, 1194.91943359375
7, 0, 0, 1201.667358398438
8, 0, 0, 1204.507934570312
9, 0, 0, 1207.259033203125
10, 0, 0, 1206.970581054688
11, 0, 0, 1210.538330078125
12, 0, 0, 1229.177978515625
13, 0, 0, 1229.723022460938
14, 0, 0, 1240.2978515625
15, 0, 0, 1245.531616210938
16, 0, 0, 1257.269287109375
17, 0, 0, 1266.234985351562
18, 0, 0, 1280.01708984375
19, 0, 0, 1283.191040039062
20, 0, 0, 1292.459228515625
21, 0, 0, 1295.341796875
22, 0, 0, 1307.284790039062
23, 0, 0, 1323.630737304688
24, 0, 0, 1316.63818359375
25, 0, 0, 1337.50146484375
26, 0, 0, 1347.514892578125
27, 0, 0, 1357.875244140625
28, 0, 0, 1355.235961914062
29, 0, 0, 1388.50146484375
30, 0, 0, 1383.5751953125
31, 0, 0, 1399.975708007812
32, 0, 0, 1421.034301757812
33, 0, 0, 1435.178588867188
34, 0, 0, 1440.743896484375
35, 0, 0, 1449.6865234375
36, 0, 0, 1464.96435546875
37, 0, 0, 1483.292724609375
38, 0, 0, 1496.512817382812
39, 0, 0, 1507.808959960938
40, 0, 0, 1520.994262695312
41, 0, 0, 1541.96337890625
42, 0, 0, 1558.315185546875
43, 0, 0, 1582.836791992188
44, 0, 0, 1591.230712890625
45, 0, 0, 1621.913696289062
46, 0, 0, 1640.680297851562
47, 0, 0, 1662.01171875
48, 0, 0, 1678.333618164062
49, 0, 0, 1696.192504882812
50, 0, 0, 1725.444213867188
51, 0, 0, 1751.822021484375
52, 0, 0, 1772.65673828125
53, 0, 0, 1810.07373046875
54, 0, 0, 1835.513061523438
55, 0, 0, 1866.333374023438
56, 0, 0, 1907.466430664062
57, 0, 0, 1933.704833984375
58, 0, 0, 1969.6826171875
59, 0, 0, 2007.8876953125
60, 0, 0, 2060.8212890625
61, 0, 0, 2092.64111328125
62, 0, 0, 2152.517578125
63, 0, 0, 2210.762451171875
64, 0, 0, 2275.407958984375
65, 0, 0, 2328.226318359375
66, 0, 0, 2414.207763671875
67, 0, 0, 2500.67529296875
68, 0, 0, 2593.067138671875
69, 0, 0, 2690.843994140625
70, 0, 0, 2816.62744140625
71, 0, 0, 2965.43701171875
72, 0, 0, 3128.882080078125
73, 0, 0, 3357.580322265625
74, 0, 0, 3633.322509765625
75, 0, 0, 4033.511474609375
76, 0, 0, 4585.109375
77, 0, 0, 5387.70751953125
78, 0, 0, 6188.8134765625
79, 0, 0, 6204.9091796875
80, 0, 0, 4366.919921875
81, 0, 0, 2352.270263671875
82, 0, 0, 839.8082275390625
83, 0, 0, 270.8718872070312
84, 0, 0, 104.296989440918
85, 0, 0, 47.66423034667969
86, 0, 0, 47.55593872070312
87, 0, 0, 60.59875869750977
88, 0, 0, 67.07016754150391
89, 0, 0, 45.35971450805664
90, 0, 0, 33.23564529418945
91, 0, 0, 21.35064315795898
92, 0, 0, 11.96390533447266
93, 0, 0, 10.48291778564453
94, 0, 0, 0
95, 0, 0, 0
96, 0, 0, 0
97, 0, 0, 0
98, 0, 0, 0
99, 0, 0, 0
100, 0, 0, 0
101, 0, 0, 0
102, 0, 0, 0
103, 0, 0, 0
104, 0, 0, 0
105, 0, 0, 0
106, 0, 0, 0
107, 0, 0, 0
108, 0, 0, 0
109, 0, 0, 0
110, 0, 0, 0
111, 0, 0, 0
112, 0, 0, 0
113, 0, 0, 0
114, 0, 0, 0
115, 0, 0, 0
116, 0, 0, 0
117, 0, 0, 0
118, 0, 0, 0
119, 0, 0, 0
120, 0, 0, 0
121, 0, 0, 0
122, 0, 0, 0
123, 0, 0, 0
124, 0, 0, 0
125, 0, 0, 0
126, 0, 0, 0
127, 0, 0, 0
128, 0, 0, 0
129, 0, 0, 0
130, 0, 0, 0
131, 0, 0, 0
132, 0, 0, 0
133, 0, 0, 0
134, 0, 0, 0
135, 0, 0, 0
136, 0, 0, 0
137, 0, 0, 0
138, 0, 0, 0
139, 0, 0, 0
140, 0, 0, 0
141, 0, 0, 0
142, 0, 0, 0
143, 0, 0, 0
144, 0, 0, 0
145, 0, 0, 0
146, 0, 0, 0
147, 0, 0, 0
148, 0, 0, 0
149, 0, 0, 0
150, 0, 0, 0
151, 0, 0, 0
152, 0, 0, 0
153, 0, 0, 0
154, 0, 0, 0
155, 0, 0, 0
156, 0, 0, 0
157, 0, 0, 0
158, 0, 0, 0
159, 0, 0, 0
160, 0, 0, 0
161, 0, 0, 0
162, 0, 0, 0
163, 0, 0, 0
164, 0, 0, 0
165, 0, 0, 0
166, 0, 0, 0
167, 0, 0, 0
168, 0, 0, 0
169, 0, 0, 0
170, 0, 0, 0
171, 0, 0, 0
172, 0, 0, 0
173, 0, 0, 0
174, 0, 0, 0
175, 0, 0, 0
176, 0, 0, 0
177, 0, 0, 0
178, 0, 0, 0
179, 0, 0, 0
