# TOPAS Version: 3.3.p1
# Parameter File: Simple_Pattern.txt
# Results for scorer MLIC_Scorer
# Scored in component: MLIC
# X in 180 bins of 0.222222 cm
# Y in 1 bin  of 10 cm
# Z in 1 bin  of 10 cm
# EnergyDeposit ( MeV ) : Sum   
0, 0, 0, 60.12871932983398
1, 0, 0, 59.77710723876953
2, 0, 0, 62.94316864013672
3, 0, 0, 60.97284317016602
4, 0, 0, 62.21291732788086
5, 0, 0, 61.22170257568359
6, 0, 0, 61.23219680786133
7, 0, 0, 61.52725982666016
8, 0, 0, 62.21138000488281
9, 0, 0, 62.45975875854492
10, 0, 0, 64.09783172607422
11, 0, 0, 63.60396957397461
12, 0, 0, 61.44562149047852
13, 0, 0, 64.07838439941406
14, 0, 0, 65.56462097167969
15, 0, 0, 64.70677185058594
16, 0, 0, 64.32684326171875
17, 0, 0, 65.01494598388672
18, 0, 0, 68.51535034179688
19, 0, 0, 66.88431549072266
20, 0, 0, 66.61384582519531
21, 0, 0, 66.96396636962891
22, 0, 0, 69.18218231201172
23, 0, 0, 68.9737548828125
24, 0, 0, 69.29286956787109
25, 0, 0, 69.58280944824219
26, 0, 0, 69.47821807861328
27, 0, 0, 71.63872528076172
28, 0, 0, 73.21141815185547
29, 0, 0, 71.41632843017578
30, 0, 0, 73.07859039306641
31, 0, 0, 72.26528930664062
32, 0, 0, 73.36036682128906
33, 0, 0, 75.69382476806641
34, 0, 0, 75.55335235595703
35, 0, 0, 76.45394897460938
36, 0, 0, 79.97512054443359
37, 0, 0, 77.13364410400391
38, 0, 0, 78.29000854492188
39, 0, 0, 79.08212280273438
40, 0, 0, 80.69491577148438
41, 0, 0, 79.10055541992188
42, 0, 0, 81.33339691162109
43, 0, 0, 81.99796295166016
44, 0, 0, 82.46065521240234
45, 0, 0, 84.61774444580078
46, 0, 0, 86.53667449951172
47, 0, 0, 87.23245239257812
48, 0, 0, 86.9744873046875
49, 0, 0, 88.81121063232422
50, 0, 0, 89.84381866455078
51, 0, 0, 90.92884063720703
52, 0, 0, 91.54446411132812
53, 0, 0, 94.68799591064453
54, 0, 0, 93.65975952148438
55, 0, 0, 97.60282897949219
56, 0, 0, 99.19571685791016
57, 0, 0, 101.3088226318359
58, 0, 0, 103.9209136962891
59, 0, 0, 105.8350448608398
60, 0, 0, 108.7092819213867
61, 0, 0, 110.2891082763672
62, 0, 0, 113.7530822753906
63, 0, 0, 114.4391021728516
64, 0, 0, 118.7015075683594
65, 0, 0, 124.3592376708984
66, 0, 0, 127.8090896606445
67, 0, 0, 132.0028228759766
68, 0, 0, 136.5737915039062
69, 0, 0, 141.9703063964844
70, 0, 0, 151.0146942138672
71, 0, 0, 157.9639434814453
72, 0, 0, 169.7426605224609
73, 0, 0, 184.2804412841797
74, 0, 0, 189.1196746826172
75, 0, 0, 213.1445465087891
76, 0, 0, 239.9189300537109
77, 0, 0, 286.53662109375
78, 0, 0, 310.1506652832031
79, 0, 0, 260.7122802734375
80, 0, 0, 227.6111145019531
81, 0, 0, 112.1280136108398
82, 0, 0, 47.6484260559082
83, 0, 0, 20.86672973632812
84, 0, 0, 11.32620716094971
85, 0, 0, 0
86, 0, 0, 0
87, 0, 0, 0
88, 0, 0, 0
89, 0, 0, 0
90, 0, 0, 0
91, 0, 0, 0
92, 0, 0, 0
93, 0, 0, 0
94, 0, 0, 0
95, 0, 0, 0
96, 0, 0, 0
97, 0, 0, 0
98, 0, 0, 0
99, 0, 0, 0
100, 0, 0, 0
101, 0, 0, 0
102, 0, 0, 0
103, 0, 0, 0
104, 0, 0, 0
105, 0, 0, 0
106, 0, 0, 0
107, 0, 0, 0
108, 0, 0, 0
109, 0, 0, 0
110, 0, 0, 0
111, 0, 0, 0
112, 0, 0, 0
113, 0, 0, 0
114, 0, 0, 0
115, 0, 0, 0
116, 0, 0, 0
117, 0, 0, 0
118, 0, 0, 0
119, 0, 0, 0
120, 0, 0, 0
121, 0, 0, 0
122, 0, 0, 0
123, 0, 0, 0
124, 0, 0, 0
125, 0, 0, 0
126, 0, 0, 0
127, 0, 0, 0
128, 0, 0, 0
129, 0, 0, 0
130, 0, 0, 0
131, 0, 0, 0
132, 0, 0, 0
133, 0, 0, 0
134, 0, 0, 0
135, 0, 0, 0
136, 0, 0, 0
137, 0, 0, 0
138, 0, 0, 0
139, 0, 0, 0
140, 0, 0, 0
141, 0, 0, 0
142, 0, 0, 0
143, 0, 0, 0
144, 0, 0, 0
145, 0, 0, 0
146, 0, 0, 0
147, 0, 0, 0
148, 0, 0, 0
149, 0, 0, 0
150, 0, 0, 0
151, 0, 0, 0
152, 0, 0, 0
153, 0, 0, 0
154, 0, 0, 0
155, 0, 0, 0
156, 0, 0, 0
157, 0, 0, 0
158, 0, 0, 0
159, 0, 0, 0
160, 0, 0, 0
161, 0, 0, 0
162, 0, 0, 0
163, 0, 0, 0
164, 0, 0, 0
165, 0, 0, 0
166, 0, 0, 0
167, 0, 0, 0
168, 0, 0, 0
169, 0, 0, 0
170, 0, 0, 0
171, 0, 0, 0
172, 0, 0, 0
173, 0, 0, 0
174, 0, 0, 0
175, 0, 0, 0
176, 0, 0, 0
177, 0, 0, 0
178, 0, 0, 0
179, 0, 0, 0
