# TOPAS Version: 3.3.p1
# Parameter File: Simple_Pattern.txt
# Results for scorer MLIC_Scorer
# Scored in component: MLIC
# X in 180 bins of 0.222222 cm
# Y in 1 bin  of 10 cm
# Z in 1 bin  of 10 cm
# EnergyDeposit ( MeV ) : Sum   
0, 0, 0, 1093.45068359375
1, 0, 0, 1094.7802734375
2, 0, 0, 1095.802001953125
3, 0, 0, 1100.588134765625
4, 0, 0, 1108.155395507812
5, 0, 0, 1107.322021484375
6, 0, 0, 1116.445678710938
7, 0, 0, 1113.912231445312
8, 0, 0, 1123.517822265625
9, 0, 0, 1128.285278320312
10, 0, 0, 1129.918701171875
11, 0, 0, 1131.710205078125
12, 0, 0, 1148.542236328125
13, 0, 0, 1141.400756835938
14, 0, 0, 1151.01416015625
15, 0, 0, 1152.380249023438
16, 0, 0, 1151.038940429688
17, 0, 0, 1171.8154296875
18, 0, 0, 1165.117919921875
19, 0, 0, 1175.217163085938
20, 0, 0, 1174.616333007812
21, 0, 0, 1189.283813476562
22, 0, 0, 1183.84912109375
23, 0, 0, 1194.087036132812
24, 0, 0, 1200.232543945312
25, 0, 0, 1203.08740234375
26, 0, 0, 1213.464721679688
27, 0, 0, 1212.31982421875
28, 0, 0, 1209.09130859375
29, 0, 0, 1221.676147460938
30, 0, 0, 1229.587524414062
31, 0, 0, 1229.960571289062
32, 0, 0, 1227.634155273438
33, 0, 0, 1234.259521484375
34, 0, 0, 1244.044067382812
35, 0, 0, 1243.289184570312
36, 0, 0, 1242.307983398438
37, 0, 0, 1256.507934570312
38, 0, 0, 1259.278686523438
39, 0, 0, 1261.776245117188
40, 0, 0, 1271.18505859375
41, 0, 0, 1278.65380859375
42, 0, 0, 1282.620727539062
43, 0, 0, 1282.612548828125
44, 0, 0, 1301.257568359375
45, 0, 0, 1296.257446289062
46, 0, 0, 1308.278686523438
47, 0, 0, 1318.51611328125
48, 0, 0, 1326.662109375
49, 0, 0, 1328.43310546875
50, 0, 0, 1345.21435546875
51, 0, 0, 1343.757202148438
52, 0, 0, 1355.562377929688
53, 0, 0, 1365.423095703125
54, 0, 0, 1375.989624023438
55, 0, 0, 1373.387573242188
56, 0, 0, 1392.198486328125
57, 0, 0, 1404.048095703125
58, 0, 0, 1399.246337890625
59, 0, 0, 1414.34130859375
60, 0, 0, 1434.034790039062
61, 0, 0, 1445.1806640625
62, 0, 0, 1453.940551757812
63, 0, 0, 1467.259033203125
64, 0, 0, 1487.7734375
65, 0, 0, 1503.500854492188
66, 0, 0, 1520.697509765625
67, 0, 0, 1538.325561523438
68, 0, 0, 1559.495239257812
69, 0, 0, 1576.447265625
70, 0, 0, 1603.561767578125
71, 0, 0, 1628.354370117188
72, 0, 0, 1660.870361328125
73, 0, 0, 1684.230346679688
74, 0, 0, 1728.765014648438
75, 0, 0, 1760.5244140625
76, 0, 0, 1797.91796875
77, 0, 0, 1831.927978515625
78, 0, 0, 1886.480224609375
79, 0, 0, 1935.216064453125
80, 0, 0, 1988.438232421875
81, 0, 0, 2053.834716796875
82, 0, 0, 2139.937255859375
83, 0, 0, 2238.602294921875
84, 0, 0, 2336.142578125
85, 0, 0, 2469.218505859375
86, 0, 0, 2638.0126953125
87, 0, 0, 2839.271728515625
88, 0, 0, 3140.993896484375
89, 0, 0, 3575.380126953125
90, 0, 0, 4289.6650390625
91, 0, 0, 4760.267578125
92, 0, 0, 4633.49853515625
93, 0, 0, 3372.97314453125
94, 0, 0, 1766.66259765625
95, 0, 0, 479.2646179199219
96, 0, 0, 89.65357971191406
97, 0, 0, 0.06934311985969543
98, 0, 0, 0.001748167560435832
99, 0, 0, 0.03434086218476295
100, 0, 0, 0.02930730022490025
101, 0, 0, 0.03855075314640999
102, 0, 0, 0
103, 0, 0, 0
104, 0, 0, 0.05805924534797668
105, 0, 0, 0
106, 0, 0, 0
107, 0, 0, 0
108, 0, 0, 0
109, 0, 0, 0.01917112991213799
110, 0, 0, 0
111, 0, 0, 0
112, 0, 0, 0
113, 0, 0, 0
114, 0, 0, 0.002680188743397593
115, 0, 0, 0
116, 0, 0, 0.00815481785684824
117, 0, 0, 0.1699239611625671
118, 0, 0, 0.002886000787839293
119, 0, 0, 0.07081808149814606
120, 0, 0, 0.07192810624837875
121, 0, 0, 0
122, 0, 0, 0
123, 0, 0, 0
124, 0, 0, 0
125, 0, 0, 0.09862989187240601
126, 0, 0, 0
127, 0, 0, 0
128, 0, 0, 0
129, 0, 0, 0
130, 0, 0, 0
131, 0, 0, 0.01676998287439346
132, 0, 0, 0
133, 0, 0, 0.007761041168123484
134, 0, 0, 0
135, 0, 0, 0
136, 0, 0, 0
137, 0, 0, 0
138, 0, 0, 0
139, 0, 0, 0
140, 0, 0, 0
141, 0, 0, 0
142, 0, 0, 0.04936559498310089
143, 0, 0, 0.002051703631877899
144, 0, 0, 0
145, 0, 0, 0
146, 0, 0, 0.0395522229373455
147, 0, 0, 0
148, 0, 0, 0.04070018231868744
149, 0, 0, 0
150, 0, 0, 0
151, 0, 0, 0
152, 0, 0, 0
153, 0, 0, 0
154, 0, 0, 0
155, 0, 0, 0
156, 0, 0, 0
157, 0, 0, 0
158, 0, 0, 0
159, 0, 0, 0
160, 0, 0, 0
161, 0, 0, 0.05434846505522728
162, 0, 0, 0.003453815821558237
163, 0, 0, 0
164, 0, 0, 0
165, 0, 0, 0
166, 0, 0, 0
167, 0, 0, 0
168, 0, 0, 0
169, 0, 0, 0
170, 0, 0, 0.04090321436524391
171, 0, 0, 0
172, 0, 0, 0
173, 0, 0, 0
174, 0, 0, 0
175, 0, 0, 0
176, 0, 0, 0
177, 0, 0, 0.03914597630500793
178, 0, 0, 0
179, 0, 0, 0.0123294023796916
