# TOPAS Version: 3.3.p1
# Parameter File: Simple_Pattern.txt
# Results for scorer MLIC_Scorer
# Scored in component: MLIC
# X in 180 bins of 0.222222 cm
# Y in 1 bin  of 10 cm
# Z in 1 bin  of 10 cm
# EnergyDeposit ( MeV ) : Sum   
0, 0, 0, 93.30381774902344
1, 0, 0, 93.10226440429688
2, 0, 0, 94.75784301757812
3, 0, 0, 96.42092132568359
4, 0, 0, 97.74613952636719
5, 0, 0, 96.36986541748047
6, 0, 0, 97.32463836669922
7, 0, 0, 94.88540649414062
8, 0, 0, 95.841064453125
9, 0, 0, 96.54416656494141
10, 0, 0, 98.05534362792969
11, 0, 0, 102.2395706176758
12, 0, 0, 100.8236846923828
13, 0, 0, 98.18807220458984
14, 0, 0, 100.7562713623047
15, 0, 0, 100.9449081420898
16, 0, 0, 99.75022888183594
17, 0, 0, 99.75913238525391
18, 0, 0, 102.74609375
19, 0, 0, 102.8076477050781
20, 0, 0, 101.7671279907227
21, 0, 0, 102.5057144165039
22, 0, 0, 103.0104141235352
23, 0, 0, 105.1383056640625
24, 0, 0, 105.3131332397461
25, 0, 0, 105.9563369750977
26, 0, 0, 105.9941711425781
27, 0, 0, 105.7397613525391
28, 0, 0, 109.4471817016602
29, 0, 0, 108.2968597412109
30, 0, 0, 108.8040008544922
31, 0, 0, 108.94091796875
32, 0, 0, 110.3300704956055
33, 0, 0, 109.3242492675781
34, 0, 0, 112.8837432861328
35, 0, 0, 115.374267578125
36, 0, 0, 112.9341354370117
37, 0, 0, 113.727180480957
38, 0, 0, 114.8672103881836
39, 0, 0, 115.2310943603516
40, 0, 0, 115.1039505004883
41, 0, 0, 118.0859069824219
42, 0, 0, 118.8560333251953
43, 0, 0, 118.181022644043
44, 0, 0, 119.1676864624023
45, 0, 0, 123.0571136474609
46, 0, 0, 122.8193664550781
47, 0, 0, 124.2617797851562
48, 0, 0, 124.1466979980469
49, 0, 0, 126.7212677001953
50, 0, 0, 128.1450958251953
51, 0, 0, 128.4361267089844
52, 0, 0, 130.2010803222656
53, 0, 0, 132.5322570800781
54, 0, 0, 133.2297668457031
55, 0, 0, 132.9436950683594
56, 0, 0, 136.3444366455078
57, 0, 0, 137.4948883056641
58, 0, 0, 141.2539978027344
59, 0, 0, 142.1339569091797
60, 0, 0, 141.8499755859375
61, 0, 0, 143.3822021484375
62, 0, 0, 147.4151763916016
63, 0, 0, 147.7033843994141
64, 0, 0, 149.1067047119141
65, 0, 0, 155.3954162597656
66, 0, 0, 155.2229919433594
67, 0, 0, 156.9375762939453
68, 0, 0, 162.3823699951172
69, 0, 0, 163.5482177734375
70, 0, 0, 165.084228515625
71, 0, 0, 169.9938812255859
72, 0, 0, 172.5626373291016
73, 0, 0, 176.847412109375
74, 0, 0, 180.8218841552734
75, 0, 0, 182.8282012939453
76, 0, 0, 189.9635467529297
77, 0, 0, 198.4513397216797
78, 0, 0, 201.8441467285156
79, 0, 0, 208.50341796875
80, 0, 0, 212.9097595214844
81, 0, 0, 223.9798278808594
82, 0, 0, 231.9373626708984
83, 0, 0, 241.8879852294922
84, 0, 0, 255.2969512939453
85, 0, 0, 267.5832214355469
86, 0, 0, 287.614990234375
87, 0, 0, 312.5824584960938
88, 0, 0, 345.0440368652344
89, 0, 0, 395.1343688964844
90, 0, 0, 468.15625
91, 0, 0, 569.9398193359375
92, 0, 0, 511.4562377929688
93, 0, 0, 378.335205078125
94, 0, 0, 232.3959503173828
95, 0, 0, 52.8100471496582
96, 0, 0, 0
97, 0, 0, 0
98, 0, 0, 0
99, 0, 0, 0
100, 0, 0, 0
101, 0, 0, 0
102, 0, 0, 0
103, 0, 0, 0
104, 0, 0, 0
105, 0, 0, 0
106, 0, 0, 0
107, 0, 0, 0
108, 0, 0, 0
109, 0, 0, 0
110, 0, 0, 0
111, 0, 0, 0
112, 0, 0, 0
113, 0, 0, 0
114, 0, 0, 0
115, 0, 0, 0
116, 0, 0, 0
117, 0, 0, 0
118, 0, 0, 0
119, 0, 0, 0
120, 0, 0, 0
121, 0, 0, 0
122, 0, 0, 0
123, 0, 0, 0
124, 0, 0, 0
125, 0, 0, 0
126, 0, 0, 0
127, 0, 0, 0
128, 0, 0, 0
129, 0, 0, 0
130, 0, 0, 0
131, 0, 0, 0
132, 0, 0, 0
133, 0, 0, 0
134, 0, 0, 0
135, 0, 0, 0
136, 0, 0, 0
137, 0, 0, 0
138, 0, 0, 0
139, 0, 0, 0
140, 0, 0, 0
141, 0, 0, 0
142, 0, 0, 0
143, 0, 0, 0
144, 0, 0, 0
145, 0, 0, 0
146, 0, 0, 0
147, 0, 0, 0
148, 0, 0, 0
149, 0, 0, 0
150, 0, 0, 0
151, 0, 0, 0
152, 0, 0, 0
153, 0, 0, 0
154, 0, 0, 0
155, 0, 0, 0
156, 0, 0, 0
157, 0, 0, 0
158, 0, 0, 0
159, 0, 0, 0
160, 0, 0, 0
161, 0, 0, 0
162, 0, 0, 0
163, 0, 0, 0
164, 0, 0, 0
165, 0, 0, 0
166, 0, 0, 0
167, 0, 0, 0
168, 0, 0, 0
169, 0, 0, 0
170, 0, 0, 0
171, 0, 0, 0
172, 0, 0, 0
173, 0, 0, 0
174, 0, 0, 0
175, 0, 0, 0
176, 0, 0, 0
177, 0, 0, 0
178, 0, 0, 0
179, 0, 0, 0
