# TOPAS Version: 3.3.p1
# Parameter File: Simple_Pattern.txt
# Results for scorer MLIC_Scorer
# Scored in component: MLIC
# X in 165 bins of 0.2 cm
# Y in 1 bin  of 10 cm
# Z in 1 bin  of 10 cm
# EnergyDeposit ( MeV ) : Sum   
0, 0, 0, 0
1, 0, 0, 0
2, 0, 0, 0
3, 0, 0, 0
4, 0, 0, 0
5, 0, 0, 0
6, 0, 0, 0
7, 0, 0, 0
8, 0, 0, 0
9, 0, 0, 0
10, 0, 0, 0
11, 0, 0, 0
12, 0, 0, 0
13, 0, 0, 0
14, 0, 0, 0
15, 0, 0, 0
16, 0, 0, 0
17, 0, 0, 0
18, 0, 0, 0
19, 0, 0, 0
20, 0, 0, 0
21, 0, 0, 0
22, 0, 0, 0
23, 0, 0, 0
24, 0, 0, 0
25, 0, 0, 0
26, 0, 0, 0
27, 0, 0, 0
28, 0, 0, 0
29, 0, 0, 0
30, 0, 0, 0
31, 0, 0, 0
32, 0, 0, 0
33, 0, 0, 0
34, 0, 0, 0
35, 0, 0, 0
36, 0, 0, 0
37, 0, 0, 0
38, 0, 0, 0
39, 0, 0, 0
40, 0, 0, 0
41, 0, 0, 0.009037641808390617
42, 0, 0, 0
43, 0, 0, 7.782215118408203
44, 0, 0, 31.6934757232666
45, 0, 0, 174.7395324707031
46, 0, 0, 490.6509399414062
47, 0, 0, 1399.8544921875
48, 0, 0, 3086.087646484375
49, 0, 0, 4219.07666015625
50, 0, 0, 5115.75634765625
51, 0, 0, 5283.65234375
52, 0, 0, 4861.720703125
53, 0, 0, 4130.099609375
54, 0, 0, 3658.278564453125
55, 0, 0, 3340.55712890625
56, 0, 0, 3070.6552734375
57, 0, 0, 2888.31982421875
58, 0, 0, 2732.00146484375
59, 0, 0, 2597.178955078125
60, 0, 0, 2483.15576171875
61, 0, 0, 2394.806640625
62, 0, 0, 2306.35009765625
63, 0, 0, 2224.562744140625
64, 0, 0, 2160.829833984375
65, 0, 0, 2104.728759765625
66, 0, 0, 2048.7373046875
67, 0, 0, 2000.932006835938
68, 0, 0, 1951.021850585938
69, 0, 0, 1908.193603515625
70, 0, 0, 1872.26123046875
71, 0, 0, 1834.088500976562
72, 0, 0, 1796.58837890625
73, 0, 0, 1768.625610351562
74, 0, 0, 1745.532104492188
75, 0, 0, 1713.132690429688
76, 0, 0, 1687.651000976562
77, 0, 0, 1654.188598632812
78, 0, 0, 1629.262329101562
79, 0, 0, 1613.306274414062
80, 0, 0, 1585.83740234375
81, 0, 0, 1568.203979492188
82, 0, 0, 1545.201538085938
83, 0, 0, 1531.65576171875
84, 0, 0, 1512.620849609375
85, 0, 0, 1490.718017578125
86, 0, 0, 1477.162475585938
87, 0, 0, 1466.15771484375
88, 0, 0, 1440.913330078125
89, 0, 0, 1429.826782226562
90, 0, 0, 1415.4267578125
91, 0, 0, 1398.382202148438
92, 0, 0, 1387.919555664062
93, 0, 0, 1372.114501953125
94, 0, 0, 1369.95849609375
95, 0, 0, 1352.069580078125
96, 0, 0, 1334.02783203125
97, 0, 0, 1324.707763671875
98, 0, 0, 1313.912231445312
99, 0, 0, 1300.853393554688
100, 0, 0, 1290.909057617188
101, 0, 0, 1283.09423828125
102, 0, 0, 1273.077026367188
103, 0, 0, 1251.92041015625
104, 0, 0, 1258.60107421875
105, 0, 0, 1244.8623046875
106, 0, 0, 1226.88134765625
107, 0, 0, 1229.521118164062
108, 0, 0, 1217.3583984375
109, 0, 0, 1209.814086914062
110, 0, 0, 1206.109497070312
111, 0, 0, 1200.078247070312
112, 0, 0, 1188.440673828125
113, 0, 0, 1180.854736328125
114, 0, 0, 1174.1962890625
115, 0, 0, 1161.880981445312
116, 0, 0, 1157.815673828125
117, 0, 0, 1152.114624023438
118, 0, 0, 1145.89306640625
119, 0, 0, 1140.109497070312
120, 0, 0, 1128.566162109375
121, 0, 0, 1126.10400390625
122, 0, 0, 1118.243774414062
123, 0, 0, 1108.892822265625
124, 0, 0, 1110.636108398438
125, 0, 0, 1100.59228515625
126, 0, 0, 1090.652221679688
127, 0, 0, 1083.0126953125
128, 0, 0, 1076.72021484375
129, 0, 0, 1080.564086914062
130, 0, 0, 1072.256591796875
131, 0, 0, 1064.272827148438
132, 0, 0, 1062.299438476562
133, 0, 0, 1061.874267578125
134, 0, 0, 1052.07666015625
135, 0, 0, 1044.099731445312
136, 0, 0, 1045.971923828125
137, 0, 0, 1041.244384765625
138, 0, 0, 1035.240112304688
139, 0, 0, 1030.907470703125
140, 0, 0, 1023.720764160156
141, 0, 0, 1024.657348632812
142, 0, 0, 1023.330200195312
143, 0, 0, 1017.150146484375
144, 0, 0, 1009.129272460938
145, 0, 0, 1000.502563476562
146, 0, 0, 1000.991638183594
147, 0, 0, 996.1641235351562
148, 0, 0, 996.9004516601562
149, 0, 0, 989.3546752929688
150, 0, 0, 984.3539428710938
151, 0, 0, 978.0230102539062
152, 0, 0, 986.816650390625
153, 0, 0, 973.30322265625
154, 0, 0, 970.0474853515625
155, 0, 0, 960.4876098632812
156, 0, 0, 965.4904174804688
157, 0, 0, 952.619384765625
158, 0, 0, 952.9154052734375
159, 0, 0, 946.7417602539062
160, 0, 0, 954.7599487304688
161, 0, 0, 950.8716430664062
162, 0, 0, 946.1124877929688
163, 0, 0, 939.2962646484375
164, 0, 0, 932.7669677734375
