# TOPAS Version: 3.3.p1
# Parameter File: Simple_Pattern.txt
# Results for scorer MLIC_Scorer
# Scored in component: MLIC
# X in 165 bins of 0.2 cm
# Y in 1 bin  of 10 cm
# Z in 1 bin  of 10 cm
# EnergyDeposit ( MeV ) : Sum   
0, 0, 0, 944.0067749023438
1, 0, 0, 938.908203125
2, 0, 0, 941.3324584960938
3, 0, 0, 953.0269165039062
4, 0, 0, 947.6671142578125
5, 0, 0, 951.7361450195312
6, 0, 0, 958.378662109375
7, 0, 0, 956.80908203125
8, 0, 0, 961.490966796875
9, 0, 0, 971.0736694335938
10, 0, 0, 974.8915405273438
11, 0, 0, 975.5130615234375
12, 0, 0, 977.3888549804688
13, 0, 0, 982.9043579101562
14, 0, 0, 988.2943725585938
15, 0, 0, 977.43017578125
16, 0, 0, 984.1952514648438
17, 0, 0, 992.7364501953125
18, 0, 0, 1010.988708496094
19, 0, 0, 1007.113891601562
20, 0, 0, 1002.024536132812
21, 0, 0, 1015.230895996094
22, 0, 0, 1016.77685546875
23, 0, 0, 1015.817443847656
24, 0, 0, 1026.216918945312
25, 0, 0, 1035.81591796875
26, 0, 0, 1036.8974609375
27, 0, 0, 1045.391235351562
28, 0, 0, 1055.207397460938
29, 0, 0, 1053.217529296875
30, 0, 0, 1049.12841796875
31, 0, 0, 1060.540771484375
32, 0, 0, 1060.305053710938
33, 0, 0, 1064.598999023438
34, 0, 0, 1074.950927734375
35, 0, 0, 1079.8173828125
36, 0, 0, 1073.604858398438
37, 0, 0, 1089.866577148438
38, 0, 0, 1101.098876953125
39, 0, 0, 1098.925537109375
40, 0, 0, 1103.930053710938
41, 0, 0, 1120.861694335938
42, 0, 0, 1126.601928710938
43, 0, 0, 1130.094848632812
44, 0, 0, 1129.485961914062
45, 0, 0, 1132.137451171875
46, 0, 0, 1142.92724609375
47, 0, 0, 1155.955444335938
48, 0, 0, 1162.72216796875
49, 0, 0, 1169.4736328125
50, 0, 0, 1175.5283203125
51, 0, 0, 1179.160400390625
52, 0, 0, 1182.907104492188
53, 0, 0, 1189.092041015625
54, 0, 0, 1199.119995117188
55, 0, 0, 1214.783813476562
56, 0, 0, 1218.342529296875
57, 0, 0, 1223.089111328125
58, 0, 0, 1237.957641601562
59, 0, 0, 1244.402221679688
60, 0, 0, 1262.105224609375
61, 0, 0, 1266.08251953125
62, 0, 0, 1277.56201171875
63, 0, 0, 1285.017944335938
64, 0, 0, 1295.301025390625
65, 0, 0, 1300.776733398438
66, 0, 0, 1313.312377929688
67, 0, 0, 1324.8388671875
68, 0, 0, 1341.64501953125
69, 0, 0, 1346.549194335938
70, 0, 0, 1365.427124023438
71, 0, 0, 1376.401733398438
72, 0, 0, 1390.037841796875
73, 0, 0, 1402.903564453125
74, 0, 0, 1421.45751953125
75, 0, 0, 1433.924926757812
76, 0, 0, 1453.538940429688
77, 0, 0, 1471.372192382812
78, 0, 0, 1476.905395507812
79, 0, 0, 1495.755126953125
80, 0, 0, 1518.27587890625
81, 0, 0, 1530.36181640625
82, 0, 0, 1553.39697265625
83, 0, 0, 1575.56298828125
84, 0, 0, 1590.605224609375
85, 0, 0, 1616.973022460938
86, 0, 0, 1645.930053710938
87, 0, 0, 1670.74462890625
88, 0, 0, 1691.927001953125
89, 0, 0, 1719.936279296875
90, 0, 0, 1755.029663085938
91, 0, 0, 1781.870239257812
92, 0, 0, 1818.60302734375
93, 0, 0, 1855.832275390625
94, 0, 0, 1891.7548828125
95, 0, 0, 1927.886596679688
96, 0, 0, 1970.78466796875
97, 0, 0, 2022.725219726562
98, 0, 0, 2074.536865234375
99, 0, 0, 2134.73486328125
100, 0, 0, 2197.08056640625
101, 0, 0, 2263.034423828125
102, 0, 0, 2337.583740234375
103, 0, 0, 2420.884521484375
104, 0, 0, 2522.98974609375
105, 0, 0, 2629.349609375
106, 0, 0, 2776.68701171875
107, 0, 0, 2935.01953125
108, 0, 0, 3133.0478515625
109, 0, 0, 3392.53759765625
110, 0, 0, 3764.220703125
111, 0, 0, 4274.95654296875
112, 0, 0, 4890.8076171875
113, 0, 0, 5374.63818359375
114, 0, 0, 5345.60546875
115, 0, 0, 4494.7734375
116, 0, 0, 2845.907958984375
117, 0, 0, 1422.251342773438
118, 0, 0, 621.334716796875
119, 0, 0, 132.8930206298828
120, 0, 0, 21.94588851928711
121, 0, 0, 0
122, 0, 0, 0
123, 0, 0, 0
124, 0, 0, 0.03047552891075611
125, 0, 0, 0
126, 0, 0, 0
127, 0, 0, 0
128, 0, 0, 0
129, 0, 0, 0
130, 0, 0, 0
131, 0, 0, 0
132, 0, 0, 0
133, 0, 0, 0
134, 0, 0, 0
135, 0, 0, 0
136, 0, 0, 0
137, 0, 0, 0
138, 0, 0, 0
139, 0, 0, 0
140, 0, 0, 0
141, 0, 0, 0
142, 0, 0, 0
143, 0, 0, 0
144, 0, 0, 0
145, 0, 0, 0
146, 0, 0, 0
147, 0, 0, 0
148, 0, 0, 0
149, 0, 0, 0
150, 0, 0, 0
151, 0, 0, 0
152, 0, 0, 0
153, 0, 0, 0
154, 0, 0, 0
155, 0, 0, 0
156, 0, 0, 0
157, 0, 0, 0
158, 0, 0, 0
159, 0, 0, 0
160, 0, 0, 0
161, 0, 0, 0
162, 0, 0, 0
163, 0, 0, 0
164, 0, 0, 0
