# TOPAS Version: 3.3.p1
# Parameter File: Simple_Pattern.txt
# Results for scorer MLIC_Scorer
# Scored in component: MLIC
# X in 180 bins of 0.222222 cm
# Y in 1 bin  of 10 cm
# Z in 1 bin  of 10 cm
# EnergyDeposit ( MeV ) : Sum   
0, 0, 0, 36.56975555419922
1, 0, 0, 38.91463470458984
2, 0, 0, 37.82373809814453
3, 0, 0, 38.51532363891602
4, 0, 0, 38.59548568725586
5, 0, 0, 38.79296112060547
6, 0, 0, 39.23363494873047
7, 0, 0, 39.41890335083008
8, 0, 0, 39.56139755249023
9, 0, 0, 39.39236831665039
10, 0, 0, 38.98011779785156
11, 0, 0, 38.93803405761719
12, 0, 0, 40.79818344116211
13, 0, 0, 39.98728179931641
14, 0, 0, 38.57545852661133
15, 0, 0, 42.05025482177734
16, 0, 0, 40.17693328857422
17, 0, 0, 40.55672073364258
18, 0, 0, 41.49623489379883
19, 0, 0, 40.03714370727539
20, 0, 0, 42.88502502441406
21, 0, 0, 40.53859329223633
22, 0, 0, 43.01379776000977
23, 0, 0, 42.49316024780273
24, 0, 0, 42.32096099853516
25, 0, 0, 43.03610992431641
26, 0, 0, 42.33871841430664
27, 0, 0, 43.1965446472168
28, 0, 0, 43.43710327148438
29, 0, 0, 45.18186950683594
30, 0, 0, 44.38506317138672
31, 0, 0, 46.15085601806641
32, 0, 0, 44.90953826904297
33, 0, 0, 44.36749649047852
34, 0, 0, 43.83155822753906
35, 0, 0, 44.3425178527832
36, 0, 0, 46.858154296875
37, 0, 0, 47.15203475952148
38, 0, 0, 47.02753067016602
39, 0, 0, 47.77716445922852
40, 0, 0, 46.98990249633789
41, 0, 0, 45.9647331237793
42, 0, 0, 49.31351089477539
43, 0, 0, 48.20378112792969
44, 0, 0, 49.20913696289062
45, 0, 0, 49.40436172485352
46, 0, 0, 51.22579574584961
47, 0, 0, 51.17156982421875
48, 0, 0, 50.32739639282227
49, 0, 0, 50.6693000793457
50, 0, 0, 51.93635559082031
51, 0, 0, 52.84226226806641
52, 0, 0, 53.41594314575195
53, 0, 0, 53.48752975463867
54, 0, 0, 53.40899276733398
55, 0, 0, 54.30535125732422
56, 0, 0, 55.15693283081055
57, 0, 0, 56.71170425415039
58, 0, 0, 56.88229370117188
59, 0, 0, 57.15454864501953
60, 0, 0, 56.81634521484375
61, 0, 0, 57.47132110595703
62, 0, 0, 59.81339645385742
63, 0, 0, 60.15810775756836
64, 0, 0, 61.7613639831543
65, 0, 0, 60.51610565185547
66, 0, 0, 62.26671600341797
67, 0, 0, 65.34652709960938
68, 0, 0, 65.07300567626953
69, 0, 0, 64.74186706542969
70, 0, 0, 66.80757141113281
71, 0, 0, 66.64286804199219
72, 0, 0, 69.06681823730469
73, 0, 0, 71.69911956787109
74, 0, 0, 73.65061187744141
75, 0, 0, 74.79970550537109
76, 0, 0, 76.96691131591797
77, 0, 0, 79.26905059814453
78, 0, 0, 80.24833679199219
79, 0, 0, 83.25980377197266
80, 0, 0, 87.05715942382812
81, 0, 0, 89.53507232666016
82, 0, 0, 93.80901336669922
83, 0, 0, 96.75766754150391
84, 0, 0, 103.2764053344727
85, 0, 0, 108.4190521240234
86, 0, 0, 114.6729431152344
87, 0, 0, 123.0166091918945
88, 0, 0, 138.2554473876953
89, 0, 0, 157.8219299316406
90, 0, 0, 191.8844909667969
91, 0, 0, 173.5733947753906
92, 0, 0, 217.5305328369141
93, 0, 0, 195.5181732177734
94, 0, 0, 117.8554611206055
95, 0, 0, 13.32608509063721
96, 0, 0, 10.92534255981445
97, 0, 0, 0
98, 0, 0, 0
99, 0, 0, 0
100, 0, 0, 0
101, 0, 0, 0
102, 0, 0, 0
103, 0, 0, 0
104, 0, 0, 0
105, 0, 0, 0
106, 0, 0, 0
107, 0, 0, 0
108, 0, 0, 0
109, 0, 0, 0
110, 0, 0, 0
111, 0, 0, 0
112, 0, 0, 0
113, 0, 0, 0
114, 0, 0, 0
115, 0, 0, 0
116, 0, 0, 0
117, 0, 0, 0
118, 0, 0, 0
119, 0, 0, 0
120, 0, 0, 0
121, 0, 0, 0
122, 0, 0, 0
123, 0, 0, 0
124, 0, 0, 0
125, 0, 0, 0
126, 0, 0, 0
127, 0, 0, 0
128, 0, 0, 0
129, 0, 0, 0
130, 0, 0, 0
131, 0, 0, 0
132, 0, 0, 0
133, 0, 0, 0
134, 0, 0, 0
135, 0, 0, 0
136, 0, 0, 0
137, 0, 0, 0
138, 0, 0, 0
139, 0, 0, 0
140, 0, 0, 0
141, 0, 0, 0
142, 0, 0, 0
143, 0, 0, 0
144, 0, 0, 0
145, 0, 0, 0
146, 0, 0, 0
147, 0, 0, 0
148, 0, 0, 0
149, 0, 0, 0
150, 0, 0, 0
151, 0, 0, 0
152, 0, 0, 0
153, 0, 0, 0
154, 0, 0, 0
155, 0, 0, 0
156, 0, 0, 0
157, 0, 0, 0
158, 0, 0, 0
159, 0, 0, 0
160, 0, 0, 0
161, 0, 0, 0
162, 0, 0, 0
163, 0, 0, 0
164, 0, 0, 0
165, 0, 0, 0
166, 0, 0, 0
167, 0, 0, 0
168, 0, 0, 0
169, 0, 0, 0
170, 0, 0, 0
171, 0, 0, 0
172, 0, 0, 0
173, 0, 0, 0
174, 0, 0, 0
175, 0, 0, 0
176, 0, 0, 0
177, 0, 0, 0
178, 0, 0, 0
179, 0, 0, 0
