# TOPAS Version: 3.3.p1
# Parameter File: Simple_Pattern.txt
# Results for scorer MLIC_Scorer
# Scored in component: MLIC
# X in 180 bins of 0.222222 cm
# Y in 1 bin  of 10 cm
# Z in 1 bin  of 10 cm
# EnergyDeposit ( MeV ) : Sum   
0, 0, 0, 49.21768188476562
1, 0, 0, 48.92927551269531
2, 0, 0, 48.02804183959961
3, 0, 0, 48.62027359008789
4, 0, 0, 49.29924392700195
5, 0, 0, 48.59844207763672
6, 0, 0, 49.53779220581055
7, 0, 0, 48.75374603271484
8, 0, 0, 47.84757995605469
9, 0, 0, 50.37268447875977
10, 0, 0, 48.69844055175781
11, 0, 0, 51.45742034912109
12, 0, 0, 49.9014892578125
13, 0, 0, 52.356201171875
14, 0, 0, 50.73992156982422
15, 0, 0, 52.70465469360352
16, 0, 0, 50.6070556640625
17, 0, 0, 49.44161224365234
18, 0, 0, 51.84898376464844
19, 0, 0, 52.32645797729492
20, 0, 0, 53.89521026611328
21, 0, 0, 52.43302536010742
22, 0, 0, 54.64113235473633
23, 0, 0, 51.70591735839844
24, 0, 0, 53.65631866455078
25, 0, 0, 54.37216567993164
26, 0, 0, 55.01147842407227
27, 0, 0, 54.01278305053711
28, 0, 0, 54.13554382324219
29, 0, 0, 54.38653945922852
30, 0, 0, 57.46733856201172
31, 0, 0, 55.75300216674805
32, 0, 0, 58.30739593505859
33, 0, 0, 57.1331787109375
34, 0, 0, 56.20553970336914
35, 0, 0, 57.27181625366211
36, 0, 0, 57.45092391967773
37, 0, 0, 57.67329788208008
38, 0, 0, 59.20307922363281
39, 0, 0, 57.8392333984375
40, 0, 0, 61.66658782958984
41, 0, 0, 59.98909378051758
42, 0, 0, 61.42136001586914
43, 0, 0, 61.92966842651367
44, 0, 0, 61.38978958129883
45, 0, 0, 63.28570175170898
46, 0, 0, 63.46351623535156
47, 0, 0, 63.5509147644043
48, 0, 0, 63.0540885925293
49, 0, 0, 64.21442413330078
50, 0, 0, 64.73054504394531
51, 0, 0, 66.02426147460938
52, 0, 0, 65.73709106445312
53, 0, 0, 66.11688995361328
54, 0, 0, 68.45270538330078
55, 0, 0, 68.16226959228516
56, 0, 0, 70.05764770507812
57, 0, 0, 70.52202606201172
58, 0, 0, 70.63652801513672
59, 0, 0, 71.36056518554688
60, 0, 0, 73.10826873779297
61, 0, 0, 72.56056976318359
62, 0, 0, 76.03076171875
63, 0, 0, 75.54373168945312
64, 0, 0, 76.03144073486328
65, 0, 0, 78.0914306640625
66, 0, 0, 78.00010681152344
67, 0, 0, 82.5672607421875
68, 0, 0, 81.85853576660156
69, 0, 0, 82.79607391357422
70, 0, 0, 87.29428100585938
71, 0, 0, 85.77823638916016
72, 0, 0, 88.26920318603516
73, 0, 0, 89.58699798583984
74, 0, 0, 93.03582000732422
75, 0, 0, 94.24067687988281
76, 0, 0, 97.70703125
77, 0, 0, 100.5816345214844
78, 0, 0, 104.2465591430664
79, 0, 0, 106.6064300537109
80, 0, 0, 109.4275588989258
81, 0, 0, 113.8849182128906
82, 0, 0, 118.6481781005859
83, 0, 0, 123.0581665039062
84, 0, 0, 131.1264343261719
85, 0, 0, 139.6543884277344
86, 0, 0, 147.0076446533203
87, 0, 0, 160.4351043701172
88, 0, 0, 175.5181427001953
89, 0, 0, 201.8161163330078
90, 0, 0, 251.7502136230469
91, 0, 0, 293.4155883789062
92, 0, 0, 279.356201171875
93, 0, 0, 166.8995208740234
94, 0, 0, 86.90821075439453
95, 0, 0, 52.03089904785156
96, 0, 0, 0.2449469119310379
97, 0, 0, 0
98, 0, 0, 0
99, 0, 0, 0
100, 0, 0, 0
101, 0, 0, 0
102, 0, 0, 0
103, 0, 0, 0
104, 0, 0, 0
105, 0, 0, 0
106, 0, 0, 0
107, 0, 0, 0
108, 0, 0, 0
109, 0, 0, 0
110, 0, 0, 0
111, 0, 0, 0
112, 0, 0, 0
113, 0, 0, 0
114, 0, 0, 0
115, 0, 0, 0
116, 0, 0, 0
117, 0, 0, 0
118, 0, 0, 0
119, 0, 0, 0
120, 0, 0, 0
121, 0, 0, 0
122, 0, 0, 0
123, 0, 0, 0
124, 0, 0, 0
125, 0, 0, 0
126, 0, 0, 0
127, 0, 0, 0
128, 0, 0, 0
129, 0, 0, 0
130, 0, 0, 0
131, 0, 0, 0
132, 0, 0, 0
133, 0, 0, 0
134, 0, 0, 0
135, 0, 0, 0
136, 0, 0, 0
137, 0, 0, 0
138, 0, 0, 0
139, 0, 0, 0
140, 0, 0, 0
141, 0, 0, 0
142, 0, 0, 0
143, 0, 0, 0
144, 0, 0, 0
145, 0, 0, 0
146, 0, 0, 0
147, 0, 0, 0
148, 0, 0, 0
149, 0, 0, 0
150, 0, 0, 0
151, 0, 0, 0
152, 0, 0, 0
153, 0, 0, 0
154, 0, 0, 0
155, 0, 0, 0
156, 0, 0, 0
157, 0, 0, 0
158, 0, 0, 0
159, 0, 0, 0
160, 0, 0, 0
161, 0, 0, 0
162, 0, 0, 0
163, 0, 0, 0
164, 0, 0, 0
165, 0, 0, 0
166, 0, 0, 0
167, 0, 0, 0
168, 0, 0, 0
169, 0, 0, 0
170, 0, 0, 0
171, 0, 0, 0
172, 0, 0, 0
173, 0, 0, 0
174, 0, 0, 0
175, 0, 0, 0
176, 0, 0, 0
177, 0, 0, 0
178, 0, 0, 0
179, 0, 0, 0
