# TOPAS Version: 3.3.p1
# Parameter File: Simple_Pattern.txt
# Results for scorer MLIC_Scorer
# Scored in component: MLIC
# X in 180 bins of 0.222222 cm
# Y in 1 bin  of 10 cm
# Z in 1 bin  of 10 cm
# EnergyDeposit ( MeV ) : Sum   
0, 0, 0, 1090.02392578125
1, 0, 0, 1092.258422851562
2, 0, 0, 1099.08935546875
3, 0, 0, 1101.832885742188
4, 0, 0, 1106.330688476562
5, 0, 0, 1107.07568359375
6, 0, 0, 1107.725830078125
7, 0, 0, 1121.677124023438
8, 0, 0, 1133.659423828125
9, 0, 0, 1134.338256835938
10, 0, 0, 1135.429443359375
11, 0, 0, 1131.5078125
12, 0, 0, 1148.277954101562
13, 0, 0, 1153.55126953125
14, 0, 0, 1168.197265625
15, 0, 0, 1159.753784179688
16, 0, 0, 1172.8544921875
17, 0, 0, 1177.249145507812
18, 0, 0, 1183.258178710938
19, 0, 0, 1192.152221679688
20, 0, 0, 1188.405883789062
21, 0, 0, 1209.408935546875
22, 0, 0, 1209.318359375
23, 0, 0, 1220.966918945312
24, 0, 0, 1231.491821289062
25, 0, 0, 1231.577758789062
26, 0, 0, 1243.07177734375
27, 0, 0, 1245.09912109375
28, 0, 0, 1249.85400390625
29, 0, 0, 1261.2216796875
30, 0, 0, 1274.076049804688
31, 0, 0, 1284.313720703125
32, 0, 0, 1285.354370117188
33, 0, 0, 1289.388427734375
34, 0, 0, 1302.827026367188
35, 0, 0, 1311.470092773438
36, 0, 0, 1322.204467773438
37, 0, 0, 1330.79443359375
38, 0, 0, 1339.964233398438
39, 0, 0, 1343.606689453125
40, 0, 0, 1359.253662109375
41, 0, 0, 1366.148315429688
42, 0, 0, 1376.656494140625
43, 0, 0, 1390.9853515625
44, 0, 0, 1409.468505859375
45, 0, 0, 1411.338500976562
46, 0, 0, 1423.95458984375
47, 0, 0, 1442.397338867188
48, 0, 0, 1452.9736328125
49, 0, 0, 1467.440307617188
50, 0, 0, 1478.392456054688
51, 0, 0, 1504.475708007812
52, 0, 0, 1514.789672851562
53, 0, 0, 1525.000366210938
54, 0, 0, 1538.19677734375
55, 0, 0, 1560.91162109375
56, 0, 0, 1571.00439453125
57, 0, 0, 1585.777099609375
58, 0, 0, 1612.675659179688
59, 0, 0, 1630.73193359375
60, 0, 0, 1654.690673828125
61, 0, 0, 1681.126831054688
62, 0, 0, 1708.351440429688
63, 0, 0, 1723.834594726562
64, 0, 0, 1746.080200195312
65, 0, 0, 1770.505615234375
66, 0, 0, 1799.199829101562
67, 0, 0, 1831.922973632812
68, 0, 0, 1853.736938476562
69, 0, 0, 1896.727416992188
70, 0, 0, 1933.878051757812
71, 0, 0, 1969.81396484375
72, 0, 0, 2006.468872070312
73, 0, 0, 2045.572143554688
74, 0, 0, 2093.710693359375
75, 0, 0, 2155.3603515625
76, 0, 0, 2194.814697265625
77, 0, 0, 2263.321533203125
78, 0, 0, 2335.6806640625
79, 0, 0, 2401.64404296875
80, 0, 0, 2494.51513671875
81, 0, 0, 2583.517578125
82, 0, 0, 2686.19140625
83, 0, 0, 2819.873779296875
84, 0, 0, 2958.694091796875
85, 0, 0, 3131.485595703125
86, 0, 0, 3359.522216796875
87, 0, 0, 3624.795166015625
88, 0, 0, 4035.3525390625
89, 0, 0, 4598.76513671875
90, 0, 0, 5382.84326171875
91, 0, 0, 6109.3095703125
92, 0, 0, 6135.16064453125
93, 0, 0, 4134.35888671875
94, 0, 0, 2128.780029296875
95, 0, 0, 847.3211669921875
96, 0, 0, 159.0932769775391
97, 0, 0, 2.863172054290771
98, 0, 0, 0
99, 0, 0, 0
100, 0, 0, 0
101, 0, 0, 0
102, 0, 0, 0
103, 0, 0, 0
104, 0, 0, 0
105, 0, 0, 0
106, 0, 0, 0
107, 0, 0, 0
108, 0, 0, 0
109, 0, 0, 0
110, 0, 0, 0
111, 0, 0, 0
112, 0, 0, 0
113, 0, 0, 0
114, 0, 0, 0
115, 0, 0, 0
116, 0, 0, 0
117, 0, 0, 0
118, 0, 0, 0
119, 0, 0, 0
120, 0, 0, 0
121, 0, 0, 0.03136659786105156
122, 0, 0, 0
123, 0, 0, 0
124, 0, 0, 0
125, 0, 0, 0
126, 0, 0, 0
127, 0, 0, 0
128, 0, 0, 0
129, 0, 0, 0
130, 0, 0, 0
131, 0, 0, 0
132, 0, 0, 0
133, 0, 0, 0
134, 0, 0, 0
135, 0, 0, 0
136, 0, 0, 0
137, 0, 0, 0
138, 0, 0, 0
139, 0, 0, 0.02553248777985573
140, 0, 0, 0
141, 0, 0, 0
142, 0, 0, 0
143, 0, 0, 0
144, 0, 0, 0
145, 0, 0, 0
146, 0, 0, 0
147, 0, 0, 0
148, 0, 0, 0
149, 0, 0, 0
150, 0, 0, 0
151, 0, 0, 0
152, 0, 0, 0
153, 0, 0, 0
154, 0, 0, 0
155, 0, 0, 0
156, 0, 0, 0.01058789249509573
157, 0, 0, 0
158, 0, 0, 0
159, 0, 0, 0
160, 0, 0, 0
161, 0, 0, 0
162, 0, 0, 0
163, 0, 0, 0
164, 0, 0, 0
165, 0, 0, 0
166, 0, 0, 0
167, 0, 0, 0
168, 0, 0, 0
169, 0, 0, 0
170, 0, 0, 0
171, 0, 0, 0
172, 0, 0, 0
173, 0, 0, 0
174, 0, 0, 0
175, 0, 0, 0
176, 0, 0, 0
177, 0, 0, 0
178, 0, 0, 0
179, 0, 0, 0.02240706048905849
