# TOPAS Version: 3.3.p1
# Parameter File: Simple_Pattern.txt
# Results for scorer MLIC_Scorer
# Scored in component: MLIC
# X in 165 bins of 0.2 cm
# Y in 1 bin  of 10 cm
# Z in 1 bin  of 10 cm
# EnergyDeposit ( MeV ) : Sum   
0, 0, 0, 935.6737670898438
1, 0, 0, 938.507568359375
2, 0, 0, 944.3038940429688
3, 0, 0, 937.5203857421875
4, 0, 0, 953.6898803710938
5, 0, 0, 945.8867797851562
6, 0, 0, 949.4302368164062
7, 0, 0, 964.5952758789062
8, 0, 0, 961.1953735351562
9, 0, 0, 962.1463012695312
10, 0, 0, 962.3916625976562
11, 0, 0, 962.38330078125
12, 0, 0, 969.8584594726562
13, 0, 0, 976.613037109375
14, 0, 0, 970.1900634765625
15, 0, 0, 980.620849609375
16, 0, 0, 982.8072509765625
17, 0, 0, 986.8804931640625
18, 0, 0, 992.3599853515625
19, 0, 0, 999.1405029296875
20, 0, 0, 990.5206298828125
21, 0, 0, 996.1298217773438
22, 0, 0, 1003.982604980469
23, 0, 0, 1002.27099609375
24, 0, 0, 1001.477661132812
25, 0, 0, 1007.39794921875
26, 0, 0, 1013.819030761719
27, 0, 0, 1020.822570800781
28, 0, 0, 1019.111938476562
29, 0, 0, 1021.54443359375
30, 0, 0, 1022.060668945312
31, 0, 0, 1028.438720703125
32, 0, 0, 1033.875122070312
33, 0, 0, 1039.430053710938
34, 0, 0, 1037.91796875
35, 0, 0, 1031.130737304688
36, 0, 0, 1038.385498046875
37, 0, 0, 1042.823364257812
38, 0, 0, 1050.730712890625
39, 0, 0, 1051.341430664062
40, 0, 0, 1054.792846679688
41, 0, 0, 1058.398315429688
42, 0, 0, 1062.481201171875
43, 0, 0, 1060.935668945312
44, 0, 0, 1062.672241210938
45, 0, 0, 1061.982788085938
46, 0, 0, 1062.220703125
47, 0, 0, 1071.076171875
48, 0, 0, 1067.83935546875
49, 0, 0, 1068.533447265625
50, 0, 0, 1079.35009765625
51, 0, 0, 1078.123413085938
52, 0, 0, 1086.74267578125
53, 0, 0, 1077.191162109375
54, 0, 0, 1085.455078125
55, 0, 0, 1084.182739257812
56, 0, 0, 1092.615600585938
57, 0, 0, 1102.48291015625
58, 0, 0, 1094.46435546875
59, 0, 0, 1106.058715820312
60, 0, 0, 1115.962524414062
61, 0, 0, 1115.66650390625
62, 0, 0, 1120.481689453125
63, 0, 0, 1130.290161132812
64, 0, 0, 1136.154418945312
65, 0, 0, 1141.3642578125
66, 0, 0, 1151.30615234375
67, 0, 0, 1156.60302734375
68, 0, 0, 1152.928833007812
69, 0, 0, 1158.810668945312
70, 0, 0, 1160.565673828125
71, 0, 0, 1173.7255859375
72, 0, 0, 1171.671630859375
73, 0, 0, 1178.2802734375
74, 0, 0, 1188.113525390625
75, 0, 0, 1193.65625
76, 0, 0, 1189.435668945312
77, 0, 0, 1212.863891601562
78, 0, 0, 1219.80615234375
79, 0, 0, 1230.056640625
80, 0, 0, 1234.849975585938
81, 0, 0, 1248.545043945312
82, 0, 0, 1256.201293945312
83, 0, 0, 1269.266845703125
84, 0, 0, 1281.0751953125
85, 0, 0, 1298.153198242188
86, 0, 0, 1319.560424804688
87, 0, 0, 1321.8828125
88, 0, 0, 1339.110229492188
89, 0, 0, 1351.085571289062
90, 0, 0, 1369.203979492188
91, 0, 0, 1380.662109375
92, 0, 0, 1405.90966796875
93, 0, 0, 1430.03271484375
94, 0, 0, 1447.715454101562
95, 0, 0, 1478.931518554688
96, 0, 0, 1502.861938476562
97, 0, 0, 1528.739013671875
98, 0, 0, 1561.403442382812
99, 0, 0, 1596.424072265625
100, 0, 0, 1630.974609375
101, 0, 0, 1672.670166015625
102, 0, 0, 1719.502319335938
103, 0, 0, 1779.002075195312
104, 0, 0, 1839.027954101562
105, 0, 0, 1920.721801757812
106, 0, 0, 2004.672973632812
107, 0, 0, 2119.691162109375
108, 0, 0, 2258.6904296875
109, 0, 0, 2442.218994140625
110, 0, 0, 2702.205078125
111, 0, 0, 3004.13671875
112, 0, 0, 3406.03564453125
113, 0, 0, 3746.840087890625
114, 0, 0, 3811.398681640625
115, 0, 0, 3060.9892578125
116, 0, 0, 2133.86181640625
117, 0, 0, 945.0672607421875
118, 0, 0, 372.1389770507812
119, 0, 0, 105.1882781982422
120, 0, 0, 21.2269287109375
121, 0, 0, 0.017496008425951
122, 0, 0, 0.05229120329022408
123, 0, 0, 0
124, 0, 0, 0
125, 0, 0, 0.05520936474204063
126, 0, 0, 0.002642502775415778
127, 0, 0, 0.05182731151580811
128, 0, 0, 0.06882062554359436
129, 0, 0, 0
130, 0, 0, 0.09702955186367035
131, 0, 0, 0.01209194585680962
132, 0, 0, 0
133, 0, 0, 0.05783960968255997
134, 0, 0, 0
135, 0, 0, 0
136, 0, 0, 0
137, 0, 0, 0.01244058273732662
138, 0, 0, 0
139, 0, 0, 0
140, 0, 0, 0.02893563359975815
141, 0, 0, 0
142, 0, 0, 0.05082429945468903
143, 0, 0, 0
144, 0, 0, 0
145, 0, 0, 0.2177712321281433
146, 0, 0, 0
147, 0, 0, 0.07502273470163345
148, 0, 0, 0
149, 0, 0, 0.006342159118503332
150, 0, 0, 0.06219562888145447
151, 0, 0, 0
152, 0, 0, 0
153, 0, 0, 0.05278687924146652
154, 0, 0, 0
155, 0, 0, 0
156, 0, 0, 0.08630559593439102
157, 0, 0, 0.05173036083579063
158, 0, 0, 0.06649774312973022
159, 0, 0, 0.01031624432653189
160, 0, 0, 0.01750461012125015
161, 0, 0, 0
162, 0, 0, 0
163, 0, 0, 0
164, 0, 0, 0.1067366227507591
