# TOPAS Version: 3.3.p1
# Parameter File: Simple_Pattern.txt
# Results for scorer MLIC_Scorer
# Scored in component: MLIC
# X in 180 bins of 0.222222 cm
# Y in 1 bin  of 10 cm
# Z in 1 bin  of 10 cm
# EnergyDeposit ( MeV ) : Sum   
0, 0, 0, 1128.099975585938
1, 0, 0, 1122.036865234375
2, 0, 0, 1128.609008789062
3, 0, 0, 1141.991088867188
4, 0, 0, 1141.51806640625
5, 0, 0, 1150.519897460938
6, 0, 0, 1154.473510742188
7, 0, 0, 1153.740966796875
8, 0, 0, 1158.97021484375
9, 0, 0, 1165.847534179688
10, 0, 0, 1179.194213867188
11, 0, 0, 1182.85009765625
12, 0, 0, 1188.353637695312
13, 0, 0, 1201.472900390625
14, 0, 0, 1199.062622070312
15, 0, 0, 1208.909301757812
16, 0, 0, 1210.978149414062
17, 0, 0, 1223.1337890625
18, 0, 0, 1224.29736328125
19, 0, 0, 1227.518432617188
20, 0, 0, 1248.02880859375
21, 0, 0, 1246.292846679688
22, 0, 0, 1263.829956054688
23, 0, 0, 1261.006103515625
24, 0, 0, 1264.804443359375
25, 0, 0, 1280.849975585938
26, 0, 0, 1287.156127929688
27, 0, 0, 1301.903442382812
28, 0, 0, 1303.446411132812
29, 0, 0, 1324.607788085938
30, 0, 0, 1332.162719726562
31, 0, 0, 1339.76220703125
32, 0, 0, 1342.002807617188
33, 0, 0, 1359.29931640625
34, 0, 0, 1374.22900390625
35, 0, 0, 1383.061645507812
36, 0, 0, 1403.645141601562
37, 0, 0, 1406.77392578125
38, 0, 0, 1420.220581054688
39, 0, 0, 1434.837768554688
40, 0, 0, 1437.116455078125
41, 0, 0, 1462.23974609375
42, 0, 0, 1477.082153320312
43, 0, 0, 1484.961059570312
44, 0, 0, 1496.112670898438
45, 0, 0, 1518.990234375
46, 0, 0, 1542.40771484375
47, 0, 0, 1549.382568359375
48, 0, 0, 1567.344116210938
49, 0, 0, 1581.82666015625
50, 0, 0, 1606.706665039062
51, 0, 0, 1626.251220703125
52, 0, 0, 1642.03173828125
53, 0, 0, 1663.702026367188
54, 0, 0, 1691.837890625
55, 0, 0, 1707.4755859375
56, 0, 0, 1742.487426757812
57, 0, 0, 1767.46630859375
58, 0, 0, 1794.586791992188
59, 0, 0, 1822.0166015625
60, 0, 0, 1848.749267578125
61, 0, 0, 1897.897216796875
62, 0, 0, 1930.744873046875
63, 0, 0, 1977.299072265625
64, 0, 0, 2014.956665039062
65, 0, 0, 2056.327880859375
66, 0, 0, 2109.27587890625
67, 0, 0, 2171.280517578125
68, 0, 0, 2219.247314453125
69, 0, 0, 2294.948974609375
70, 0, 0, 2375.535888671875
71, 0, 0, 2466.93310546875
72, 0, 0, 2572.160400390625
73, 0, 0, 2696.67138671875
74, 0, 0, 2863.830078125
75, 0, 0, 3083.22216796875
76, 0, 0, 3422.1142578125
77, 0, 0, 3817.108642578125
78, 0, 0, 4111.6396484375
79, 0, 0, 4172.2802734375
80, 0, 0, 3428.73486328125
81, 0, 0, 2471.1806640625
82, 0, 0, 1952.79833984375
83, 0, 0, 1790.580200195312
84, 0, 0, 1735.324829101562
85, 0, 0, 1732.915405273438
86, 0, 0, 1829.679321289062
87, 0, 0, 1939.429443359375
88, 0, 0, 2095.020751953125
89, 0, 0, 2338.77685546875
90, 0, 0, 2663.374755859375
91, 0, 0, 2976.203125
92, 0, 0, 2939.8271484375
93, 0, 0, 1982.623291015625
94, 0, 0, 977.7232055664062
95, 0, 0, 299.1542053222656
96, 0, 0, 68.49697113037109
97, 0, 0, 11.55993175506592
98, 0, 0, 0.002824569586664438
99, 0, 0, 0
100, 0, 0, 0
101, 0, 0, 0
102, 0, 0, 0
103, 0, 0, 0
104, 0, 0, 0
105, 0, 0, 0
106, 0, 0, 0
107, 0, 0, 0
108, 0, 0, 0
109, 0, 0, 0
110, 0, 0, 0
111, 0, 0, 0
112, 0, 0, 0
113, 0, 0, 0
114, 0, 0, 0
115, 0, 0, 0
116, 0, 0, 0
117, 0, 0, 0
118, 0, 0, 0
119, 0, 0, 0
120, 0, 0, 0
121, 0, 0, 0
122, 0, 0, 0
123, 0, 0, 0
124, 0, 0, 0
125, 0, 0, 0
126, 0, 0, 0
127, 0, 0, 0
128, 0, 0, 0
129, 0, 0, 0
130, 0, 0, 0
131, 0, 0, 0
132, 0, 0, 0
133, 0, 0, 0
134, 0, 0, 0
135, 0, 0, 0
136, 0, 0, 0
137, 0, 0, 0
138, 0, 0, 0
139, 0, 0, 0
140, 0, 0, 0
141, 0, 0, 0
142, 0, 0, 0
143, 0, 0, 0
144, 0, 0, 0
145, 0, 0, 0
146, 0, 0, 0
147, 0, 0, 0
148, 0, 0, 0
149, 0, 0, 0
150, 0, 0, 0
151, 0, 0, 0
152, 0, 0, 0
153, 0, 0, 0
154, 0, 0, 0
155, 0, 0, 0
156, 0, 0, 0
157, 0, 0, 0
158, 0, 0, 0
159, 0, 0, 0
160, 0, 0, 0
161, 0, 0, 0
162, 0, 0, 0
163, 0, 0, 0
164, 0, 0, 0
165, 0, 0, 0
166, 0, 0, 0
167, 0, 0, 0
168, 0, 0, 0
169, 0, 0, 0
170, 0, 0, 0
171, 0, 0, 0
172, 0, 0, 0
173, 0, 0, 0
174, 0, 0, 0
175, 0, 0, 0
176, 0, 0, 0
177, 0, 0, 0
178, 0, 0, 0
179, 0, 0, 0
