# TOPAS Version: 3.3.p1
# Parameter File: Simple_Pattern.txt
# Results for scorer MLIC_Scorer
# Scored in component: MLIC
# X in 180 bins of 0.222222 cm
# Y in 1 bin  of 10 cm
# Z in 1 bin  of 10 cm
# EnergyDeposit ( MeV ) : Sum   
0, 0, 0, 40.46258926391602
1, 0, 0, 40.23745727539062
2, 0, 0, 41.33173751831055
3, 0, 0, 41.26599884033203
4, 0, 0, 43.60308456420898
5, 0, 0, 41.53513717651367
6, 0, 0, 41.2203254699707
7, 0, 0, 41.55608749389648
8, 0, 0, 42.9405517578125
9, 0, 0, 42.91071701049805
10, 0, 0, 44.82441711425781
11, 0, 0, 44.1203727722168
12, 0, 0, 43.02690887451172
13, 0, 0, 43.28782653808594
14, 0, 0, 43.322265625
15, 0, 0, 45.3925666809082
16, 0, 0, 44.68991851806641
17, 0, 0, 45.23916625976562
18, 0, 0, 43.15107727050781
19, 0, 0, 45.05529022216797
20, 0, 0, 45.91718292236328
21, 0, 0, 45.55031585693359
22, 0, 0, 45.61572647094727
23, 0, 0, 45.82111740112305
24, 0, 0, 45.65594100952148
25, 0, 0, 47.91626358032227
26, 0, 0, 47.42430877685547
27, 0, 0, 48.58420944213867
28, 0, 0, 48.30749893188477
29, 0, 0, 48.99956512451172
30, 0, 0, 48.59948348999023
31, 0, 0, 49.52969360351562
32, 0, 0, 49.7358512878418
33, 0, 0, 49.71681594848633
34, 0, 0, 50.21894073486328
35, 0, 0, 50.64123916625977
36, 0, 0, 50.34121704101562
37, 0, 0, 53.17143630981445
38, 0, 0, 49.81393432617188
39, 0, 0, 51.2484245300293
40, 0, 0, 51.84640121459961
41, 0, 0, 51.77267837524414
42, 0, 0, 55.08007431030273
43, 0, 0, 55.12741851806641
44, 0, 0, 54.84190368652344
45, 0, 0, 55.16442489624023
46, 0, 0, 55.37088394165039
47, 0, 0, 56.0107421875
48, 0, 0, 57.04342651367188
49, 0, 0, 56.71013641357422
50, 0, 0, 59.97671890258789
51, 0, 0, 57.9788932800293
52, 0, 0, 59.5528678894043
53, 0, 0, 61.26935577392578
54, 0, 0, 62.21197891235352
55, 0, 0, 61.10094833374023
56, 0, 0, 63.27230453491211
57, 0, 0, 63.35954284667969
58, 0, 0, 64.49982452392578
59, 0, 0, 66.648681640625
60, 0, 0, 67.75551605224609
61, 0, 0, 67.28475189208984
62, 0, 0, 69.73781585693359
63, 0, 0, 72.25975799560547
64, 0, 0, 71.48713684082031
65, 0, 0, 73.785888671875
66, 0, 0, 76.33403015136719
67, 0, 0, 76.74957275390625
68, 0, 0, 80.43949890136719
69, 0, 0, 82.15805816650391
70, 0, 0, 85.69593811035156
71, 0, 0, 88.64161682128906
72, 0, 0, 91.28323364257812
73, 0, 0, 96.50815582275391
74, 0, 0, 98.77880859375
75, 0, 0, 107.0508804321289
76, 0, 0, 116.2304382324219
77, 0, 0, 132.9084014892578
78, 0, 0, 140.3004455566406
79, 0, 0, 143.1051177978516
80, 0, 0, 161.9468231201172
81, 0, 0, 116.0813903808594
82, 0, 0, 57.34349060058594
83, 0, 0, 59.35195922851562
84, 0, 0, 65.49604034423828
85, 0, 0, 70.38260650634766
86, 0, 0, 71.77081298828125
87, 0, 0, 69.46783447265625
88, 0, 0, 75.05946350097656
89, 0, 0, 83.06113433837891
90, 0, 0, 97.42577362060547
91, 0, 0, 120.1888122558594
92, 0, 0, 150.9627075195312
93, 0, 0, 114.0173263549805
94, 0, 0, 62.90092086791992
95, 0, 0, 20.46141815185547
96, 0, 0, 0
97, 0, 0, 0
98, 0, 0, 0
99, 0, 0, 0
100, 0, 0, 0
101, 0, 0, 0
102, 0, 0, 0
103, 0, 0, 0
104, 0, 0, 0
105, 0, 0, 0
106, 0, 0, 0
107, 0, 0, 0
108, 0, 0, 0
109, 0, 0, 0
110, 0, 0, 0
111, 0, 0, 0
112, 0, 0, 0
113, 0, 0, 0
114, 0, 0, 0
115, 0, 0, 0
116, 0, 0, 0
117, 0, 0, 0
118, 0, 0, 0
119, 0, 0, 0
120, 0, 0, 0
121, 0, 0, 0
122, 0, 0, 0
123, 0, 0, 0
124, 0, 0, 0
125, 0, 0, 0
126, 0, 0, 0
127, 0, 0, 0
128, 0, 0, 0
129, 0, 0, 0
130, 0, 0, 0
131, 0, 0, 0
132, 0, 0, 0
133, 0, 0, 0
134, 0, 0, 0
135, 0, 0, 0
136, 0, 0, 0
137, 0, 0, 0
138, 0, 0, 0
139, 0, 0, 0
140, 0, 0, 0
141, 0, 0, 0
142, 0, 0, 0
143, 0, 0, 0
144, 0, 0, 0
145, 0, 0, 0
146, 0, 0, 0
147, 0, 0, 0
148, 0, 0, 0
149, 0, 0, 0
150, 0, 0, 0
151, 0, 0, 0
152, 0, 0, 0
153, 0, 0, 0
154, 0, 0, 0
155, 0, 0, 0
156, 0, 0, 0
157, 0, 0, 0
158, 0, 0, 0
159, 0, 0, 0
160, 0, 0, 0
161, 0, 0, 0
162, 0, 0, 0
163, 0, 0, 0
164, 0, 0, 0
165, 0, 0, 0
166, 0, 0, 0
167, 0, 0, 0
168, 0, 0, 0
169, 0, 0, 0
170, 0, 0, 0
171, 0, 0, 0
172, 0, 0, 0
173, 0, 0, 0
174, 0, 0, 0
175, 0, 0, 0
176, 0, 0, 0
177, 0, 0, 0
178, 0, 0, 0
179, 0, 0, 0
