# TOPAS Version: 3.3.p1
# Parameter File: Simple_Pattern.txt
# Results for scorer MLIC_Scorer
# Scored in component: MLIC
# X in 180 bins of 0.222222 cm
# Y in 1 bin  of 10 cm
# Z in 1 bin  of 10 cm
# EnergyDeposit ( MeV ) : Sum   
0, 0, 0, 1090.449829101562
1, 0, 0, 1090.75048828125
2, 0, 0, 1095.93115234375
3, 0, 0, 1098.439819335938
4, 0, 0, 1104.881713867188
5, 0, 0, 1112.541870117188
6, 0, 0, 1115.068237304688
7, 0, 0, 1123.81689453125
8, 0, 0, 1122.694580078125
9, 0, 0, 1126.072143554688
10, 0, 0, 1130.780151367188
11, 0, 0, 1135.93212890625
12, 0, 0, 1144.3173828125
13, 0, 0, 1151.370971679688
14, 0, 0, 1152.13134765625
15, 0, 0, 1161.172973632812
16, 0, 0, 1166.658203125
17, 0, 0, 1166.112182617188
18, 0, 0, 1182.576416015625
19, 0, 0, 1186.746826171875
20, 0, 0, 1191.104370117188
21, 0, 0, 1201.4541015625
22, 0, 0, 1208.809814453125
23, 0, 0, 1213.86181640625
24, 0, 0, 1225.977905273438
25, 0, 0, 1230.945922851562
26, 0, 0, 1240.62548828125
27, 0, 0, 1243.950561523438
28, 0, 0, 1256.185546875
29, 0, 0, 1259.628173828125
30, 0, 0, 1271.80810546875
31, 0, 0, 1281.71337890625
32, 0, 0, 1286.055419921875
33, 0, 0, 1299.934448242188
34, 0, 0, 1295.880859375
35, 0, 0, 1304.446533203125
36, 0, 0, 1308.6201171875
37, 0, 0, 1327.1005859375
38, 0, 0, 1342.020751953125
39, 0, 0, 1349.716186523438
40, 0, 0, 1362.903686523438
41, 0, 0, 1369.878051757812
42, 0, 0, 1379.322631835938
43, 0, 0, 1392.138305664062
44, 0, 0, 1401.388427734375
45, 0, 0, 1417.890747070312
46, 0, 0, 1433.3046875
47, 0, 0, 1448.7353515625
48, 0, 0, 1456.194091796875
49, 0, 0, 1464.078369140625
50, 0, 0, 1471.253540039062
51, 0, 0, 1500.404663085938
52, 0, 0, 1518.885986328125
53, 0, 0, 1522.127319335938
54, 0, 0, 1542.938720703125
55, 0, 0, 1562.028198242188
56, 0, 0, 1579.885620117188
57, 0, 0, 1592.374633789062
58, 0, 0, 1616.24267578125
59, 0, 0, 1624.993286132812
60, 0, 0, 1642.665771484375
61, 0, 0, 1681.803344726562
62, 0, 0, 1697.40576171875
63, 0, 0, 1715.03515625
64, 0, 0, 1747.525146484375
65, 0, 0, 1772.915283203125
66, 0, 0, 1796.089965820312
67, 0, 0, 1838.754516601562
68, 0, 0, 1861.85009765625
69, 0, 0, 1901.22216796875
70, 0, 0, 1929.49072265625
71, 0, 0, 1972.4833984375
72, 0, 0, 2006.269287109375
73, 0, 0, 2051.958251953125
74, 0, 0, 2094.54296875
75, 0, 0, 2147.637451171875
76, 0, 0, 2203.1591796875
77, 0, 0, 2264.620361328125
78, 0, 0, 2336.916015625
79, 0, 0, 2398.5556640625
80, 0, 0, 2484.15283203125
81, 0, 0, 2573.861572265625
82, 0, 0, 2677.1220703125
83, 0, 0, 2791.899658203125
84, 0, 0, 2944.279052734375
85, 0, 0, 3123.64501953125
86, 0, 0, 3316.895751953125
87, 0, 0, 3602.18359375
88, 0, 0, 3987.212646484375
89, 0, 0, 4571.349609375
90, 0, 0, 5376.9638671875
91, 0, 0, 6242.7607421875
92, 0, 0, 5970.56494140625
93, 0, 0, 4320.53125
94, 0, 0, 2001.856567382812
95, 0, 0, 716.4887084960938
96, 0, 0, 163.2344360351562
97, 0, 0, 19.61977386474609
98, 0, 0, 0.004341260995715857
99, 0, 0, 0
100, 0, 0, 0.01460155379027128
101, 0, 0, 0
102, 0, 0, 0
103, 0, 0, 0
104, 0, 0, 0
105, 0, 0, 0
106, 0, 0, 0.00542537122964859
107, 0, 0, 0
108, 0, 0, 0
109, 0, 0, 0
110, 0, 0, 0
111, 0, 0, 0
112, 0, 0, 0
113, 0, 0, 0
114, 0, 0, 0
115, 0, 0, 0
116, 0, 0, 0
117, 0, 0, 0
118, 0, 0, 0
119, 0, 0, 0
120, 0, 0, 0
121, 0, 0, 0
122, 0, 0, 0.01599008776247501
123, 0, 0, 0
124, 0, 0, 0
125, 0, 0, 0
126, 0, 0, 0
127, 0, 0, 0
128, 0, 0, 0
129, 0, 0, 0
130, 0, 0, 0
131, 0, 0, 0
132, 0, 0, 0
133, 0, 0, 0
134, 0, 0, 0
135, 0, 0, 0
136, 0, 0, 0
137, 0, 0, 0
138, 0, 0, 0
139, 0, 0, 0
140, 0, 0, 0
141, 0, 0, 0
142, 0, 0, 0
143, 0, 0, 0
144, 0, 0, 0
145, 0, 0, 0
146, 0, 0, 0
147, 0, 0, 0
148, 0, 0, 0
149, 0, 0, 0
150, 0, 0, 0
151, 0, 0, 0
152, 0, 0, 0
153, 0, 0, 0
154, 0, 0, 0
155, 0, 0, 0
156, 0, 0, 0
157, 0, 0, 0
158, 0, 0, 0
159, 0, 0, 0
160, 0, 0, 0
161, 0, 0, 0
162, 0, 0, 0
163, 0, 0, 0
164, 0, 0, 0
165, 0, 0, 0
166, 0, 0, 0
167, 0, 0, 0
168, 0, 0, 0
169, 0, 0, 0
170, 0, 0, 0
171, 0, 0, 0
172, 0, 0, 0
173, 0, 0, 0
174, 0, 0, 0
175, 0, 0, 0
176, 0, 0, 0
177, 0, 0, 0
178, 0, 0, 0
179, 0, 0, 0
