# TOPAS Version: 3.3.p1
# Parameter File: Simple_Pattern.txt
# Results for scorer MLIC_Scorer
# Scored in component: MLIC
# X in 180 bins of 0.222222 cm
# Y in 1 bin  of 10 cm
# Z in 1 bin  of 10 cm
# EnergyDeposit ( MeV ) : Sum   
0, 0, 0, 85.01820373535156
1, 0, 0, 85.05246734619141
2, 0, 0, 84.46515655517578
3, 0, 0, 82.53624725341797
4, 0, 0, 85.87291717529297
5, 0, 0, 82.4896240234375
6, 0, 0, 84.56452178955078
7, 0, 0, 87.0438232421875
8, 0, 0, 87.71132659912109
9, 0, 0, 88.74158477783203
10, 0, 0, 87.25701904296875
11, 0, 0, 88.66455078125
12, 0, 0, 87.61114501953125
13, 0, 0, 90.73117065429688
14, 0, 0, 88.12986755371094
15, 0, 0, 90.28279876708984
16, 0, 0, 91.74694061279297
17, 0, 0, 91.50059509277344
18, 0, 0, 92.17594146728516
19, 0, 0, 92.31190490722656
20, 0, 0, 92.81417846679688
21, 0, 0, 92.81417083740234
22, 0, 0, 95.06438446044922
23, 0, 0, 95.32540893554688
24, 0, 0, 94.07806396484375
25, 0, 0, 94.84701538085938
26, 0, 0, 95.47509765625
27, 0, 0, 96.23910522460938
28, 0, 0, 95.39768981933594
29, 0, 0, 96.74832153320312
30, 0, 0, 100.7399063110352
31, 0, 0, 99.75852966308594
32, 0, 0, 100.5345993041992
33, 0, 0, 99.03314971923828
34, 0, 0, 99.08170318603516
35, 0, 0, 101.2040863037109
36, 0, 0, 102.6733093261719
37, 0, 0, 100.9111175537109
38, 0, 0, 101.6985321044922
39, 0, 0, 107.9476699829102
40, 0, 0, 103.6895523071289
41, 0, 0, 105.057258605957
42, 0, 0, 105.8770141601562
43, 0, 0, 107.3826751708984
44, 0, 0, 109.4653396606445
45, 0, 0, 109.9914398193359
46, 0, 0, 111.6863098144531
47, 0, 0, 112.3733062744141
48, 0, 0, 111.0257263183594
49, 0, 0, 113.5566635131836
50, 0, 0, 118.2574844360352
51, 0, 0, 115.6688842773438
52, 0, 0, 119.2749938964844
53, 0, 0, 120.3586502075195
54, 0, 0, 122.0222473144531
55, 0, 0, 121.6287460327148
56, 0, 0, 122.2251281738281
57, 0, 0, 126.0000457763672
58, 0, 0, 124.4148941040039
59, 0, 0, 124.8453063964844
60, 0, 0, 127.9061584472656
61, 0, 0, 129.6071472167969
62, 0, 0, 131.9717712402344
63, 0, 0, 131.3766632080078
64, 0, 0, 134.07568359375
65, 0, 0, 138.0518798828125
66, 0, 0, 136.8057250976562
67, 0, 0, 138.9426422119141
68, 0, 0, 142.0819396972656
69, 0, 0, 145.1206970214844
70, 0, 0, 146.4634552001953
71, 0, 0, 152.2475128173828
72, 0, 0, 153.5358734130859
73, 0, 0, 156.7445526123047
74, 0, 0, 162.4377136230469
75, 0, 0, 165.5827941894531
76, 0, 0, 168.5184783935547
77, 0, 0, 173.909423828125
78, 0, 0, 180.5827484130859
79, 0, 0, 187.5383605957031
80, 0, 0, 191.7309875488281
81, 0, 0, 198.6235046386719
82, 0, 0, 208.8302154541016
83, 0, 0, 219.3708648681641
84, 0, 0, 229.0592041015625
85, 0, 0, 236.7859344482422
86, 0, 0, 254.6745147705078
87, 0, 0, 277.6027221679688
88, 0, 0, 311.4043884277344
89, 0, 0, 365.5323181152344
90, 0, 0, 445.3240966796875
91, 0, 0, 447.7023010253906
92, 0, 0, 412.4578857421875
93, 0, 0, 309.3231506347656
94, 0, 0, 105.9071884155273
95, 0, 0, 22.12247848510742
96, 0, 0, 7.625113964080811
97, 0, 0, 0
98, 0, 0, 0
99, 0, 0, 0
100, 0, 0, 0
101, 0, 0, 0
102, 0, 0, 0
103, 0, 0, 0
104, 0, 0, 0
105, 0, 0, 0
106, 0, 0, 0
107, 0, 0, 0
108, 0, 0, 0
109, 0, 0, 0
110, 0, 0, 0
111, 0, 0, 0
112, 0, 0, 0
113, 0, 0, 0
114, 0, 0, 0
115, 0, 0, 0
116, 0, 0, 0
117, 0, 0, 0
118, 0, 0, 0
119, 0, 0, 0
120, 0, 0, 0
121, 0, 0, 0
122, 0, 0, 0
123, 0, 0, 0
124, 0, 0, 0
125, 0, 0, 0
126, 0, 0, 0
127, 0, 0, 0
128, 0, 0, 0
129, 0, 0, 0
130, 0, 0, 0
131, 0, 0, 0
132, 0, 0, 0
133, 0, 0, 0
134, 0, 0, 0
135, 0, 0, 0
136, 0, 0, 0
137, 0, 0, 0
138, 0, 0, 0
139, 0, 0, 0
140, 0, 0, 0
141, 0, 0, 0
142, 0, 0, 0
143, 0, 0, 0
144, 0, 0, 0
145, 0, 0, 0
146, 0, 0, 0
147, 0, 0, 0
148, 0, 0, 0
149, 0, 0, 0
150, 0, 0, 0
151, 0, 0, 0
152, 0, 0, 0
153, 0, 0, 0
154, 0, 0, 0
155, 0, 0, 0
156, 0, 0, 0
157, 0, 0, 0
158, 0, 0, 0
159, 0, 0, 0
160, 0, 0, 0
161, 0, 0, 0
162, 0, 0, 0
163, 0, 0, 0
164, 0, 0, 0
165, 0, 0, 0
166, 0, 0, 0
167, 0, 0, 0
168, 0, 0, 0
169, 0, 0, 0
170, 0, 0, 0
171, 0, 0, 0
172, 0, 0, 0
173, 0, 0, 0
174, 0, 0, 0
175, 0, 0, 0
176, 0, 0, 0
177, 0, 0, 0
178, 0, 0, 0
179, 0, 0, 0
