# TOPAS Version: 3.3.p1
# Parameter File: Simple_Pattern.txt
# Results for scorer MLIC_Scorer
# Scored in component: MLIC
# X in 180 bins of 0.222222 cm
# Y in 1 bin  of 10 cm
# Z in 1 bin  of 10 cm
# EnergyDeposit ( MeV ) : Sum   
0, 0, 0, 97.68788909912109
1, 0, 0, 97.33405303955078
2, 0, 0, 94.38137054443359
3, 0, 0, 96.08993530273438
4, 0, 0, 97.50270080566406
5, 0, 0, 97.49242401123047
6, 0, 0, 97.63599395751953
7, 0, 0, 98.8538818359375
8, 0, 0, 98.68816375732422
9, 0, 0, 98.88814544677734
10, 0, 0, 100.1593475341797
11, 0, 0, 100.6783599853516
12, 0, 0, 102.7754364013672
13, 0, 0, 102.6061782836914
14, 0, 0, 101.0756225585938
15, 0, 0, 101.0127487182617
16, 0, 0, 102.0838394165039
17, 0, 0, 103.7240142822266
18, 0, 0, 105.0127868652344
19, 0, 0, 106.3731994628906
20, 0, 0, 105.747314453125
21, 0, 0, 105.3075561523438
22, 0, 0, 108.7196578979492
23, 0, 0, 105.0037384033203
24, 0, 0, 107.136589050293
25, 0, 0, 109.0103607177734
26, 0, 0, 108.350700378418
27, 0, 0, 109.0764465332031
28, 0, 0, 108.1857376098633
29, 0, 0, 110.3467559814453
30, 0, 0, 111.6346130371094
31, 0, 0, 113.70751953125
32, 0, 0, 113.650276184082
33, 0, 0, 114.3924560546875
34, 0, 0, 113.4155502319336
35, 0, 0, 114.2748794555664
36, 0, 0, 117.0233001708984
37, 0, 0, 115.6914978027344
38, 0, 0, 118.350212097168
39, 0, 0, 118.572624206543
40, 0, 0, 118.5958251953125
41, 0, 0, 123.0591583251953
42, 0, 0, 121.3035583496094
43, 0, 0, 123.6539993286133
44, 0, 0, 122.779182434082
45, 0, 0, 126.3719635009766
46, 0, 0, 128.2390594482422
47, 0, 0, 127.5124053955078
48, 0, 0, 128.6387786865234
49, 0, 0, 130.408203125
50, 0, 0, 134.013427734375
51, 0, 0, 134.8275604248047
52, 0, 0, 132.5474243164062
53, 0, 0, 135.1399841308594
54, 0, 0, 133.3761901855469
55, 0, 0, 137.7354888916016
56, 0, 0, 139.2184906005859
57, 0, 0, 143.2913970947266
58, 0, 0, 144.4318237304688
59, 0, 0, 146.5526428222656
60, 0, 0, 145.0280151367188
61, 0, 0, 146.0586700439453
62, 0, 0, 147.905029296875
63, 0, 0, 152.1011962890625
64, 0, 0, 151.7263946533203
65, 0, 0, 158.0130310058594
66, 0, 0, 158.5294799804688
67, 0, 0, 162.8406066894531
68, 0, 0, 161.4868927001953
69, 0, 0, 166.9835662841797
70, 0, 0, 169.3942260742188
71, 0, 0, 171.0594177246094
72, 0, 0, 176.7334442138672
73, 0, 0, 183.7502136230469
74, 0, 0, 185.8427734375
75, 0, 0, 191.7034606933594
76, 0, 0, 194.4922180175781
77, 0, 0, 200.5907592773438
78, 0, 0, 204.5015869140625
79, 0, 0, 213.1175384521484
80, 0, 0, 219.1654510498047
81, 0, 0, 228.2857055664062
82, 0, 0, 237.7798156738281
83, 0, 0, 248.1200256347656
84, 0, 0, 261.4342041015625
85, 0, 0, 276.1769409179688
86, 0, 0, 299.12109375
87, 0, 0, 327.9493713378906
88, 0, 0, 363.0143432617188
89, 0, 0, 422.4066772460938
90, 0, 0, 497.519775390625
91, 0, 0, 564.948974609375
92, 0, 0, 438.8409423828125
93, 0, 0, 315.3593444824219
94, 0, 0, 168.2918395996094
95, 0, 0, 71.57028198242188
96, 0, 0, 3.266437530517578
97, 0, 0, 0
98, 0, 0, 0
99, 0, 0, 0
100, 0, 0, 0
101, 0, 0, 0
102, 0, 0, 0
103, 0, 0, 0
104, 0, 0, 0
105, 0, 0, 0
106, 0, 0, 0
107, 0, 0, 0
108, 0, 0, 0
109, 0, 0, 0
110, 0, 0, 0
111, 0, 0, 0
112, 0, 0, 0
113, 0, 0, 0
114, 0, 0, 0
115, 0, 0, 0
116, 0, 0, 0
117, 0, 0, 0
118, 0, 0, 0
119, 0, 0, 0
120, 0, 0, 0
121, 0, 0, 0
122, 0, 0, 0
123, 0, 0, 0
124, 0, 0, 0
125, 0, 0, 0
126, 0, 0, 0
127, 0, 0, 0
128, 0, 0, 0
129, 0, 0, 0
130, 0, 0, 0
131, 0, 0, 0
132, 0, 0, 0
133, 0, 0, 0
134, 0, 0, 0
135, 0, 0, 0
136, 0, 0, 0
137, 0, 0, 0
138, 0, 0, 0
139, 0, 0, 0
140, 0, 0, 0
141, 0, 0, 0
142, 0, 0, 0
143, 0, 0, 0
144, 0, 0, 0
145, 0, 0, 0
146, 0, 0, 0
147, 0, 0, 0
148, 0, 0, 0
149, 0, 0, 0
150, 0, 0, 0
151, 0, 0, 0
152, 0, 0, 0
153, 0, 0, 0
154, 0, 0, 0
155, 0, 0, 0
156, 0, 0, 0
157, 0, 0, 0
158, 0, 0, 0
159, 0, 0, 0
160, 0, 0, 0
161, 0, 0, 0
162, 0, 0, 0
163, 0, 0, 0
164, 0, 0, 0
165, 0, 0, 0
166, 0, 0, 0
167, 0, 0, 0
168, 0, 0, 0
169, 0, 0, 0
170, 0, 0, 0
171, 0, 0, 0
172, 0, 0, 0
173, 0, 0, 0
174, 0, 0, 0
175, 0, 0, 0
176, 0, 0, 0
177, 0, 0, 0
178, 0, 0, 0
179, 0, 0, 0
