# TOPAS Version: 3.3.p1
# Parameter File: Simple_Pattern.txt
# Results for scorer MLIC_Scorer
# Scored in component: MLIC
# X in 180 bins of 0.222222 cm
# Y in 1 bin  of 10 cm
# Z in 1 bin  of 10 cm
# EnergyDeposit ( MeV ) : Sum   
0, 0, 0, 53.64020156860352
1, 0, 0, 52.10402679443359
2, 0, 0, 51.74869918823242
3, 0, 0, 54.33061218261719
4, 0, 0, 53.51063919067383
5, 0, 0, 54.46663284301758
6, 0, 0, 54.68550109863281
7, 0, 0, 55.51173782348633
8, 0, 0, 55.27818298339844
9, 0, 0, 58.44023132324219
10, 0, 0, 55.46167373657227
11, 0, 0, 55.80723571777344
12, 0, 0, 57.63837432861328
13, 0, 0, 56.82521438598633
14, 0, 0, 57.92102432250977
15, 0, 0, 58.1776237487793
16, 0, 0, 56.55423355102539
17, 0, 0, 58.62627410888672
18, 0, 0, 59.39408874511719
19, 0, 0, 58.74713516235352
20, 0, 0, 58.38830947875977
21, 0, 0, 60.61356735229492
22, 0, 0, 61.70084762573242
23, 0, 0, 61.31842803955078
24, 0, 0, 61.44001388549805
25, 0, 0, 62.69002914428711
26, 0, 0, 62.43729400634766
27, 0, 0, 61.98327255249023
28, 0, 0, 61.59161758422852
29, 0, 0, 63.71495056152344
30, 0, 0, 64.99127960205078
31, 0, 0, 65.19374084472656
32, 0, 0, 66.10063171386719
33, 0, 0, 67.48741149902344
34, 0, 0, 67.09926605224609
35, 0, 0, 67.39443969726562
36, 0, 0, 65.80568695068359
37, 0, 0, 68.29648590087891
38, 0, 0, 70.10363006591797
39, 0, 0, 69.28798675537109
40, 0, 0, 70.20149230957031
41, 0, 0, 70.11662292480469
42, 0, 0, 73.66336822509766
43, 0, 0, 72.474365234375
44, 0, 0, 74.30370330810547
45, 0, 0, 74.30744934082031
46, 0, 0, 74.81220245361328
47, 0, 0, 74.60153961181641
48, 0, 0, 76.82888031005859
49, 0, 0, 79.66423797607422
50, 0, 0, 78.96323394775391
51, 0, 0, 78.593017578125
52, 0, 0, 82.39849853515625
53, 0, 0, 83.78575134277344
54, 0, 0, 84.32254791259766
55, 0, 0, 84.90022277832031
56, 0, 0, 89.41515350341797
57, 0, 0, 89.84243774414062
58, 0, 0, 91.97499847412109
59, 0, 0, 92.11327362060547
60, 0, 0, 94.15362548828125
61, 0, 0, 98.57240295410156
62, 0, 0, 99.87329864501953
63, 0, 0, 100.543342590332
64, 0, 0, 102.4743194580078
65, 0, 0, 106.7536544799805
66, 0, 0, 111.0559158325195
67, 0, 0, 115.2844543457031
68, 0, 0, 119.1901626586914
69, 0, 0, 122.7553482055664
70, 0, 0, 128.0973358154297
71, 0, 0, 134.3553009033203
72, 0, 0, 142.9317779541016
73, 0, 0, 150.9463195800781
74, 0, 0, 165.3489227294922
75, 0, 0, 180.7358245849609
76, 0, 0, 203.7076873779297
77, 0, 0, 250.5410308837891
78, 0, 0, 301.8447265625
79, 0, 0, 304.422119140625
80, 0, 0, 209.1593322753906
81, 0, 0, 100.1295700073242
82, 0, 0, 52.68829727172852
83, 0, 0, 0
84, 0, 0, 0
85, 0, 0, 0
86, 0, 0, 0
87, 0, 0, 0
88, 0, 0, 0
89, 0, 0, 0
90, 0, 0, 0
91, 0, 0, 0
92, 0, 0, 0
93, 0, 0, 0
94, 0, 0, 0
95, 0, 0, 0
96, 0, 0, 0
97, 0, 0, 0
98, 0, 0, 0
99, 0, 0, 0
100, 0, 0, 0
101, 0, 0, 0
102, 0, 0, 0
103, 0, 0, 0
104, 0, 0, 0
105, 0, 0, 0
106, 0, 0, 0
107, 0, 0, 0
108, 0, 0, 0
109, 0, 0, 0
110, 0, 0, 0
111, 0, 0, 0
112, 0, 0, 0
113, 0, 0, 0
114, 0, 0, 0
115, 0, 0, 0
116, 0, 0, 0
117, 0, 0, 0
118, 0, 0, 0
119, 0, 0, 0
120, 0, 0, 0
121, 0, 0, 0
122, 0, 0, 0
123, 0, 0, 0
124, 0, 0, 0
125, 0, 0, 0
126, 0, 0, 0
127, 0, 0, 0
128, 0, 0, 0
129, 0, 0, 0
130, 0, 0, 0
131, 0, 0, 0
132, 0, 0, 0
133, 0, 0, 0
134, 0, 0, 0
135, 0, 0, 0
136, 0, 0, 0
137, 0, 0, 0
138, 0, 0, 0
139, 0, 0, 0
140, 0, 0, 0
141, 0, 0, 0
142, 0, 0, 0
143, 0, 0, 0
144, 0, 0, 0
145, 0, 0, 0
146, 0, 0, 0
147, 0, 0, 0
148, 0, 0, 0
149, 0, 0, 0
150, 0, 0, 0
151, 0, 0, 0
152, 0, 0, 0
153, 0, 0, 0
154, 0, 0, 0
155, 0, 0, 0
156, 0, 0, 0
157, 0, 0, 0
158, 0, 0, 0
159, 0, 0, 0
160, 0, 0, 0
161, 0, 0, 0
162, 0, 0, 0
163, 0, 0, 0
164, 0, 0, 0
165, 0, 0, 0
166, 0, 0, 0
167, 0, 0, 0
168, 0, 0, 0
169, 0, 0, 0
170, 0, 0, 0
171, 0, 0, 0
172, 0, 0, 0
173, 0, 0, 0
174, 0, 0, 0
175, 0, 0, 0
176, 0, 0, 0
177, 0, 0, 0
178, 0, 0, 0
179, 0, 0, 0
