# TOPAS Version: 3.3.p1
# Parameter File: Simple_Pattern.txt
# Results for scorer MLIC_Scorer
# Scored in component: MLIC
# X in 180 bins of 0.222222 cm
# Y in 1 bin  of 10 cm
# Z in 1 bin  of 10 cm
# EnergyDeposit ( MeV ) : Sum   
0, 0, 0, 1078.333374023438
1, 0, 0, 1084.456787109375
2, 0, 0, 1084.6650390625
3, 0, 0, 1096.539428710938
4, 0, 0, 1105.85302734375
5, 0, 0, 1101.171752929688
6, 0, 0, 1112.915649414062
7, 0, 0, 1112.92626953125
8, 0, 0, 1122.768676757812
9, 0, 0, 1121.946655273438
10, 0, 0, 1129.582763671875
11, 0, 0, 1135.5390625
12, 0, 0, 1146.68359375
13, 0, 0, 1146.436645507812
14, 0, 0, 1160.19921875
15, 0, 0, 1153.929077148438
16, 0, 0, 1157.844848632812
17, 0, 0, 1164.274658203125
18, 0, 0, 1171.691772460938
19, 0, 0, 1167.480224609375
20, 0, 0, 1173.613891601562
21, 0, 0, 1189.366943359375
22, 0, 0, 1184.660522460938
23, 0, 0, 1188.443115234375
24, 0, 0, 1194.578125
25, 0, 0, 1207.259765625
26, 0, 0, 1213.211669921875
27, 0, 0, 1205.978881835938
28, 0, 0, 1213.211181640625
29, 0, 0, 1227.86669921875
30, 0, 0, 1226.809692382812
31, 0, 0, 1234.2373046875
32, 0, 0, 1229.997924804688
33, 0, 0, 1243.993896484375
34, 0, 0, 1250.031616210938
35, 0, 0, 1251.069458007812
36, 0, 0, 1268.549926757812
37, 0, 0, 1257.983276367188
38, 0, 0, 1257.155151367188
39, 0, 0, 1278.081420898438
40, 0, 0, 1276.429321289062
41, 0, 0, 1284.165161132812
42, 0, 0, 1286.826416015625
43, 0, 0, 1290.8115234375
44, 0, 0, 1298.861328125
45, 0, 0, 1302.37060546875
46, 0, 0, 1306.80810546875
47, 0, 0, 1322.293701171875
48, 0, 0, 1327.620849609375
49, 0, 0, 1340.314331054688
50, 0, 0, 1353.281860351562
51, 0, 0, 1356.2119140625
52, 0, 0, 1369.753173828125
53, 0, 0, 1380.740112304688
54, 0, 0, 1372.493286132812
55, 0, 0, 1386.380004882812
56, 0, 0, 1400.686645507812
57, 0, 0, 1405.58447265625
58, 0, 0, 1420.388549804688
59, 0, 0, 1430.896362304688
60, 0, 0, 1441.817138671875
61, 0, 0, 1459.958251953125
62, 0, 0, 1462.582397460938
63, 0, 0, 1483.9619140625
64, 0, 0, 1503.222412109375
65, 0, 0, 1514.860473632812
66, 0, 0, 1538.096435546875
67, 0, 0, 1556.133544921875
68, 0, 0, 1579.961303710938
69, 0, 0, 1597.787841796875
70, 0, 0, 1622.001220703125
71, 0, 0, 1653.1103515625
72, 0, 0, 1682.458862304688
73, 0, 0, 1710.6318359375
74, 0, 0, 1735.6064453125
75, 0, 0, 1773.96044921875
76, 0, 0, 1807.42626953125
77, 0, 0, 1839.598388671875
78, 0, 0, 1891.800170898438
79, 0, 0, 1943.646850585938
80, 0, 0, 2007.6328125
81, 0, 0, 2074.05224609375
82, 0, 0, 2129.7548828125
83, 0, 0, 2236.119140625
84, 0, 0, 2339.20458984375
85, 0, 0, 2467.289794921875
86, 0, 0, 2629.156494140625
87, 0, 0, 2848.263427734375
88, 0, 0, 3122.017578125
89, 0, 0, 3564.20361328125
90, 0, 0, 4203.0380859375
91, 0, 0, 4825.076171875
92, 0, 0, 4569.1416015625
93, 0, 0, 3257.251708984375
94, 0, 0, 1719.751098632812
95, 0, 0, 515.3041381835938
96, 0, 0, 128.7480926513672
97, 0, 0, 5.914373397827148
98, 0, 0, 0
99, 0, 0, 0
100, 0, 0, 0.01616408303380013
101, 0, 0, 0.05829352512955666
102, 0, 0, 0
103, 0, 0, 0
104, 0, 0, 0.06156855076551437
105, 0, 0, 0
106, 0, 0, 0
107, 0, 0, 0.001911286148242652
108, 0, 0, 0
109, 0, 0, 0
110, 0, 0, 0
111, 0, 0, 0
112, 0, 0, 0
113, 0, 0, 0
114, 0, 0, 0.01699589751660824
115, 0, 0, 0
116, 0, 0, 0.08418982475996017
117, 0, 0, 0
118, 0, 0, 0.0164821483194828
119, 0, 0, 0
120, 0, 0, 0
121, 0, 0, 0.03376461565494537
122, 0, 0, 0.02779422700405121
123, 0, 0, 0
124, 0, 0, 0.008513953536748886
125, 0, 0, 0
126, 0, 0, 0
127, 0, 0, 0.0892459973692894
128, 0, 0, 0.09491552412509918
129, 0, 0, 0
130, 0, 0, 0
131, 0, 0, 0
132, 0, 0, 0.05930674076080322
133, 0, 0, 0
134, 0, 0, 0.1980314552783966
135, 0, 0, 0.1064084619283676
136, 0, 0, 0
137, 0, 0, 0.03042281232774258
138, 0, 0, 0
139, 0, 0, 0
140, 0, 0, 0
141, 0, 0, 0
142, 0, 0, 0.03553829714655876
143, 0, 0, 0
144, 0, 0, 0
145, 0, 0, 0
146, 0, 0, 0.05095991119742393
147, 0, 0, 0
148, 0, 0, 0
149, 0, 0, 0
150, 0, 0, 0.02056162990629673
151, 0, 0, 0
152, 0, 0, 0
153, 0, 0, 0.0005143987364135683
154, 0, 0, 0.03000392578542233
155, 0, 0, 0.01985802128911018
156, 0, 0, 0
157, 0, 0, 0
158, 0, 0, 0
159, 0, 0, 0.03093342296779156
160, 0, 0, 0
161, 0, 0, 0.02965183928608894
162, 0, 0, 0
163, 0, 0, 0.005029933992773294
164, 0, 0, 0
165, 0, 0, 0
166, 0, 0, 0
167, 0, 0, 0
168, 0, 0, 0
169, 0, 0, 0
170, 0, 0, 0
171, 0, 0, 0.008404532447457314
172, 0, 0, 0
173, 0, 0, 0
174, 0, 0, 0
175, 0, 0, 0.107773944735527
176, 0, 0, 0
177, 0, 0, 0
178, 0, 0, 0
179, 0, 0, 0
