# TOPAS Version: 3.3.p1
# Parameter File: Simple_Pattern.txt
# Results for scorer MLIC_Scorer
# Scored in component: MLIC
# X in 180 bins of 0.222222 cm
# Y in 1 bin  of 10 cm
# Z in 1 bin  of 10 cm
# EnergyDeposit ( MeV ) : Sum   
0, 0, 0, 35.08447265625
1, 0, 0, 35.09980010986328
2, 0, 0, 35.39388656616211
3, 0, 0, 35.9249267578125
4, 0, 0, 35.99391555786133
5, 0, 0, 36.30209732055664
6, 0, 0, 34.93042755126953
7, 0, 0, 36.01454925537109
8, 0, 0, 34.79853439331055
9, 0, 0, 35.67431259155273
10, 0, 0, 37.22724533081055
11, 0, 0, 35.66690826416016
12, 0, 0, 39.48631286621094
13, 0, 0, 37.06186294555664
14, 0, 0, 37.70923233032227
15, 0, 0, 36.94424819946289
16, 0, 0, 37.14833068847656
17, 0, 0, 38.48934555053711
18, 0, 0, 38.85641860961914
19, 0, 0, 37.15551376342773
20, 0, 0, 37.54251861572266
21, 0, 0, 37.10470581054688
22, 0, 0, 37.96187973022461
23, 0, 0, 37.97515487670898
24, 0, 0, 39.10207748413086
25, 0, 0, 41.12498092651367
26, 0, 0, 39.9989013671875
27, 0, 0, 39.99602890014648
28, 0, 0, 39.56304550170898
29, 0, 0, 39.30993270874023
30, 0, 0, 39.55319595336914
31, 0, 0, 41.32196044921875
32, 0, 0, 40.86283874511719
33, 0, 0, 41.94785308837891
34, 0, 0, 42.83072280883789
35, 0, 0, 43.17131805419922
36, 0, 0, 41.78084945678711
37, 0, 0, 41.52558517456055
38, 0, 0, 43.02297592163086
39, 0, 0, 41.98117446899414
40, 0, 0, 43.40917205810547
41, 0, 0, 42.66151428222656
42, 0, 0, 44.97013092041016
43, 0, 0, 43.83250427246094
44, 0, 0, 45.66233444213867
45, 0, 0, 45.60072326660156
46, 0, 0, 46.48506546020508
47, 0, 0, 45.97156524658203
48, 0, 0, 46.55515289306641
49, 0, 0, 47.271728515625
50, 0, 0, 46.41288375854492
51, 0, 0, 47.56416320800781
52, 0, 0, 48.40612411499023
53, 0, 0, 49.0775032043457
54, 0, 0, 50.86729049682617
55, 0, 0, 51.33765411376953
56, 0, 0, 50.78282928466797
57, 0, 0, 51.75796890258789
58, 0, 0, 51.54515838623047
59, 0, 0, 51.92129135131836
60, 0, 0, 52.36526870727539
61, 0, 0, 53.94865036010742
62, 0, 0, 55.02127456665039
63, 0, 0, 55.22583770751953
64, 0, 0, 56.20512390136719
65, 0, 0, 57.56021118164062
66, 0, 0, 57.90067672729492
67, 0, 0, 58.82762908935547
68, 0, 0, 60.61741256713867
69, 0, 0, 62.04458999633789
70, 0, 0, 62.95443725585938
71, 0, 0, 64.10347747802734
72, 0, 0, 64.80059051513672
73, 0, 0, 66.49766540527344
74, 0, 0, 68.50619506835938
75, 0, 0, 70.760986328125
76, 0, 0, 71.63846588134766
77, 0, 0, 73.50856018066406
78, 0, 0, 76.32366943359375
79, 0, 0, 78.16810607910156
80, 0, 0, 80.80762481689453
81, 0, 0, 84.33883666992188
82, 0, 0, 86.9453125
83, 0, 0, 92.714599609375
84, 0, 0, 97.02297210693359
85, 0, 0, 103.1756744384766
86, 0, 0, 110.1018829345703
87, 0, 0, 120.5331802368164
88, 0, 0, 141.2211303710938
89, 0, 0, 149.3491668701172
90, 0, 0, 190.0863342285156
91, 0, 0, 180.4300537109375
92, 0, 0, 148.2183990478516
93, 0, 0, 125.4283294677734
94, 0, 0, 74.49920654296875
95, 0, 0, 40.04723739624023
96, 0, 0, 13.7075891494751
97, 0, 0, 0
98, 0, 0, 0
99, 0, 0, 0
100, 0, 0, 0
101, 0, 0, 0
102, 0, 0, 0
103, 0, 0, 0
104, 0, 0, 0
105, 0, 0, 0
106, 0, 0, 0
107, 0, 0, 0
108, 0, 0, 0
109, 0, 0, 0
110, 0, 0, 0
111, 0, 0, 0
112, 0, 0, 0
113, 0, 0, 0
114, 0, 0, 0
115, 0, 0, 0
116, 0, 0, 0
117, 0, 0, 0
118, 0, 0, 0
119, 0, 0, 0
120, 0, 0, 0
121, 0, 0, 0
122, 0, 0, 0
123, 0, 0, 0
124, 0, 0, 0
125, 0, 0, 0
126, 0, 0, 0
127, 0, 0, 0
128, 0, 0, 0
129, 0, 0, 0
130, 0, 0, 0
131, 0, 0, 0
132, 0, 0, 0
133, 0, 0, 0
134, 0, 0, 0
135, 0, 0, 0
136, 0, 0, 0
137, 0, 0, 0
138, 0, 0, 0
139, 0, 0, 0
140, 0, 0, 0
141, 0, 0, 0
142, 0, 0, 0
143, 0, 0, 0
144, 0, 0, 0
145, 0, 0, 0
146, 0, 0, 0
147, 0, 0, 0
148, 0, 0, 0
149, 0, 0, 0
150, 0, 0, 0
151, 0, 0, 0
152, 0, 0, 0
153, 0, 0, 0
154, 0, 0, 0
155, 0, 0, 0
156, 0, 0, 0
157, 0, 0, 0
158, 0, 0, 0
159, 0, 0, 0
160, 0, 0, 0
161, 0, 0, 0
162, 0, 0, 0
163, 0, 0, 0
164, 0, 0, 0
165, 0, 0, 0
166, 0, 0, 0
167, 0, 0, 0
168, 0, 0, 0
169, 0, 0, 0
170, 0, 0, 0
171, 0, 0, 0
172, 0, 0, 0
173, 0, 0, 0
174, 0, 0, 0
175, 0, 0, 0
176, 0, 0, 0
177, 0, 0, 0
178, 0, 0, 0
179, 0, 0, 0
