# TOPAS Version: 3.3.p1
# Parameter File: Simple_Pattern.txt
# Results for scorer MLIC_Scorer
# Scored in component: MLIC
# X in 180 bins of 0.222222 cm
# Y in 1 bin  of 10 cm
# Z in 1 bin  of 10 cm
# EnergyDeposit ( MeV ) : Sum   
0, 0, 0, 41.31234359741211
1, 0, 0, 42.26239395141602
2, 0, 0, 43.61847686767578
3, 0, 0, 42.11223983764648
4, 0, 0, 41.70883560180664
5, 0, 0, 42.06520462036133
6, 0, 0, 43.31445693969727
7, 0, 0, 43.48105621337891
8, 0, 0, 41.29015731811523
9, 0, 0, 43.85984420776367
10, 0, 0, 43.62046051025391
11, 0, 0, 44.3781623840332
12, 0, 0, 45.79796981811523
13, 0, 0, 45.1636962890625
14, 0, 0, 45.41490936279297
15, 0, 0, 46.3046875
16, 0, 0, 46.67136764526367
17, 0, 0, 44.87882232666016
18, 0, 0, 46.95443344116211
19, 0, 0, 46.75009155273438
20, 0, 0, 46.45342254638672
21, 0, 0, 46.14384460449219
22, 0, 0, 48.36634826660156
23, 0, 0, 47.94218826293945
24, 0, 0, 47.43824768066406
25, 0, 0, 47.22355270385742
26, 0, 0, 46.65717315673828
27, 0, 0, 49.72914123535156
28, 0, 0, 48.13356781005859
29, 0, 0, 48.5961799621582
30, 0, 0, 48.33572006225586
31, 0, 0, 50.48419189453125
32, 0, 0, 48.81258010864258
33, 0, 0, 50.18994522094727
34, 0, 0, 49.97381591796875
35, 0, 0, 52.08355331420898
36, 0, 0, 52.97943115234375
37, 0, 0, 50.51380157470703
38, 0, 0, 51.3520622253418
39, 0, 0, 52.57319259643555
40, 0, 0, 52.195068359375
41, 0, 0, 53.27962112426758
42, 0, 0, 53.62719345092773
43, 0, 0, 53.72776412963867
44, 0, 0, 56.26894760131836
45, 0, 0, 56.27302932739258
46, 0, 0, 56.8561897277832
47, 0, 0, 54.72894668579102
48, 0, 0, 56.90077972412109
49, 0, 0, 56.42162322998047
50, 0, 0, 57.97760772705078
51, 0, 0, 58.64174652099609
52, 0, 0, 59.19582366943359
53, 0, 0, 58.8459358215332
54, 0, 0, 60.77623748779297
55, 0, 0, 59.76657485961914
56, 0, 0, 61.6009521484375
57, 0, 0, 61.12920761108398
58, 0, 0, 61.37492752075195
59, 0, 0, 63.73308181762695
60, 0, 0, 64.20530700683594
61, 0, 0, 65.51964569091797
62, 0, 0, 66.64593505859375
63, 0, 0, 66.15900421142578
64, 0, 0, 68.39850616455078
65, 0, 0, 68.71463012695312
66, 0, 0, 69.87633514404297
67, 0, 0, 72.58264923095703
68, 0, 0, 72.57133483886719
69, 0, 0, 73.87085723876953
70, 0, 0, 76.42195129394531
71, 0, 0, 79.72289276123047
72, 0, 0, 77.3641357421875
73, 0, 0, 81.76497650146484
74, 0, 0, 82.85858154296875
75, 0, 0, 82.17725372314453
76, 0, 0, 86.14643859863281
77, 0, 0, 89.04817199707031
78, 0, 0, 91.55733489990234
79, 0, 0, 93.79124450683594
80, 0, 0, 96.96746063232422
81, 0, 0, 103.5519104003906
82, 0, 0, 106.1989517211914
83, 0, 0, 110.5775375366211
84, 0, 0, 116.9457550048828
85, 0, 0, 121.6672973632812
86, 0, 0, 131.9217071533203
87, 0, 0, 141.4568023681641
88, 0, 0, 155.2095642089844
89, 0, 0, 181.0260772705078
90, 0, 0, 225.3710632324219
91, 0, 0, 231.3764038085938
92, 0, 0, 222.0532073974609
93, 0, 0, 198.9644317626953
94, 0, 0, 93.0211181640625
95, 0, 0, 19.71293258666992
96, 0, 0, 13.85681247711182
97, 0, 0, 0
98, 0, 0, 0
99, 0, 0, 0
100, 0, 0, 0
101, 0, 0, 0
102, 0, 0, 0
103, 0, 0, 0
104, 0, 0, 0
105, 0, 0, 0
106, 0, 0, 0
107, 0, 0, 0
108, 0, 0, 0
109, 0, 0, 0
110, 0, 0, 0
111, 0, 0, 0
112, 0, 0, 0
113, 0, 0, 0
114, 0, 0, 0
115, 0, 0, 0
116, 0, 0, 0
117, 0, 0, 0
118, 0, 0, 0
119, 0, 0, 0
120, 0, 0, 0
121, 0, 0, 0
122, 0, 0, 0
123, 0, 0, 0
124, 0, 0, 0
125, 0, 0, 0
126, 0, 0, 0
127, 0, 0, 0
128, 0, 0, 0
129, 0, 0, 0
130, 0, 0, 0
131, 0, 0, 0
132, 0, 0, 0
133, 0, 0, 0
134, 0, 0, 0
135, 0, 0, 0
136, 0, 0, 0
137, 0, 0, 0
138, 0, 0, 0
139, 0, 0, 0
140, 0, 0, 0
141, 0, 0, 0
142, 0, 0, 0
143, 0, 0, 0
144, 0, 0, 0
145, 0, 0, 0
146, 0, 0, 0
147, 0, 0, 0
148, 0, 0, 0
149, 0, 0, 0
150, 0, 0, 0
151, 0, 0, 0
152, 0, 0, 0
153, 0, 0, 0
154, 0, 0, 0
155, 0, 0, 0
156, 0, 0, 0
157, 0, 0, 0
158, 0, 0, 0
159, 0, 0, 0
160, 0, 0, 0
161, 0, 0, 0
162, 0, 0, 0
163, 0, 0, 0
164, 0, 0, 0
165, 0, 0, 0
166, 0, 0, 0
167, 0, 0, 0
168, 0, 0, 0
169, 0, 0, 0
170, 0, 0, 0
171, 0, 0, 0
172, 0, 0, 0
173, 0, 0, 0
174, 0, 0, 0
175, 0, 0, 0
176, 0, 0, 0
177, 0, 0, 0
178, 0, 0, 0
179, 0, 0, 0
