# TOPAS Version: 3.3.p1
# Parameter File: Simple_Pattern.txt
# Results for scorer MLIC_Scorer
# Scored in component: MLIC
# X in 180 bins of 0.222222 cm
# Y in 1 bin  of 10 cm
# Z in 1 bin  of 10 cm
# EnergyDeposit ( MeV ) : Sum   
0, 0, 0, 29.72044372558594
1, 0, 0, 30.35508918762207
2, 0, 0, 30.06245040893555
3, 0, 0, 32.02651977539062
4, 0, 0, 31.62367057800293
5, 0, 0, 31.45797538757324
6, 0, 0, 30.5058422088623
7, 0, 0, 29.56792640686035
8, 0, 0, 31.22310447692871
9, 0, 0, 30.99124336242676
10, 0, 0, 30.8939037322998
11, 0, 0, 32.39988327026367
12, 0, 0, 31.57730674743652
13, 0, 0, 32.55956268310547
14, 0, 0, 31.64159774780273
15, 0, 0, 34.21092987060547
16, 0, 0, 32.59326553344727
17, 0, 0, 32.70495223999023
18, 0, 0, 32.89569091796875
19, 0, 0, 33.31430053710938
20, 0, 0, 32.41965866088867
21, 0, 0, 33.5040168762207
22, 0, 0, 33.27850341796875
23, 0, 0, 34.59418487548828
24, 0, 0, 36.26285934448242
25, 0, 0, 32.99987030029297
26, 0, 0, 34.05337142944336
27, 0, 0, 33.30874633789062
28, 0, 0, 34.47841262817383
29, 0, 0, 33.71343994140625
30, 0, 0, 35.70561981201172
31, 0, 0, 36.61991882324219
32, 0, 0, 35.6092643737793
33, 0, 0, 35.8165283203125
34, 0, 0, 35.70059967041016
35, 0, 0, 36.47793960571289
36, 0, 0, 37.54941558837891
37, 0, 0, 35.82161331176758
38, 0, 0, 37.77406692504883
39, 0, 0, 38.28606033325195
40, 0, 0, 36.99262619018555
41, 0, 0, 37.29961395263672
42, 0, 0, 39.40482711791992
43, 0, 0, 38.91830444335938
44, 0, 0, 38.7267951965332
45, 0, 0, 39.09243011474609
46, 0, 0, 40.46447372436523
47, 0, 0, 40.54762649536133
48, 0, 0, 40.78574752807617
49, 0, 0, 40.93510437011719
50, 0, 0, 41.59214401245117
51, 0, 0, 41.40655136108398
52, 0, 0, 42.67129135131836
53, 0, 0, 41.466064453125
54, 0, 0, 42.69406890869141
55, 0, 0, 42.65356063842773
56, 0, 0, 43.21983337402344
57, 0, 0, 45.49165344238281
58, 0, 0, 45.62555313110352
59, 0, 0, 45.28616333007812
60, 0, 0, 46.2784309387207
61, 0, 0, 47.38071060180664
62, 0, 0, 46.78897094726562
63, 0, 0, 48.05870819091797
64, 0, 0, 48.51679229736328
65, 0, 0, 49.36137771606445
66, 0, 0, 49.7079963684082
67, 0, 0, 52.07455062866211
68, 0, 0, 52.14246368408203
69, 0, 0, 52.36996459960938
70, 0, 0, 53.7398567199707
71, 0, 0, 54.95711135864258
72, 0, 0, 55.49563217163086
73, 0, 0, 57.36276245117188
74, 0, 0, 58.32022476196289
75, 0, 0, 59.65046310424805
76, 0, 0, 59.62751388549805
77, 0, 0, 63.08654403686523
78, 0, 0, 65.36720275878906
79, 0, 0, 65.98394012451172
80, 0, 0, 70.02284240722656
81, 0, 0, 70.67061614990234
82, 0, 0, 73.09144592285156
83, 0, 0, 75.51798248291016
84, 0, 0, 80.53704833984375
85, 0, 0, 85.58564758300781
86, 0, 0, 89.57651519775391
87, 0, 0, 98.95046234130859
88, 0, 0, 106.4520111083984
89, 0, 0, 117.5021286010742
90, 0, 0, 137.7227935791016
91, 0, 0, 184.0129852294922
92, 0, 0, 195.1658782958984
93, 0, 0, 148.5721588134766
94, 0, 0, 107.4160690307617
95, 0, 0, 11.80661106109619
96, 0, 0, 0
97, 0, 0, 0
98, 0, 0, 0
99, 0, 0, 0
100, 0, 0, 0
101, 0, 0, 0
102, 0, 0, 0
103, 0, 0, 0
104, 0, 0, 0
105, 0, 0, 0
106, 0, 0, 0
107, 0, 0, 0
108, 0, 0, 0
109, 0, 0, 0
110, 0, 0, 0
111, 0, 0, 0
112, 0, 0, 0
113, 0, 0, 0
114, 0, 0, 0
115, 0, 0, 0
116, 0, 0, 0
117, 0, 0, 0
118, 0, 0, 0
119, 0, 0, 0
120, 0, 0, 0
121, 0, 0, 0
122, 0, 0, 0
123, 0, 0, 0
124, 0, 0, 0
125, 0, 0, 0
126, 0, 0, 0
127, 0, 0, 0
128, 0, 0, 0
129, 0, 0, 0
130, 0, 0, 0
131, 0, 0, 0
132, 0, 0, 0
133, 0, 0, 0
134, 0, 0, 0
135, 0, 0, 0
136, 0, 0, 0
137, 0, 0, 0
138, 0, 0, 0
139, 0, 0, 0
140, 0, 0, 0
141, 0, 0, 0
142, 0, 0, 0
143, 0, 0, 0
144, 0, 0, 0
145, 0, 0, 0
146, 0, 0, 0
147, 0, 0, 0
148, 0, 0, 0
149, 0, 0, 0
150, 0, 0, 0
151, 0, 0, 0
152, 0, 0, 0
153, 0, 0, 0
154, 0, 0, 0
155, 0, 0, 0
156, 0, 0, 0
157, 0, 0, 0
158, 0, 0, 0
159, 0, 0, 0
160, 0, 0, 0
161, 0, 0, 0
162, 0, 0, 0
163, 0, 0, 0
164, 0, 0, 0
165, 0, 0, 0
166, 0, 0, 0
167, 0, 0, 0
168, 0, 0, 0
169, 0, 0, 0
170, 0, 0, 0
171, 0, 0, 0
172, 0, 0, 0
173, 0, 0, 0
174, 0, 0, 0
175, 0, 0, 0
176, 0, 0, 0
177, 0, 0, 0
178, 0, 0, 0
179, 0, 0, 0
