# TOPAS Version: 3.3.p1
# Parameter File: Simple_Pattern.txt
# Results for scorer MLIC_Scorer
# Scored in component: MLIC
# X in 180 bins of 0.222222 cm
# Y in 1 bin  of 10 cm
# Z in 1 bin  of 10 cm
# EnergyDeposit ( MeV ) : Sum   
0, 0, 0, 1089.985717773438
1, 0, 0, 1099.649047851562
2, 0, 0, 1088.725341796875
3, 0, 0, 1101.4599609375
4, 0, 0, 1106.6904296875
5, 0, 0, 1113.095825195312
6, 0, 0, 1113.143798828125
7, 0, 0, 1113.779174804688
8, 0, 0, 1125.408447265625
9, 0, 0, 1133.08935546875
10, 0, 0, 1138.787231445312
11, 0, 0, 1148.026977539062
12, 0, 0, 1143.618774414062
13, 0, 0, 1150.27490234375
14, 0, 0, 1154.908813476562
15, 0, 0, 1164.712524414062
16, 0, 0, 1167.317260742188
17, 0, 0, 1175.332275390625
18, 0, 0, 1181.318969726562
19, 0, 0, 1185.182861328125
20, 0, 0, 1190.944213867188
21, 0, 0, 1203.755126953125
22, 0, 0, 1201.092895507812
23, 0, 0, 1210.69189453125
24, 0, 0, 1221.848754882812
25, 0, 0, 1233.844970703125
26, 0, 0, 1237.79345703125
27, 0, 0, 1238.906372070312
28, 0, 0, 1258.341552734375
29, 0, 0, 1262.137084960938
30, 0, 0, 1266.234497070312
31, 0, 0, 1274.808715820312
32, 0, 0, 1277.889892578125
33, 0, 0, 1284.067749023438
34, 0, 0, 1298.067749023438
35, 0, 0, 1320.36767578125
36, 0, 0, 1320.94677734375
37, 0, 0, 1326.3701171875
38, 0, 0, 1333.68359375
39, 0, 0, 1350.589233398438
40, 0, 0, 1356.821411132812
41, 0, 0, 1363.8818359375
42, 0, 0, 1386.531494140625
43, 0, 0, 1393.018798828125
44, 0, 0, 1403.718627929688
45, 0, 0, 1411.695068359375
46, 0, 0, 1425.606567382812
47, 0, 0, 1444.588745117188
48, 0, 0, 1452.212524414062
49, 0, 0, 1474.264038085938
50, 0, 0, 1479.035766601562
51, 0, 0, 1495.522094726562
52, 0, 0, 1506.557006835938
53, 0, 0, 1529.228393554688
54, 0, 0, 1545.2470703125
55, 0, 0, 1558.52685546875
56, 0, 0, 1578.59326171875
57, 0, 0, 1602.838134765625
58, 0, 0, 1620.466796875
59, 0, 0, 1632.51220703125
60, 0, 0, 1659.3623046875
61, 0, 0, 1674.165283203125
62, 0, 0, 1704.788940429688
63, 0, 0, 1729.875366210938
64, 0, 0, 1749.046997070312
65, 0, 0, 1773.777709960938
66, 0, 0, 1807.440063476562
67, 0, 0, 1837.554565429688
68, 0, 0, 1866.21533203125
69, 0, 0, 1903.510864257812
70, 0, 0, 1937.55908203125
71, 0, 0, 1977.381225585938
72, 0, 0, 2010.983764648438
73, 0, 0, 2062.1328125
74, 0, 0, 2101.177734375
75, 0, 0, 2153.939697265625
76, 0, 0, 2211.11767578125
77, 0, 0, 2273.5546875
78, 0, 0, 2327.11669921875
79, 0, 0, 2404.163818359375
80, 0, 0, 2490.757568359375
81, 0, 0, 2583.022705078125
82, 0, 0, 2692.330810546875
83, 0, 0, 2803.96826171875
84, 0, 0, 2954.860107421875
85, 0, 0, 3127.392822265625
86, 0, 0, 3332.605224609375
87, 0, 0, 3615.199462890625
88, 0, 0, 3999.067626953125
89, 0, 0, 4579.45263671875
90, 0, 0, 5396.138671875
91, 0, 0, 6173.7685546875
92, 0, 0, 5957.95361328125
93, 0, 0, 4412.98291015625
94, 0, 0, 2257.072021484375
95, 0, 0, 740.5684814453125
96, 0, 0, 85.89479827880859
97, 0, 0, 0
98, 0, 0, 0.001606584875844419
99, 0, 0, 0
100, 0, 0, 0.006336923222988844
101, 0, 0, 0
102, 0, 0, 0.04683978483080864
103, 0, 0, 0.0009538366575725377
104, 0, 0, 0
105, 0, 0, 0
106, 0, 0, 0
107, 0, 0, 0
108, 0, 0, 0
109, 0, 0, 0
110, 0, 0, 0
111, 0, 0, 0
112, 0, 0, 0
113, 0, 0, 0
114, 0, 0, 0
115, 0, 0, 0
116, 0, 0, 0
117, 0, 0, 0
118, 0, 0, 0
119, 0, 0, 0
120, 0, 0, 0
121, 0, 0, 0
122, 0, 0, 0
123, 0, 0, 0
124, 0, 0, 0
125, 0, 0, 0
126, 0, 0, 0
127, 0, 0, 0
128, 0, 0, 0
129, 0, 0, 0
130, 0, 0, 0
131, 0, 0, 0
132, 0, 0, 0
133, 0, 0, 0
134, 0, 0, 0
135, 0, 0, 0
136, 0, 0, 0
137, 0, 0, 0
138, 0, 0, 0
139, 0, 0, 0
140, 0, 0, 0
141, 0, 0, 0
142, 0, 0, 0
143, 0, 0, 0
144, 0, 0, 0
145, 0, 0, 0
146, 0, 0, 0
147, 0, 0, 0
148, 0, 0, 0
149, 0, 0, 0
150, 0, 0, 0
151, 0, 0, 0
152, 0, 0, 0
153, 0, 0, 0
154, 0, 0, 0
155, 0, 0, 0
156, 0, 0, 0
157, 0, 0, 0
158, 0, 0, 0
159, 0, 0, 0
160, 0, 0, 0
161, 0, 0, 0
162, 0, 0, 0
163, 0, 0, 0
164, 0, 0, 0
165, 0, 0, 0
166, 0, 0, 0
167, 0, 0, 0
168, 0, 0, 0
169, 0, 0, 0
170, 0, 0, 0
171, 0, 0, 0
172, 0, 0, 0
173, 0, 0, 0
174, 0, 0, 0
175, 0, 0, 0
176, 0, 0, 0
177, 0, 0, 0
178, 0, 0, 0
179, 0, 0, 0
