# TOPAS Version: 3.3.p1
# Parameter File: Simple_Pattern.txt
# Results for scorer MLIC_Scorer
# Scored in component: MLIC
# X in 180 bins of 0.222222 cm
# Y in 1 bin  of 10 cm
# Z in 1 bin  of 10 cm
# EnergyDeposit ( MeV ) : Sum   
0, 0, 0, 45.34624481201172
1, 0, 0, 44.81618881225586
2, 0, 0, 45.01555252075195
3, 0, 0, 44.92658233642578
4, 0, 0, 45.48976516723633
5, 0, 0, 47.81502914428711
6, 0, 0, 47.51953506469727
7, 0, 0, 47.62454605102539
8, 0, 0, 44.76735687255859
9, 0, 0, 47.64221954345703
10, 0, 0, 47.8448600769043
11, 0, 0, 48.2441520690918
12, 0, 0, 48.04541778564453
13, 0, 0, 49.13200759887695
14, 0, 0, 48.01950836181641
15, 0, 0, 48.65392303466797
16, 0, 0, 49.82459259033203
17, 0, 0, 49.28076553344727
18, 0, 0, 50.94392013549805
19, 0, 0, 50.127685546875
20, 0, 0, 50.20064163208008
21, 0, 0, 50.28966903686523
22, 0, 0, 49.05512237548828
23, 0, 0, 49.8262939453125
24, 0, 0, 51.01410675048828
25, 0, 0, 52.87238311767578
26, 0, 0, 51.74953460693359
27, 0, 0, 51.94268417358398
28, 0, 0, 52.14263916015625
29, 0, 0, 53.81666946411133
30, 0, 0, 52.43871688842773
31, 0, 0, 54.40031051635742
32, 0, 0, 53.59698104858398
33, 0, 0, 53.70001220703125
34, 0, 0, 52.93187713623047
35, 0, 0, 54.36731338500977
36, 0, 0, 55.19254302978516
37, 0, 0, 55.21956253051758
38, 0, 0, 54.59907913208008
39, 0, 0, 55.89601898193359
40, 0, 0, 56.6747932434082
41, 0, 0, 58.07077026367188
42, 0, 0, 57.16400527954102
43, 0, 0, 57.71366119384766
44, 0, 0, 59.87215805053711
45, 0, 0, 59.45375442504883
46, 0, 0, 60.58823394775391
47, 0, 0, 59.84343338012695
48, 0, 0, 61.72168731689453
49, 0, 0, 61.79840469360352
50, 0, 0, 64.51959991455078
51, 0, 0, 63.57621765136719
52, 0, 0, 62.26113128662109
53, 0, 0, 62.88859176635742
54, 0, 0, 63.71262741088867
55, 0, 0, 65.37188720703125
56, 0, 0, 65.84727478027344
57, 0, 0, 66.65030670166016
58, 0, 0, 66.99777984619141
59, 0, 0, 67.25366973876953
60, 0, 0, 70.13109588623047
61, 0, 0, 71.91860198974609
62, 0, 0, 70.77706909179688
63, 0, 0, 72.53595733642578
64, 0, 0, 72.68973541259766
65, 0, 0, 75.1937255859375
66, 0, 0, 76.46307373046875
67, 0, 0, 75.9298095703125
68, 0, 0, 77.68941497802734
69, 0, 0, 78.93315887451172
70, 0, 0, 81.12778472900391
71, 0, 0, 83.77115631103516
72, 0, 0, 83.9617919921875
73, 0, 0, 86.08999633789062
74, 0, 0, 87.18643188476562
75, 0, 0, 90.01692199707031
76, 0, 0, 93.99676513671875
77, 0, 0, 93.98101806640625
78, 0, 0, 97.12276458740234
79, 0, 0, 100.3849945068359
80, 0, 0, 103.3195648193359
81, 0, 0, 106.3160781860352
82, 0, 0, 109.1377487182617
83, 0, 0, 113.8531646728516
84, 0, 0, 119.8687210083008
85, 0, 0, 125.7023239135742
86, 0, 0, 133.6296234130859
87, 0, 0, 144.8078918457031
88, 0, 0, 158.5213928222656
89, 0, 0, 179.5880279541016
90, 0, 0, 217.9450531005859
91, 0, 0, 248.4522857666016
92, 0, 0, 268.5083618164062
93, 0, 0, 200.3863983154297
94, 0, 0, 142.9394989013672
95, 0, 0, 32.5417594909668
96, 0, 0, 0
97, 0, 0, 0
98, 0, 0, 0
99, 0, 0, 0
100, 0, 0, 0
101, 0, 0, 0
102, 0, 0, 0
103, 0, 0, 0
104, 0, 0, 0
105, 0, 0, 0
106, 0, 0, 0
107, 0, 0, 0
108, 0, 0, 0
109, 0, 0, 0
110, 0, 0, 0
111, 0, 0, 0
112, 0, 0, 0
113, 0, 0, 0
114, 0, 0, 0
115, 0, 0, 0
116, 0, 0, 0
117, 0, 0, 0
118, 0, 0, 0
119, 0, 0, 0
120, 0, 0, 0
121, 0, 0, 0
122, 0, 0, 0
123, 0, 0, 0
124, 0, 0, 0
125, 0, 0, 0
126, 0, 0, 0
127, 0, 0, 0
128, 0, 0, 0
129, 0, 0, 0
130, 0, 0, 0
131, 0, 0, 0
132, 0, 0, 0
133, 0, 0, 0
134, 0, 0, 0
135, 0, 0, 0
136, 0, 0, 0
137, 0, 0, 0
138, 0, 0, 0
139, 0, 0, 0
140, 0, 0, 0
141, 0, 0, 0
142, 0, 0, 0
143, 0, 0, 0
144, 0, 0, 0
145, 0, 0, 0
146, 0, 0, 0
147, 0, 0, 0
148, 0, 0, 0
149, 0, 0, 0
150, 0, 0, 0
151, 0, 0, 0
152, 0, 0, 0
153, 0, 0, 0
154, 0, 0, 0
155, 0, 0, 0
156, 0, 0, 0
157, 0, 0, 0
158, 0, 0, 0
159, 0, 0, 0
160, 0, 0, 0
161, 0, 0, 0
162, 0, 0, 0
163, 0, 0, 0
164, 0, 0, 0
165, 0, 0, 0
166, 0, 0, 0
167, 0, 0, 0
168, 0, 0, 0
169, 0, 0, 0
170, 0, 0, 0
171, 0, 0, 0
172, 0, 0, 0
173, 0, 0, 0
174, 0, 0, 0
175, 0, 0, 0
176, 0, 0, 0
177, 0, 0, 0
178, 0, 0, 0
179, 0, 0, 0
