# TOPAS Version: 3.3.p1
# Parameter File: Simple_Pattern.txt
# Results for scorer MLIC_Scorer
# Scored in component: MLIC
# X in 180 bins of 0.222222 cm
# Y in 1 bin  of 10 cm
# Z in 1 bin  of 10 cm
# EnergyDeposit ( MeV ) : Sum   
0, 0, 0, 1083.129638671875
1, 0, 0, 1095.495727539062
2, 0, 0, 1094.709228515625
3, 0, 0, 1100.864624023438
4, 0, 0, 1101.625854492188
5, 0, 0, 1113.37158203125
6, 0, 0, 1105.610717773438
7, 0, 0, 1115.302001953125
8, 0, 0, 1134.077026367188
9, 0, 0, 1137.067138671875
10, 0, 0, 1132.014526367188
11, 0, 0, 1142.984497070312
12, 0, 0, 1152.540649414062
13, 0, 0, 1149.839477539062
14, 0, 0, 1162.078247070312
15, 0, 0, 1170.453979492188
16, 0, 0, 1170.65087890625
17, 0, 0, 1174.660522460938
18, 0, 0, 1185.3046875
19, 0, 0, 1190.415283203125
20, 0, 0, 1194.092895507812
21, 0, 0, 1195.837158203125
22, 0, 0, 1202.438842773438
23, 0, 0, 1211.31591796875
24, 0, 0, 1223.264770507812
25, 0, 0, 1225.17041015625
26, 0, 0, 1231.98046875
27, 0, 0, 1244.88134765625
28, 0, 0, 1255.23828125
29, 0, 0, 1259.982299804688
30, 0, 0, 1262.834716796875
31, 0, 0, 1274.239868164062
32, 0, 0, 1279.457153320312
33, 0, 0, 1290.618530273438
34, 0, 0, 1300.23095703125
35, 0, 0, 1302.64794921875
36, 0, 0, 1321.750122070312
37, 0, 0, 1334.31884765625
38, 0, 0, 1330.078735351562
39, 0, 0, 1347.402709960938
40, 0, 0, 1350.25
41, 0, 0, 1365.202026367188
42, 0, 0, 1374.29248046875
43, 0, 0, 1389.272338867188
44, 0, 0, 1409.2421875
45, 0, 0, 1417.19482421875
46, 0, 0, 1432.22216796875
47, 0, 0, 1443.480346679688
48, 0, 0, 1459.490112304688
49, 0, 0, 1472.602905273438
50, 0, 0, 1484.68701171875
51, 0, 0, 1498.291748046875
52, 0, 0, 1508.25244140625
53, 0, 0, 1524.78125
54, 0, 0, 1545.400390625
55, 0, 0, 1562.504028320312
56, 0, 0, 1578.999267578125
57, 0, 0, 1598.8544921875
58, 0, 0, 1626.25341796875
59, 0, 0, 1637.3818359375
60, 0, 0, 1661.000366210938
61, 0, 0, 1673.232543945312
62, 0, 0, 1708.298583984375
63, 0, 0, 1728.5390625
64, 0, 0, 1758.569702148438
65, 0, 0, 1782.400390625
66, 0, 0, 1817.568725585938
67, 0, 0, 1844.972534179688
68, 0, 0, 1880.724609375
69, 0, 0, 1902.468017578125
70, 0, 0, 1939.619506835938
71, 0, 0, 1977.024658203125
72, 0, 0, 2015.590698242188
73, 0, 0, 2072.489501953125
74, 0, 0, 2108.907470703125
75, 0, 0, 2163.07666015625
76, 0, 0, 2226.1044921875
77, 0, 0, 2282.097900390625
78, 0, 0, 2344.400146484375
79, 0, 0, 2429.271240234375
80, 0, 0, 2509.907958984375
81, 0, 0, 2602.171875
82, 0, 0, 2718.36376953125
83, 0, 0, 2831.676513671875
84, 0, 0, 2985.808349609375
85, 0, 0, 3161.596923828125
86, 0, 0, 3384.4033203125
87, 0, 0, 3667.02099609375
88, 0, 0, 4083.97900390625
89, 0, 0, 4681.197265625
90, 0, 0, 5535.7275390625
91, 0, 0, 6241.99951171875
92, 0, 0, 6086.974609375
93, 0, 0, 4425.70703125
94, 0, 0, 2226.055908203125
95, 0, 0, 631.1527099609375
96, 0, 0, 101.1667404174805
97, 0, 0, 9.408062934875488
98, 0, 0, 0
99, 0, 0, 0
100, 0, 0, 0
101, 0, 0, 0
102, 0, 0, 0
103, 0, 0, 0
104, 0, 0, 0
105, 0, 0, 0
106, 0, 0, 0
107, 0, 0, 0
108, 0, 0, 0
109, 0, 0, 0
110, 0, 0, 0
111, 0, 0, 0
112, 0, 0, 0
113, 0, 0, 0
114, 0, 0, 0
115, 0, 0, 0
116, 0, 0, 0
117, 0, 0, 0
118, 0, 0, 0
119, 0, 0, 0
120, 0, 0, 0
121, 0, 0, 0
122, 0, 0, 0
123, 0, 0, 0
124, 0, 0, 0
125, 0, 0, 0
126, 0, 0, 0
127, 0, 0, 0
128, 0, 0, 0
129, 0, 0, 0
130, 0, 0, 0
131, 0, 0, 0
132, 0, 0, 0
133, 0, 0, 0
134, 0, 0, 0
135, 0, 0, 0
136, 0, 0, 0
137, 0, 0, 0
138, 0, 0, 0
139, 0, 0, 0
140, 0, 0, 0
141, 0, 0, 0
142, 0, 0, 0
143, 0, 0, 0
144, 0, 0, 0
145, 0, 0, 0
146, 0, 0, 0
147, 0, 0, 0
148, 0, 0, 0
149, 0, 0, 0
150, 0, 0, 0
151, 0, 0, 0
152, 0, 0, 0
153, 0, 0, 0
154, 0, 0, 0
155, 0, 0, 0
156, 0, 0, 0
157, 0, 0, 0
158, 0, 0, 0
159, 0, 0, 0
160, 0, 0, 0
161, 0, 0, 0
162, 0, 0, 0
163, 0, 0, 0
164, 0, 0, 0
165, 0, 0, 0
166, 0, 0, 0
167, 0, 0, 0
168, 0, 0, 0
169, 0, 0, 0
170, 0, 0, 0
171, 0, 0, 0
172, 0, 0, 0
173, 0, 0, 0
174, 0, 0, 0
175, 0, 0, 0
176, 0, 0, 0
177, 0, 0, 0
178, 0, 0, 0
179, 0, 0, 0
