# TOPAS Version: 3.3.p1
# Parameter File: Simple_Pattern.txt
# Results for scorer MLIC_Scorer
# Scored in component: MLIC
# X in 165 bins of 0.2 cm
# Y in 1 bin  of 10 cm
# Z in 1 bin  of 10 cm
# EnergyDeposit ( MeV ) : Sum   
0, 0, 0, 943.9131469726562
1, 0, 0, 935.8052368164062
2, 0, 0, 944.5281982421875
3, 0, 0, 944.3756713867188
4, 0, 0, 957.4137573242188
5, 0, 0, 950.0304565429688
6, 0, 0, 957.5051879882812
7, 0, 0, 959.8002319335938
8, 0, 0, 965.0679321289062
9, 0, 0, 969.6002197265625
10, 0, 0, 971.94091796875
11, 0, 0, 978.4514770507812
12, 0, 0, 975.3165283203125
13, 0, 0, 971.8287963867188
14, 0, 0, 985.9702758789062
15, 0, 0, 1001.902282714844
16, 0, 0, 997.18408203125
17, 0, 0, 993.6426391601562
18, 0, 0, 1001.935668945312
19, 0, 0, 999.1378173828125
20, 0, 0, 1007.150329589844
21, 0, 0, 1012.431396484375
22, 0, 0, 1025.782836914062
23, 0, 0, 1017.268432617188
24, 0, 0, 1023.448059082031
25, 0, 0, 1029.187866210938
26, 0, 0, 1030.90380859375
27, 0, 0, 1037.094360351562
28, 0, 0, 1050.07861328125
29, 0, 0, 1043.524291992188
30, 0, 0, 1056.958374023438
31, 0, 0, 1065.12158203125
32, 0, 0, 1063.339599609375
33, 0, 0, 1064.735229492188
34, 0, 0, 1077.326293945312
35, 0, 0, 1074.5849609375
36, 0, 0, 1091.361450195312
37, 0, 0, 1093.486450195312
38, 0, 0, 1099.595336914062
39, 0, 0, 1108.76611328125
40, 0, 0, 1110.905151367188
41, 0, 0, 1117.358032226562
42, 0, 0, 1117.393310546875
43, 0, 0, 1135.990112304688
44, 0, 0, 1130.539916992188
45, 0, 0, 1138.977905273438
46, 0, 0, 1139.474609375
47, 0, 0, 1148.090454101562
48, 0, 0, 1164.262329101562
49, 0, 0, 1160.677612304688
50, 0, 0, 1171.782348632812
51, 0, 0, 1183.921142578125
52, 0, 0, 1188.480712890625
53, 0, 0, 1196.666381835938
54, 0, 0, 1201.836547851562
55, 0, 0, 1210.76953125
56, 0, 0, 1215.382568359375
57, 0, 0, 1229.863159179688
58, 0, 0, 1231.621948242188
59, 0, 0, 1246.462158203125
60, 0, 0, 1253.301513671875
61, 0, 0, 1262.659912109375
62, 0, 0, 1276.791137695312
63, 0, 0, 1288.557495117188
64, 0, 0, 1291.439208984375
65, 0, 0, 1306.069091796875
66, 0, 0, 1310.045043945312
67, 0, 0, 1330.007690429688
68, 0, 0, 1336.796508789062
69, 0, 0, 1339.953735351562
70, 0, 0, 1367.860961914062
71, 0, 0, 1371.527954101562
72, 0, 0, 1390.5546875
73, 0, 0, 1399.093627929688
74, 0, 0, 1411.162963867188
75, 0, 0, 1433.025390625
76, 0, 0, 1445.799072265625
77, 0, 0, 1467.272094726562
78, 0, 0, 1479.679321289062
79, 0, 0, 1487.702514648438
80, 0, 0, 1522.78369140625
81, 0, 0, 1534.097778320312
82, 0, 0, 1552.809814453125
83, 0, 0, 1571.581420898438
84, 0, 0, 1594.732055664062
85, 0, 0, 1617.201293945312
86, 0, 0, 1638.92919921875
87, 0, 0, 1655.632080078125
88, 0, 0, 1692.0087890625
89, 0, 0, 1720.438598632812
90, 0, 0, 1747.961181640625
91, 0, 0, 1775.279663085938
92, 0, 0, 1813.635986328125
93, 0, 0, 1841.3076171875
94, 0, 0, 1881.527954101562
95, 0, 0, 1928.065795898438
96, 0, 0, 1973.03271484375
97, 0, 0, 2015.709594726562
98, 0, 0, 2068.142822265625
99, 0, 0, 2131.156494140625
100, 0, 0, 2187.7763671875
101, 0, 0, 2252.3310546875
102, 0, 0, 2330.352294921875
103, 0, 0, 2420.97802734375
104, 0, 0, 2519.125244140625
105, 0, 0, 2630.4990234375
106, 0, 0, 2761.280517578125
107, 0, 0, 2931.913330078125
108, 0, 0, 3124.822998046875
109, 0, 0, 3381.597900390625
110, 0, 0, 3765.512939453125
111, 0, 0, 4321.25390625
112, 0, 0, 4941.10546875
113, 0, 0, 5329.4775390625
114, 0, 0, 5178.76416015625
115, 0, 0, 4189.5791015625
116, 0, 0, 3022.57568359375
117, 0, 0, 1270.97509765625
118, 0, 0, 592.0159301757812
119, 0, 0, 178.3011627197266
120, 0, 0, 14.49528121948242
121, 0, 0, 0
122, 0, 0, 0
123, 0, 0, 0
124, 0, 0, 0
125, 0, 0, 0
126, 0, 0, 0.04214641079306602
127, 0, 0, 0
128, 0, 0, 0
129, 0, 0, 0
130, 0, 0, 0
131, 0, 0, 0
132, 0, 0, 0
133, 0, 0, 0
134, 0, 0, 0.0008836113847792149
135, 0, 0, 0
136, 0, 0, 0
137, 0, 0, 0
138, 0, 0, 0
139, 0, 0, 0
140, 0, 0, 0
141, 0, 0, 0
142, 0, 0, 0
143, 0, 0, 0
144, 0, 0, 0
145, 0, 0, 0
146, 0, 0, 0
147, 0, 0, 0
148, 0, 0, 0
149, 0, 0, 0
150, 0, 0, 0
151, 0, 0, 0
152, 0, 0, 0
153, 0, 0, 0
154, 0, 0, 0
155, 0, 0, 0
156, 0, 0, 0
157, 0, 0, 0
158, 0, 0, 0
159, 0, 0, 0
160, 0, 0, 0
161, 0, 0, 0
162, 0, 0, 0
163, 0, 0, 0
164, 0, 0, 0
