# TOPAS Version: 3.3.p1
# Parameter File: Simple_Pattern.txt
# Results for scorer MLIC_Scorer
# Scored in component: MLIC
# X in 165 bins of 0.2 cm
# Y in 1 bin  of 10 cm
# Z in 1 bin  of 10 cm
# EnergyDeposit ( MeV ) : Sum   
0, 0, 0, 0
1, 0, 0, 0
2, 0, 0, 0
3, 0, 0, 0
4, 0, 0, 0
5, 0, 0, 0
6, 0, 0, 0
7, 0, 0, 0
8, 0, 0, 0
9, 0, 0, 0
10, 0, 0, 0
11, 0, 0, 0
12, 0, 0, 0
13, 0, 0, 0
14, 0, 0, 0
15, 0, 0, 0
16, 0, 0, 0
17, 0, 0, 0
18, 0, 0, 0
19, 0, 0, 0
20, 0, 0, 0
21, 0, 0, 0
22, 0, 0, 0
23, 0, 0, 0
24, 0, 0, 0
25, 0, 0, 0
26, 0, 0, 0
27, 0, 0, 0
28, 0, 0, 0
29, 0, 0, 0
30, 0, 0, 0
31, 0, 0, 0
32, 0, 0, 0
33, 0, 0, 0
34, 0, 0, 0
35, 0, 0, 0
36, 0, 0, 0
37, 0, 0, 0
38, 0, 0, 0
39, 0, 0, 0
40, 0, 0, 0
41, 0, 0, 0
42, 0, 0, 0
43, 0, 0, 0
44, 0, 0, 0
45, 0, 0, 0
46, 0, 0, 0
47, 0, 0, 0
48, 0, 0, 0
49, 0, 0, 0
50, 0, 0, 0
51, 0, 0, 0
52, 0, 0, 0
53, 0, 0, 0
54, 0, 0, 0
55, 0, 0, 0
56, 0, 0, 0
57, 0, 0, 0
58, 0, 0, 11.33365440368652
59, 0, 0, 115.0543899536133
60, 0, 0, 306.6489562988281
61, 0, 0, 993.62451171875
62, 0, 0, 2295.44677734375
63, 0, 0, 4042.89697265625
64, 0, 0, 5095.2080078125
65, 0, 0, 5402.56396484375
66, 0, 0, 5051.35009765625
67, 0, 0, 4536.46533203125
68, 0, 0, 3959.991943359375
69, 0, 0, 3550.84716796875
70, 0, 0, 3228.351318359375
71, 0, 0, 3013.330322265625
72, 0, 0, 2831.328125
73, 0, 0, 2684.90478515625
74, 0, 0, 2566.538818359375
75, 0, 0, 2462.255126953125
76, 0, 0, 2363.078857421875
77, 0, 0, 2289.614013671875
78, 0, 0, 2217.858642578125
79, 0, 0, 2150.88232421875
80, 0, 0, 2098.665771484375
81, 0, 0, 2043.91943359375
82, 0, 0, 1988.638305664062
83, 0, 0, 1943.471435546875
84, 0, 0, 1900.027709960938
85, 0, 0, 1874.144287109375
86, 0, 0, 1832.634887695312
87, 0, 0, 1801.30810546875
88, 0, 0, 1769.9736328125
89, 0, 0, 1735.896484375
90, 0, 0, 1707.229736328125
91, 0, 0, 1677.208984375
92, 0, 0, 1649.571533203125
93, 0, 0, 1631.088134765625
94, 0, 0, 1606.50048828125
95, 0, 0, 1578.339477539062
96, 0, 0, 1564.175537109375
97, 0, 0, 1540.419799804688
98, 0, 0, 1524.817993164062
99, 0, 0, 1506.379028320312
100, 0, 0, 1483.055053710938
101, 0, 0, 1473.544311523438
102, 0, 0, 1452.946044921875
103, 0, 0, 1443.578491210938
104, 0, 0, 1433.654174804688
105, 0, 0, 1397.746704101562
106, 0, 0, 1396.781860351562
107, 0, 0, 1376.197631835938
108, 0, 0, 1368.467407226562
109, 0, 0, 1353.66748046875
110, 0, 0, 1342.187377929688
111, 0, 0, 1326.985229492188
112, 0, 0, 1318.91064453125
113, 0, 0, 1308.840942382812
114, 0, 0, 1296.99609375
115, 0, 0, 1288.159301757812
116, 0, 0, 1278.665405273438
117, 0, 0, 1261.437377929688
118, 0, 0, 1256.724365234375
119, 0, 0, 1251.427612304688
120, 0, 0, 1231.875854492188
121, 0, 0, 1228.894165039062
122, 0, 0, 1216.750610351562
123, 0, 0, 1216.478393554688
124, 0, 0, 1209.2822265625
125, 0, 0, 1191.857421875
126, 0, 0, 1191.963989257812
127, 0, 0, 1194.85107421875
128, 0, 0, 1181.655029296875
129, 0, 0, 1170.166259765625
130, 0, 0, 1158.845581054688
131, 0, 0, 1150.380126953125
132, 0, 0, 1151.14599609375
133, 0, 0, 1146.267456054688
134, 0, 0, 1129.530639648438
135, 0, 0, 1124.743041992188
136, 0, 0, 1118.386352539062
137, 0, 0, 1108.372192382812
138, 0, 0, 1109.24853515625
139, 0, 0, 1108.365600585938
140, 0, 0, 1101.3427734375
141, 0, 0, 1099.60205078125
142, 0, 0, 1086.413818359375
143, 0, 0, 1071.650024414062
144, 0, 0, 1077.784057617188
145, 0, 0, 1060.30078125
146, 0, 0, 1068.43017578125
147, 0, 0, 1074.377563476562
148, 0, 0, 1056.489990234375
149, 0, 0, 1053.379638671875
150, 0, 0, 1048.36767578125
151, 0, 0, 1039.453369140625
152, 0, 0, 1030.132568359375
153, 0, 0, 1037.618530273438
154, 0, 0, 1024.733642578125
155, 0, 0, 1025.126098632812
156, 0, 0, 1023.280151367188
157, 0, 0, 1016.491333007812
158, 0, 0, 1017.844848632812
159, 0, 0, 1007.908142089844
160, 0, 0, 1004.843139648438
161, 0, 0, 1001.038391113281
162, 0, 0, 996.1281127929688
163, 0, 0, 988.0266723632812
164, 0, 0, 986.6171264648438
