# TOPAS Version: 3.3.p1
# Parameter File: Simple_Pattern.txt
# Results for scorer MLIC_Scorer
# Scored in component: MLIC
# X in 180 bins of 0.222222 cm
# Y in 1 bin  of 10 cm
# Z in 1 bin  of 10 cm
# EnergyDeposit ( MeV ) : Sum   
0, 0, 0, 1090.494873046875
1, 0, 0, 1091.518310546875
2, 0, 0, 1104.087524414062
3, 0, 0, 1101.79833984375
4, 0, 0, 1099.2734375
5, 0, 0, 1105.34716796875
6, 0, 0, 1114.324829101562
7, 0, 0, 1118.605712890625
8, 0, 0, 1124.64111328125
9, 0, 0, 1133.187866210938
10, 0, 0, 1137.670043945312
11, 0, 0, 1134.57666015625
12, 0, 0, 1146.616943359375
13, 0, 0, 1150.680541992188
14, 0, 0, 1156.112060546875
15, 0, 0, 1168.51513671875
16, 0, 0, 1167.608764648438
17, 0, 0, 1178.979125976562
18, 0, 0, 1184.544799804688
19, 0, 0, 1182.624877929688
20, 0, 0, 1187.2119140625
21, 0, 0, 1199.957641601562
22, 0, 0, 1202.974975585938
23, 0, 0, 1211.844604492188
24, 0, 0, 1215.150634765625
25, 0, 0, 1229.453369140625
26, 0, 0, 1231.218383789062
27, 0, 0, 1230.7265625
28, 0, 0, 1252.47509765625
29, 0, 0, 1257.720458984375
30, 0, 0, 1266.148315429688
31, 0, 0, 1274.84033203125
32, 0, 0, 1290.588989257812
33, 0, 0, 1289.952392578125
34, 0, 0, 1300.046997070312
35, 0, 0, 1309.135498046875
36, 0, 0, 1321.988647460938
37, 0, 0, 1339.955444335938
38, 0, 0, 1342.873779296875
39, 0, 0, 1347.377685546875
40, 0, 0, 1360.1005859375
41, 0, 0, 1374.647583007812
42, 0, 0, 1371.3798828125
43, 0, 0, 1387.13623046875
44, 0, 0, 1408.328491210938
45, 0, 0, 1420.501586914062
46, 0, 0, 1433.223999023438
47, 0, 0, 1447.550170898438
48, 0, 0, 1453.2734375
49, 0, 0, 1460.832641601562
50, 0, 0, 1479.696044921875
51, 0, 0, 1493.1943359375
52, 0, 0, 1509.54296875
53, 0, 0, 1526.690795898438
54, 0, 0, 1541.6669921875
55, 0, 0, 1552.405395507812
56, 0, 0, 1583.808349609375
57, 0, 0, 1599.329467773438
58, 0, 0, 1611.643432617188
59, 0, 0, 1633.884887695312
60, 0, 0, 1648.77294921875
61, 0, 0, 1678.81640625
62, 0, 0, 1699.229370117188
63, 0, 0, 1723.371704101562
64, 0, 0, 1733.34814453125
65, 0, 0, 1771.9375
66, 0, 0, 1788.624633789062
67, 0, 0, 1830.056884765625
68, 0, 0, 1857.57861328125
69, 0, 0, 1894.647338867188
70, 0, 0, 1919.575927734375
71, 0, 0, 1960.234741210938
72, 0, 0, 2007.423583984375
73, 0, 0, 2040.77099609375
74, 0, 0, 2100.086181640625
75, 0, 0, 2139.111328125
76, 0, 0, 2196.12744140625
77, 0, 0, 2258.11767578125
78, 0, 0, 2322.982421875
79, 0, 0, 2402.84765625
80, 0, 0, 2477.653076171875
81, 0, 0, 2574.355712890625
82, 0, 0, 2675.01806640625
83, 0, 0, 2794.71337890625
84, 0, 0, 2939.75830078125
85, 0, 0, 3108.560546875
86, 0, 0, 3319.510986328125
87, 0, 0, 3607.1328125
88, 0, 0, 3999.68994140625
89, 0, 0, 4562.98046875
90, 0, 0, 5411.3388671875
91, 0, 0, 6047.751953125
92, 0, 0, 5981.3779296875
93, 0, 0, 4428.00927734375
94, 0, 0, 2084.88720703125
95, 0, 0, 825.9351806640625
96, 0, 0, 175.5207061767578
97, 0, 0, 11.69499683380127
98, 0, 0, 0
99, 0, 0, 0
100, 0, 0, 0
101, 0, 0, 0
102, 0, 0, 0
103, 0, 0, 0
104, 0, 0, 0
105, 0, 0, 0
106, 0, 0, 0
107, 0, 0, 0
108, 0, 0, 0
109, 0, 0, 0
110, 0, 0, 0
111, 0, 0, 0
112, 0, 0, 0
113, 0, 0, 0
114, 0, 0, 0
115, 0, 0, 0
116, 0, 0, 0
117, 0, 0, 0
118, 0, 0, 0
119, 0, 0, 0
120, 0, 0, 0
121, 0, 0, 0
122, 0, 0, 0
123, 0, 0, 0
124, 0, 0, 0
125, 0, 0, 0
126, 0, 0, 0
127, 0, 0, 0
128, 0, 0, 0
129, 0, 0, 0
130, 0, 0, 0
131, 0, 0, 0
132, 0, 0, 0
133, 0, 0, 0
134, 0, 0, 0
135, 0, 0, 0
136, 0, 0, 0
137, 0, 0, 0
138, 0, 0, 0
139, 0, 0, 0
140, 0, 0, 0
141, 0, 0, 0
142, 0, 0, 0
143, 0, 0, 0
144, 0, 0, 0
145, 0, 0, 0
146, 0, 0, 0
147, 0, 0, 0
148, 0, 0, 0
149, 0, 0, 0
150, 0, 0, 0
151, 0, 0, 0
152, 0, 0, 0
153, 0, 0, 0
154, 0, 0, 0
155, 0, 0, 0
156, 0, 0, 0
157, 0, 0, 0
158, 0, 0, 0
159, 0, 0, 0
160, 0, 0, 0
161, 0, 0, 0
162, 0, 0, 0
163, 0, 0, 0
164, 0, 0, 0
165, 0, 0, 0
166, 0, 0, 0
167, 0, 0, 0
168, 0, 0, 0
169, 0, 0, 0
170, 0, 0, 0
171, 0, 0, 0
172, 0, 0, 0
173, 0, 0, 0
174, 0, 0, 0
175, 0, 0, 0
176, 0, 0, 0
177, 0, 0, 0
178, 0, 0, 0
179, 0, 0, 0
