# TOPAS Version: 3.3.p1
# Parameter File: Simple_Pattern.txt
# Results for scorer MLIC_Scorer
# Scored in component: MLIC
# X in 180 bins of 0.222222 cm
# Y in 1 bin  of 10 cm
# Z in 1 bin  of 10 cm
# EnergyDeposit ( MeV ) : Sum   
0, 0, 0, 1087.032958984375
1, 0, 0, 1090.173583984375
2, 0, 0, 1101.369018554688
3, 0, 0, 1110.96240234375
4, 0, 0, 1114.488403320312
5, 0, 0, 1116.2041015625
6, 0, 0, 1109.764038085938
7, 0, 0, 1121.8720703125
8, 0, 0, 1130.086547851562
9, 0, 0, 1123.362060546875
10, 0, 0, 1130.338623046875
11, 0, 0, 1151.263549804688
12, 0, 0, 1148.146362304688
13, 0, 0, 1150.859252929688
14, 0, 0, 1165.887817382812
15, 0, 0, 1158.809204101562
16, 0, 0, 1166.286743164062
17, 0, 0, 1183.966064453125
18, 0, 0, 1187.342041015625
19, 0, 0, 1183.315185546875
20, 0, 0, 1192.11181640625
21, 0, 0, 1197.531005859375
22, 0, 0, 1210.4423828125
23, 0, 0, 1214.12890625
24, 0, 0, 1228.001220703125
25, 0, 0, 1235.343994140625
26, 0, 0, 1248.585327148438
27, 0, 0, 1237.63037109375
28, 0, 0, 1247.412841796875
29, 0, 0, 1258.92431640625
30, 0, 0, 1267.2001953125
31, 0, 0, 1269.607543945312
32, 0, 0, 1286.792114257812
33, 0, 0, 1287.2431640625
34, 0, 0, 1303.873291015625
35, 0, 0, 1316.463134765625
36, 0, 0, 1320.895629882812
37, 0, 0, 1327.518188476562
38, 0, 0, 1333.72265625
39, 0, 0, 1341.421020507812
40, 0, 0, 1357.694580078125
41, 0, 0, 1367.446899414062
42, 0, 0, 1375.958374023438
43, 0, 0, 1388.355834960938
44, 0, 0, 1408.0703125
45, 0, 0, 1414.08154296875
46, 0, 0, 1432.311645507812
47, 0, 0, 1439.943603515625
48, 0, 0, 1452.643310546875
49, 0, 0, 1475.195068359375
50, 0, 0, 1484.407348632812
51, 0, 0, 1496.900390625
52, 0, 0, 1509.180297851562
53, 0, 0, 1529.433227539062
54, 0, 0, 1542.173950195312
55, 0, 0, 1560.565673828125
56, 0, 0, 1575.51123046875
57, 0, 0, 1604.051391601562
58, 0, 0, 1625.987670898438
59, 0, 0, 1638.838623046875
60, 0, 0, 1657.651611328125
61, 0, 0, 1675.950439453125
62, 0, 0, 1712.884155273438
63, 0, 0, 1721.976318359375
64, 0, 0, 1759.162719726562
65, 0, 0, 1793.852416992188
66, 0, 0, 1813.37646484375
67, 0, 0, 1835.934814453125
68, 0, 0, 1877.181518554688
69, 0, 0, 1911.757446289062
70, 0, 0, 1936.711669921875
71, 0, 0, 1985.78173828125
72, 0, 0, 2022.03857421875
73, 0, 0, 2064.20849609375
74, 0, 0, 2107.680419921875
75, 0, 0, 2169.3623046875
76, 0, 0, 2213.92236328125
77, 0, 0, 2282.364013671875
78, 0, 0, 2353.10009765625
79, 0, 0, 2433.39013671875
80, 0, 0, 2517.480712890625
81, 0, 0, 2616.756591796875
82, 0, 0, 2723.284423828125
83, 0, 0, 2842.256591796875
84, 0, 0, 3004.093505859375
85, 0, 0, 3177.275390625
86, 0, 0, 3395.681396484375
87, 0, 0, 3696.44677734375
88, 0, 0, 4128.541015625
89, 0, 0, 4763.40234375
90, 0, 0, 5546.6513671875
91, 0, 0, 6188.27783203125
92, 0, 0, 5862.8515625
93, 0, 0, 4308.90087890625
94, 0, 0, 2185.57275390625
95, 0, 0, 643.7941284179688
96, 0, 0, 145.0121154785156
97, 0, 0, 6.138681888580322
98, 0, 0, 0.002297354396432638
99, 0, 0, 0.0360754057765007
100, 0, 0, 0
101, 0, 0, 0.02033576369285583
102, 0, 0, 0.001423985464498401
103, 0, 0, 0
104, 0, 0, 0
105, 0, 0, 0
106, 0, 0, 0
107, 0, 0, 0
108, 0, 0, 0.0007009168621152639
109, 0, 0, 0
110, 0, 0, 0.03972924128174782
111, 0, 0, 0
112, 0, 0, 0
113, 0, 0, 0
114, 0, 0, 0
115, 0, 0, 0
116, 0, 0, 0
117, 0, 0, 0
118, 0, 0, 0
119, 0, 0, 0
120, 0, 0, 0
121, 0, 0, 0
122, 0, 0, 0
123, 0, 0, 0
124, 0, 0, 0
125, 0, 0, 0.03049252554774284
126, 0, 0, 0
127, 0, 0, 0
128, 0, 0, 0
129, 0, 0, 0
130, 0, 0, 0
131, 0, 0, 0
132, 0, 0, 0
133, 0, 0, 0
134, 0, 0, 0
135, 0, 0, 0
136, 0, 0, 0
137, 0, 0, 0
138, 0, 0, 0
139, 0, 0, 0
140, 0, 0, 0
141, 0, 0, 0
142, 0, 0, 0
143, 0, 0, 0
144, 0, 0, 0
145, 0, 0, 0
146, 0, 0, 0
147, 0, 0, 0
148, 0, 0, 0
149, 0, 0, 0
150, 0, 0, 0
151, 0, 0, 0
152, 0, 0, 0
153, 0, 0, 0
154, 0, 0, 0
155, 0, 0, 0
156, 0, 0, 0
157, 0, 0, 0
158, 0, 0, 0
159, 0, 0, 0
160, 0, 0, 0
161, 0, 0, 0
162, 0, 0, 0
163, 0, 0, 0
164, 0, 0, 0
165, 0, 0, 0
166, 0, 0, 0
167, 0, 0, 0
168, 0, 0, 0
169, 0, 0, 0
170, 0, 0, 0
171, 0, 0, 0
172, 0, 0, 0
173, 0, 0, 0
174, 0, 0, 0
175, 0, 0, 0
176, 0, 0, 0
177, 0, 0, 0
178, 0, 0, 0
179, 0, 0, 0
