# TOPAS Version: 3.3.p1
# Parameter File: Simple_Pattern.txt
# Results for scorer MLIC_Scorer
# Scored in component: MLIC
# X in 180 bins of 0.222222 cm
# Y in 1 bin  of 10 cm
# Z in 1 bin  of 10 cm
# EnergyDeposit ( MeV ) : Sum   
0, 0, 0, 53.37410736083984
1, 0, 0, 54.1419792175293
2, 0, 0, 52.76354598999023
3, 0, 0, 54.1485481262207
4, 0, 0, 53.24557876586914
5, 0, 0, 55.31656265258789
6, 0, 0, 53.81223297119141
7, 0, 0, 55.24038696289062
8, 0, 0, 56.18572616577148
9, 0, 0, 55.99394607543945
10, 0, 0, 55.47737884521484
11, 0, 0, 54.20781326293945
12, 0, 0, 57.08351898193359
13, 0, 0, 57.1262092590332
14, 0, 0, 55.81217956542969
15, 0, 0, 56.79680633544922
16, 0, 0, 57.75429534912109
17, 0, 0, 58.55038070678711
18, 0, 0, 57.56902694702148
19, 0, 0, 59.72319030761719
20, 0, 0, 58.83153533935547
21, 0, 0, 60.35789489746094
22, 0, 0, 59.99009323120117
23, 0, 0, 60.45713424682617
24, 0, 0, 60.90707015991211
25, 0, 0, 60.54310989379883
26, 0, 0, 62.00638961791992
27, 0, 0, 63.00175476074219
28, 0, 0, 63.06071472167969
29, 0, 0, 64.0789794921875
30, 0, 0, 63.09807205200195
31, 0, 0, 64.79226684570312
32, 0, 0, 64.40563201904297
33, 0, 0, 64.96417236328125
34, 0, 0, 65.46337127685547
35, 0, 0, 67.68466186523438
36, 0, 0, 67.70823669433594
37, 0, 0, 67.74883270263672
38, 0, 0, 68.48983001708984
39, 0, 0, 68.37758636474609
40, 0, 0, 70.41199493408203
41, 0, 0, 71.35233306884766
42, 0, 0, 72.04803466796875
43, 0, 0, 73.06858062744141
44, 0, 0, 74.83028411865234
45, 0, 0, 75.08560180664062
46, 0, 0, 73.99411773681641
47, 0, 0, 76.43943786621094
48, 0, 0, 77.25386810302734
49, 0, 0, 78.78247833251953
50, 0, 0, 78.75360107421875
51, 0, 0, 79.89402770996094
52, 0, 0, 81.02907562255859
53, 0, 0, 84.17957305908203
54, 0, 0, 84.80161285400391
55, 0, 0, 84.93800354003906
56, 0, 0, 85.52604675292969
57, 0, 0, 88.55087280273438
58, 0, 0, 91.83795166015625
59, 0, 0, 91.47772979736328
60, 0, 0, 93.96257019042969
61, 0, 0, 97.67977142333984
62, 0, 0, 99.16529846191406
63, 0, 0, 101.7999954223633
64, 0, 0, 104.400505065918
65, 0, 0, 108.3934326171875
66, 0, 0, 109.8682022094727
67, 0, 0, 113.8352127075195
68, 0, 0, 117.4190826416016
69, 0, 0, 123.9438629150391
70, 0, 0, 130.8133392333984
71, 0, 0, 136.8752593994141
72, 0, 0, 142.9998779296875
73, 0, 0, 152.9491729736328
74, 0, 0, 163.9863433837891
75, 0, 0, 181.2008666992188
76, 0, 0, 206.2264709472656
77, 0, 0, 241.2863311767578
78, 0, 0, 300.6230163574219
79, 0, 0, 281.06005859375
80, 0, 0, 189.9056701660156
81, 0, 0, 143.6153259277344
82, 0, 0, 61.13874435424805
83, 0, 0, 4.065252304077148
84, 0, 0, 0
85, 0, 0, 0
86, 0, 0, 0
87, 0, 0, 0
88, 0, 0, 0
89, 0, 0, 0
90, 0, 0, 0
91, 0, 0, 0
92, 0, 0, 0
93, 0, 0, 0
94, 0, 0, 0
95, 0, 0, 0
96, 0, 0, 0
97, 0, 0, 0
98, 0, 0, 0
99, 0, 0, 0
100, 0, 0, 0
101, 0, 0, 0
102, 0, 0, 0
103, 0, 0, 0
104, 0, 0, 0
105, 0, 0, 0
106, 0, 0, 0
107, 0, 0, 0
108, 0, 0, 0
109, 0, 0, 0
110, 0, 0, 0
111, 0, 0, 0
112, 0, 0, 0
113, 0, 0, 0
114, 0, 0, 0
115, 0, 0, 0
116, 0, 0, 0
117, 0, 0, 0
118, 0, 0, 0
119, 0, 0, 0
120, 0, 0, 0
121, 0, 0, 0
122, 0, 0, 0
123, 0, 0, 0
124, 0, 0, 0
125, 0, 0, 0
126, 0, 0, 0
127, 0, 0, 0
128, 0, 0, 0
129, 0, 0, 0
130, 0, 0, 0
131, 0, 0, 0
132, 0, 0, 0
133, 0, 0, 0
134, 0, 0, 0
135, 0, 0, 0
136, 0, 0, 0
137, 0, 0, 0
138, 0, 0, 0
139, 0, 0, 0
140, 0, 0, 0
141, 0, 0, 0
142, 0, 0, 0
143, 0, 0, 0
144, 0, 0, 0
145, 0, 0, 0
146, 0, 0, 0
147, 0, 0, 0
148, 0, 0, 0
149, 0, 0, 0
150, 0, 0, 0
151, 0, 0, 0
152, 0, 0, 0
153, 0, 0, 0
154, 0, 0, 0
155, 0, 0, 0
156, 0, 0, 0
157, 0, 0, 0
158, 0, 0, 0
159, 0, 0, 0
160, 0, 0, 0
161, 0, 0, 0
162, 0, 0, 0
163, 0, 0, 0
164, 0, 0, 0
165, 0, 0, 0
166, 0, 0, 0
167, 0, 0, 0
168, 0, 0, 0
169, 0, 0, 0
170, 0, 0, 0
171, 0, 0, 0
172, 0, 0, 0
173, 0, 0, 0
174, 0, 0, 0
175, 0, 0, 0
176, 0, 0, 0
177, 0, 0, 0
178, 0, 0, 0
179, 0, 0, 0
