# TOPAS Version: 3.3.p1
# Parameter File: Simple_Pattern.txt
# Results for scorer MLIC_Scorer
# Scored in component: MLIC
# X in 165 bins of 0.2 cm
# Y in 1 bin  of 10 cm
# Z in 1 bin  of 10 cm
# EnergyDeposit ( MeV ) : Sum   
0, 0, 0, 933.8543701171875
1, 0, 0, 932.9793090820312
2, 0, 0, 943.8859252929688
3, 0, 0, 938.61572265625
4, 0, 0, 951.7053833007812
5, 0, 0, 952.5674438476562
6, 0, 0, 955.2598266601562
7, 0, 0, 957.5745239257812
8, 0, 0, 965.3206787109375
9, 0, 0, 956.1476440429688
10, 0, 0, 965.181884765625
11, 0, 0, 975.148681640625
12, 0, 0, 966.6209716796875
13, 0, 0, 968.6295776367188
14, 0, 0, 975.0946044921875
15, 0, 0, 980.255126953125
16, 0, 0, 991.2777709960938
17, 0, 0, 986.2015380859375
18, 0, 0, 985.6142578125
19, 0, 0, 992.71435546875
20, 0, 0, 990.84716796875
21, 0, 0, 991.1795654296875
22, 0, 0, 995.1578979492188
23, 0, 0, 1002.35107421875
24, 0, 0, 1005.535766601562
25, 0, 0, 1002.2783203125
26, 0, 0, 1009.658325195312
27, 0, 0, 1010.866088867188
28, 0, 0, 1012.793640136719
29, 0, 0, 1016.727905273438
30, 0, 0, 1015.762634277344
31, 0, 0, 1020.215698242188
32, 0, 0, 1022.47265625
33, 0, 0, 1023.800415039062
34, 0, 0, 1030.0654296875
35, 0, 0, 1037.651733398438
36, 0, 0, 1038.739379882812
37, 0, 0, 1044.023803710938
38, 0, 0, 1050.018310546875
39, 0, 0, 1042.012451171875
40, 0, 0, 1055.21630859375
41, 0, 0, 1056.828979492188
42, 0, 0, 1059.272705078125
43, 0, 0, 1061.49951171875
44, 0, 0, 1060.686645507812
45, 0, 0, 1066.9130859375
46, 0, 0, 1075.678955078125
47, 0, 0, 1072.757690429688
48, 0, 0, 1071.631225585938
49, 0, 0, 1080.367309570312
50, 0, 0, 1091.239624023438
51, 0, 0, 1090.729370117188
52, 0, 0, 1088.906372070312
53, 0, 0, 1099.814819335938
54, 0, 0, 1102.93896484375
55, 0, 0, 1111.176025390625
56, 0, 0, 1110.231323242188
57, 0, 0, 1108.576782226562
58, 0, 0, 1112.453735351562
59, 0, 0, 1123.56103515625
60, 0, 0, 1130.524047851562
61, 0, 0, 1138.938842773438
62, 0, 0, 1141.005249023438
63, 0, 0, 1151.139282226562
64, 0, 0, 1163.312622070312
65, 0, 0, 1159.402221679688
66, 0, 0, 1170.186279296875
67, 0, 0, 1176.87890625
68, 0, 0, 1188.430419921875
69, 0, 0, 1185.244873046875
70, 0, 0, 1184.041381835938
71, 0, 0, 1188.506225585938
72, 0, 0, 1199.014404296875
73, 0, 0, 1206.951782226562
74, 0, 0, 1215.517333984375
75, 0, 0, 1222.78955078125
76, 0, 0, 1233.620361328125
77, 0, 0, 1239.52392578125
78, 0, 0, 1262.049072265625
79, 0, 0, 1271.576904296875
80, 0, 0, 1279.689697265625
81, 0, 0, 1298.052368164062
82, 0, 0, 1306.465209960938
83, 0, 0, 1323.750366210938
84, 0, 0, 1344.650268554688
85, 0, 0, 1355.177124023438
86, 0, 0, 1366.576416015625
87, 0, 0, 1391.739624023438
88, 0, 0, 1403.48193359375
89, 0, 0, 1416.201416015625
90, 0, 0, 1441.10107421875
91, 0, 0, 1455.920532226562
92, 0, 0, 1481.4697265625
93, 0, 0, 1499.677856445312
94, 0, 0, 1514.292114257812
95, 0, 0, 1555.767333984375
96, 0, 0, 1577.036865234375
97, 0, 0, 1609.057983398438
98, 0, 0, 1633.98876953125
99, 0, 0, 1684.092529296875
100, 0, 0, 1728.094970703125
101, 0, 0, 1776.601684570312
102, 0, 0, 1836.161865234375
103, 0, 0, 1891.920532226562
104, 0, 0, 1967.077392578125
105, 0, 0, 2041.376586914062
106, 0, 0, 2140.130126953125
107, 0, 0, 2258.885498046875
108, 0, 0, 2395.73291015625
109, 0, 0, 2598.8525390625
110, 0, 0, 2858.6201171875
111, 0, 0, 3272.131591796875
112, 0, 0, 3699.498046875
113, 0, 0, 4282.373046875
114, 0, 0, 4153.32373046875
115, 0, 0, 3199.80712890625
116, 0, 0, 2014.048583984375
117, 0, 0, 960.5277099609375
118, 0, 0, 358.2286682128906
119, 0, 0, 133.7298889160156
120, 0, 0, 33.48106002807617
121, 0, 0, 0.04992134869098663
122, 0, 0, 0.04091937094926834
123, 0, 0, 0.1205152720212936
124, 0, 0, 0
125, 0, 0, 0.1298325061798096
126, 0, 0, 0.03726440668106079
127, 0, 0, 0
128, 0, 0, 0.08649926632642746
129, 0, 0, 0
130, 0, 0, 0.07163895666599274
131, 0, 0, 0.00504837092012167
132, 0, 0, 0.026392862200737
133, 0, 0, 0.0236907135695219
134, 0, 0, 0.01639336720108986
135, 0, 0, 0.02504901774227619
136, 0, 0, 0
137, 0, 0, 0
138, 0, 0, 0.1063866838812828
139, 0, 0, 0.10626470297575
140, 0, 0, 0.03064962103962898
141, 0, 0, 0
142, 0, 0, 0.04797101393342018
143, 0, 0, 0
144, 0, 0, 0
145, 0, 0, 0.0009238990605808794
146, 0, 0, 0
147, 0, 0, 0.01290012802928686
148, 0, 0, 0
149, 0, 0, 0
150, 0, 0, 0.05146883428096771
151, 0, 0, 0.02901548892259598
152, 0, 0, 0
153, 0, 0, 0.007858996279537678
154, 0, 0, 0
155, 0, 0, 0
156, 0, 0, 0.06025579199194908
157, 0, 0, 0.004395602270960808
158, 0, 0, 0
159, 0, 0, 0
160, 0, 0, 0
161, 0, 0, 0
162, 0, 0, 0.08030207455158234
163, 0, 0, 0
164, 0, 0, 0
