# TOPAS Version: 3.3.p1
# Parameter File: Simple_Pattern.txt
# Results for scorer MLIC_Scorer
# Scored in component: MLIC
# X in 180 bins of 0.222222 cm
# Y in 1 bin  of 10 cm
# Z in 1 bin  of 10 cm
# EnergyDeposit ( MeV ) : Sum   
0, 0, 0, 1085.760620117188
1, 0, 0, 1094.073120117188
2, 0, 0, 1090.90087890625
3, 0, 0, 1097.84130859375
4, 0, 0, 1106.396240234375
5, 0, 0, 1111.202270507812
6, 0, 0, 1120.412475585938
7, 0, 0, 1120.618530273438
8, 0, 0, 1124.870727539062
9, 0, 0, 1130.833618164062
10, 0, 0, 1138.55859375
11, 0, 0, 1140.59375
12, 0, 0, 1153.776611328125
13, 0, 0, 1159.972534179688
14, 0, 0, 1155.090576171875
15, 0, 0, 1155.916381835938
16, 0, 0, 1176.93896484375
17, 0, 0, 1179.024780273438
18, 0, 0, 1183.34765625
19, 0, 0, 1187.118896484375
20, 0, 0, 1196.834228515625
21, 0, 0, 1216.376220703125
22, 0, 0, 1215.735595703125
23, 0, 0, 1209.605834960938
24, 0, 0, 1217.597900390625
25, 0, 0, 1224.440185546875
26, 0, 0, 1235.362060546875
27, 0, 0, 1254.535888671875
28, 0, 0, 1250.0419921875
29, 0, 0, 1259.5517578125
30, 0, 0, 1264.66015625
31, 0, 0, 1284.712280273438
32, 0, 0, 1288.724243164062
33, 0, 0, 1296.209228515625
34, 0, 0, 1298.7646484375
35, 0, 0, 1309.380126953125
36, 0, 0, 1314.080810546875
37, 0, 0, 1326.747314453125
38, 0, 0, 1345.691040039062
39, 0, 0, 1350.71923828125
40, 0, 0, 1360.471923828125
41, 0, 0, 1370.7548828125
42, 0, 0, 1391.77197265625
43, 0, 0, 1399.261108398438
44, 0, 0, 1395.6884765625
45, 0, 0, 1418.907470703125
46, 0, 0, 1422.3125
47, 0, 0, 1440.49267578125
48, 0, 0, 1452.962524414062
49, 0, 0, 1472.113159179688
50, 0, 0, 1479.58642578125
51, 0, 0, 1503.79052734375
52, 0, 0, 1511.132080078125
53, 0, 0, 1524.84326171875
54, 0, 0, 1544.863525390625
55, 0, 0, 1555.201171875
56, 0, 0, 1580.215698242188
57, 0, 0, 1598.098266601562
58, 0, 0, 1621.280517578125
59, 0, 0, 1634.633056640625
60, 0, 0, 1661.59228515625
61, 0, 0, 1673.04345703125
62, 0, 0, 1706.7470703125
63, 0, 0, 1731.9306640625
64, 0, 0, 1751.72900390625
65, 0, 0, 1782.265991210938
66, 0, 0, 1806.327514648438
67, 0, 0, 1833.422973632812
68, 0, 0, 1865.1337890625
69, 0, 0, 1896.40478515625
70, 0, 0, 1939.703979492188
71, 0, 0, 1964.967651367188
72, 0, 0, 2005.025268554688
73, 0, 0, 2051.39697265625
74, 0, 0, 2103.427734375
75, 0, 0, 2145.77392578125
76, 0, 0, 2201.766845703125
77, 0, 0, 2263.501708984375
78, 0, 0, 2330.111572265625
79, 0, 0, 2406.0283203125
80, 0, 0, 2489.1630859375
81, 0, 0, 2583.73974609375
82, 0, 0, 2690.053466796875
83, 0, 0, 2803.0419921875
84, 0, 0, 2961.105712890625
85, 0, 0, 3137.818359375
86, 0, 0, 3344.571044921875
87, 0, 0, 3638.957763671875
88, 0, 0, 4064.238037109375
89, 0, 0, 4670.8212890625
90, 0, 0, 5464.375
91, 0, 0, 6205.619140625
92, 0, 0, 5686.3271484375
93, 0, 0, 4025.708740234375
94, 0, 0, 2004.895874023438
95, 0, 0, 772.6915283203125
96, 0, 0, 137.5585021972656
97, 0, 0, 8.192992210388184
98, 0, 0, 0
99, 0, 0, 0
100, 0, 0, 0.006059597246348858
101, 0, 0, 0.0004188859602436423
102, 0, 0, 0
103, 0, 0, 0
104, 0, 0, 0
105, 0, 0, 0
106, 0, 0, 0
107, 0, 0, 0.02960455976426601
108, 0, 0, 0
109, 0, 0, 0
110, 0, 0, 0
111, 0, 0, 0
112, 0, 0, 0
113, 0, 0, 0
114, 0, 0, 0
115, 0, 0, 0
116, 0, 0, 0
117, 0, 0, 0
118, 0, 0, 0
119, 0, 0, 0
120, 0, 0, 0
121, 0, 0, 0
122, 0, 0, 0
123, 0, 0, 0
124, 0, 0, 0
125, 0, 0, 0
126, 0, 0, 0
127, 0, 0, 0.0264753270894289
128, 0, 0, 0
129, 0, 0, 0
130, 0, 0, 0
131, 0, 0, 0
132, 0, 0, 0
133, 0, 0, 0
134, 0, 0, 0
135, 0, 0, 0
136, 0, 0, 0
137, 0, 0, 0
138, 0, 0, 0
139, 0, 0, 0
140, 0, 0, 0
141, 0, 0, 0
142, 0, 0, 0
143, 0, 0, 0
144, 0, 0, 0
145, 0, 0, 0
146, 0, 0, 0.01032511796802282
147, 0, 0, 0.005132541060447693
148, 0, 0, 0
149, 0, 0, 0
150, 0, 0, 0.01881573908030987
151, 0, 0, 0
152, 0, 0, 0
153, 0, 0, 0
154, 0, 0, 0
155, 0, 0, 0
156, 0, 0, 0
157, 0, 0, 0
158, 0, 0, 0
159, 0, 0, 0
160, 0, 0, 0.05086742714047432
161, 0, 0, 0
162, 0, 0, 0
163, 0, 0, 0
164, 0, 0, 0
165, 0, 0, 0
166, 0, 0, 0
167, 0, 0, 0
168, 0, 0, 0
169, 0, 0, 0
170, 0, 0, 0
171, 0, 0, 0
172, 0, 0, 0
173, 0, 0, 0
174, 0, 0, 0
175, 0, 0, 0
176, 0, 0, 0
177, 0, 0, 0
178, 0, 0, 0
179, 0, 0, 0
