# TOPAS Version: 3.3.p1
# Parameter File: Simple_Pattern.txt
# Results for scorer MLIC_Scorer
# Scored in component: MLIC
# X in 180 bins of 0.222222 cm
# Y in 1 bin  of 10 cm
# Z in 1 bin  of 10 cm
# EnergyDeposit ( MeV ) : Sum   
0, 0, 0, 1084.356689453125
1, 0, 0, 1091.638793945312
2, 0, 0, 1092.540405273438
3, 0, 0, 1101.239379882812
4, 0, 0, 1105.133911132812
5, 0, 0, 1107.350463867188
6, 0, 0, 1109.098876953125
7, 0, 0, 1120.660400390625
8, 0, 0, 1129.201416015625
9, 0, 0, 1130.714233398438
10, 0, 0, 1129.98681640625
11, 0, 0, 1136.468383789062
12, 0, 0, 1143.352905273438
13, 0, 0, 1149.418701171875
14, 0, 0, 1159.06103515625
15, 0, 0, 1175.71240234375
16, 0, 0, 1174.533813476562
17, 0, 0, 1177.773193359375
18, 0, 0, 1178.729370117188
19, 0, 0, 1195.75927734375
20, 0, 0, 1192.711181640625
21, 0, 0, 1208.715209960938
22, 0, 0, 1209.26708984375
23, 0, 0, 1216.015625
24, 0, 0, 1211.760131835938
25, 0, 0, 1229.947387695312
26, 0, 0, 1239.261596679688
27, 0, 0, 1237.451416015625
28, 0, 0, 1245.61376953125
29, 0, 0, 1252.758666992188
30, 0, 0, 1262.421752929688
31, 0, 0, 1274.509643554688
32, 0, 0, 1288.790771484375
33, 0, 0, 1294.719970703125
34, 0, 0, 1300.36376953125
35, 0, 0, 1311.692260742188
36, 0, 0, 1319.857543945312
37, 0, 0, 1325.234252929688
38, 0, 0, 1338.515502929688
39, 0, 0, 1346.819091796875
40, 0, 0, 1358.3017578125
41, 0, 0, 1369.326049804688
42, 0, 0, 1381.409912109375
43, 0, 0, 1394.4921875
44, 0, 0, 1405.30126953125
45, 0, 0, 1421.735107421875
46, 0, 0, 1426.976196289062
47, 0, 0, 1435.436767578125
48, 0, 0, 1458.427368164062
49, 0, 0, 1474.972778320312
50, 0, 0, 1485.162231445312
51, 0, 0, 1494.093017578125
52, 0, 0, 1519.273559570312
53, 0, 0, 1528.970947265625
54, 0, 0, 1545.733154296875
55, 0, 0, 1564.991577148438
56, 0, 0, 1585.66064453125
57, 0, 0, 1599.944946289062
58, 0, 0, 1621.542846679688
59, 0, 0, 1630.26611328125
60, 0, 0, 1662.828979492188
61, 0, 0, 1692.663696289062
62, 0, 0, 1695.50439453125
63, 0, 0, 1727.3505859375
64, 0, 0, 1749.81201171875
65, 0, 0, 1774.819946289062
66, 0, 0, 1805.319091796875
67, 0, 0, 1841.059326171875
68, 0, 0, 1869.193115234375
69, 0, 0, 1903.472534179688
70, 0, 0, 1937.862915039062
71, 0, 0, 1975.19921875
72, 0, 0, 2020.680541992188
73, 0, 0, 2060.477783203125
74, 0, 0, 2106.760986328125
75, 0, 0, 2163.086669921875
76, 0, 0, 2211.55908203125
77, 0, 0, 2274.798828125
78, 0, 0, 2332.600341796875
79, 0, 0, 2407.75
80, 0, 0, 2497.64697265625
81, 0, 0, 2587.1962890625
82, 0, 0, 2693.804443359375
83, 0, 0, 2812.6474609375
84, 0, 0, 2967.18701171875
85, 0, 0, 3138.06884765625
86, 0, 0, 3359.31396484375
87, 0, 0, 3640.49365234375
88, 0, 0, 4043.36572265625
89, 0, 0, 4689.4541015625
90, 0, 0, 5590.01806640625
91, 0, 0, 6267.4521484375
92, 0, 0, 5752.91455078125
93, 0, 0, 4137.8271484375
94, 0, 0, 2146.02099609375
95, 0, 0, 777.5865478515625
96, 0, 0, 150.8009338378906
97, 0, 0, 31.97071647644043
98, 0, 0, 0.02570439502596855
99, 0, 0, 0
100, 0, 0, 0
101, 0, 0, 0
102, 0, 0, 0
103, 0, 0, 0
104, 0, 0, 0
105, 0, 0, 0
106, 0, 0, 0
107, 0, 0, 0
108, 0, 0, 0
109, 0, 0, 0
110, 0, 0, 0
111, 0, 0, 0
112, 0, 0, 0
113, 0, 0, 0
114, 0, 0, 0
115, 0, 0, 0
116, 0, 0, 0
117, 0, 0, 0
118, 0, 0, 0
119, 0, 0, 0
120, 0, 0, 0
121, 0, 0, 0
122, 0, 0, 0
123, 0, 0, 0
124, 0, 0, 0
125, 0, 0, 0
126, 0, 0, 0.02646723389625549
127, 0, 0, 0
128, 0, 0, 0
129, 0, 0, 0
130, 0, 0, 0
131, 0, 0, 0
132, 0, 0, 0
133, 0, 0, 0
134, 0, 0, 0
135, 0, 0, 0
136, 0, 0, 0
137, 0, 0, 0
138, 0, 0, 0
139, 0, 0, 0
140, 0, 0, 0
141, 0, 0, 0
142, 0, 0, 0
143, 0, 0, 0
144, 0, 0, 0
145, 0, 0, 0
146, 0, 0, 0
147, 0, 0, 0
148, 0, 0, 0
149, 0, 0, 0
150, 0, 0, 0
151, 0, 0, 0
152, 0, 0, 0
153, 0, 0, 0
154, 0, 0, 0
155, 0, 0, 0
156, 0, 0, 0
157, 0, 0, 0
158, 0, 0, 0
159, 0, 0, 0
160, 0, 0, 0
161, 0, 0, 0
162, 0, 0, 0
163, 0, 0, 0
164, 0, 0, 0
165, 0, 0, 0
166, 0, 0, 0
167, 0, 0, 0
168, 0, 0, 0
169, 0, 0, 0
170, 0, 0, 0
171, 0, 0, 0
172, 0, 0, 0
173, 0, 0, 0
174, 0, 0, 0
175, 0, 0, 0
176, 0, 0, 0
177, 0, 0, 0
178, 0, 0, 0
179, 0, 0, 0
