# TOPAS Version: 3.3.p1
# Parameter File: Simple_Pattern.txt
# Results for scorer MLIC_Scorer
# Scored in component: MLIC
# X in 180 bins of 0.222222 cm
# Y in 1 bin  of 10 cm
# Z in 1 bin  of 10 cm
# EnergyDeposit ( MeV ) : Sum   
0, 0, 0, 1085.420166015625
1, 0, 0, 1083.7900390625
2, 0, 0, 1097.444458007812
3, 0, 0, 1095.869506835938
4, 0, 0, 1105.7275390625
5, 0, 0, 1119.991088867188
6, 0, 0, 1103.265869140625
7, 0, 0, 1123.752319335938
8, 0, 0, 1119.945922851562
9, 0, 0, 1133.606201171875
10, 0, 0, 1130.634399414062
11, 0, 0, 1138.115112304688
12, 0, 0, 1144.220336914062
13, 0, 0, 1146.708374023438
14, 0, 0, 1156.133056640625
15, 0, 0, 1162.5048828125
16, 0, 0, 1172.018188476562
17, 0, 0, 1169.961669921875
18, 0, 0, 1179.532348632812
19, 0, 0, 1191.077270507812
20, 0, 0, 1196.84912109375
21, 0, 0, 1205.41796875
22, 0, 0, 1208.54345703125
23, 0, 0, 1204.598022460938
24, 0, 0, 1213.729614257812
25, 0, 0, 1215.344970703125
26, 0, 0, 1239.755004882812
27, 0, 0, 1238.120239257812
28, 0, 0, 1248.301879882812
29, 0, 0, 1260.559326171875
30, 0, 0, 1263.390502929688
31, 0, 0, 1284.485595703125
32, 0, 0, 1287.71142578125
33, 0, 0, 1288.450805664062
34, 0, 0, 1307.24267578125
35, 0, 0, 1314.674438476562
36, 0, 0, 1313.382568359375
37, 0, 0, 1327.819213867188
38, 0, 0, 1335.7724609375
39, 0, 0, 1344.852416992188
40, 0, 0, 1359.801391601562
41, 0, 0, 1376.106323242188
42, 0, 0, 1375.452270507812
43, 0, 0, 1392.928344726562
44, 0, 0, 1411.883422851562
45, 0, 0, 1418.39111328125
46, 0, 0, 1432.799682617188
47, 0, 0, 1436.474243164062
48, 0, 0, 1458.552001953125
49, 0, 0, 1467.3876953125
50, 0, 0, 1480.5048828125
51, 0, 0, 1498.984619140625
52, 0, 0, 1516.75146484375
53, 0, 0, 1529.987670898438
54, 0, 0, 1544.058837890625
55, 0, 0, 1561.978393554688
56, 0, 0, 1576.2236328125
57, 0, 0, 1600.08984375
58, 0, 0, 1616.171508789062
59, 0, 0, 1637.616455078125
60, 0, 0, 1658.958374023438
61, 0, 0, 1675.369506835938
62, 0, 0, 1698.996459960938
63, 0, 0, 1725.41748046875
64, 0, 0, 1748.50146484375
65, 0, 0, 1772.146240234375
66, 0, 0, 1799.483520507812
67, 0, 0, 1830.808349609375
68, 0, 0, 1865.271240234375
69, 0, 0, 1900.400390625
70, 0, 0, 1939.59375
71, 0, 0, 1976.770385742188
72, 0, 0, 2009.530151367188
73, 0, 0, 2054.267822265625
74, 0, 0, 2108.341552734375
75, 0, 0, 2157.98974609375
76, 0, 0, 2215.943603515625
77, 0, 0, 2275.299072265625
78, 0, 0, 2345.092041015625
79, 0, 0, 2411.158447265625
80, 0, 0, 2493.94482421875
81, 0, 0, 2590.593994140625
82, 0, 0, 2695.625
83, 0, 0, 2828.98828125
84, 0, 0, 2968.369873046875
85, 0, 0, 3149.41455078125
86, 0, 0, 3354.941162109375
87, 0, 0, 3652.077392578125
88, 0, 0, 4060.022705078125
89, 0, 0, 4635.65234375
90, 0, 0, 5482.4619140625
91, 0, 0, 6232.9462890625
92, 0, 0, 6105.61083984375
93, 0, 0, 4538.10546875
94, 0, 0, 2265.236572265625
95, 0, 0, 689.0975952148438
96, 0, 0, 98.05830383300781
97, 0, 0, 13.49756240844727
98, 0, 0, 0
99, 0, 0, 0.01010406110435724
100, 0, 0, 0
101, 0, 0, 0
102, 0, 0, 0
103, 0, 0, 0
104, 0, 0, 0
105, 0, 0, 0
106, 0, 0, 0
107, 0, 0, 0
108, 0, 0, 0
109, 0, 0, 0
110, 0, 0, 0
111, 0, 0, 0
112, 0, 0, 0
113, 0, 0, 0
114, 0, 0, 0
115, 0, 0, 0
116, 0, 0, 0
117, 0, 0, 0
118, 0, 0, 0
119, 0, 0, 0
120, 0, 0, 0
121, 0, 0, 0
122, 0, 0, 0
123, 0, 0, 0
124, 0, 0, 0
125, 0, 0, 0
126, 0, 0, 0.005759853404015303
127, 0, 0, 0
128, 0, 0, 0
129, 0, 0, 0
130, 0, 0, 0
131, 0, 0, 0
132, 0, 0, 0
133, 0, 0, 0
134, 0, 0, 0
135, 0, 0, 0.002555892104282975
136, 0, 0, 0
137, 0, 0, 0
138, 0, 0, 0
139, 0, 0, 0
140, 0, 0, 0
141, 0, 0, 0
142, 0, 0, 0
143, 0, 0, 0
144, 0, 0, 0
145, 0, 0, 0.04348553344607353
146, 0, 0, 0
147, 0, 0, 0
148, 0, 0, 0
149, 0, 0, 0
150, 0, 0, 0
151, 0, 0, 0
152, 0, 0, 0
153, 0, 0, 0
154, 0, 0, 0
155, 0, 0, 0
156, 0, 0, 0
157, 0, 0, 0
158, 0, 0, 0
159, 0, 0, 0
160, 0, 0, 0
161, 0, 0, 0
162, 0, 0, 0
163, 0, 0, 0
164, 0, 0, 0
165, 0, 0, 0
166, 0, 0, 0
167, 0, 0, 0
168, 0, 0, 0
169, 0, 0, 0
170, 0, 0, 0
171, 0, 0, 0
172, 0, 0, 0
173, 0, 0, 0
174, 0, 0, 0
175, 0, 0, 0
176, 0, 0, 0
177, 0, 0, 0
178, 0, 0, 0
179, 0, 0, 0
