# TOPAS Version: 3.3.p1
# Parameter File: Simple_Pattern.txt
# Results for scorer MLIC_Scorer
# Scored in component: MLIC
# X in 180 bins of 0.222222 cm
# Y in 1 bin  of 10 cm
# Z in 1 bin  of 10 cm
# EnergyDeposit ( MeV ) : Sum   
0, 0, 0, 40.61129379272461
1, 0, 0, 42.43666839599609
2, 0, 0, 42.46742630004883
3, 0, 0, 42.02324295043945
4, 0, 0, 42.91083908081055
5, 0, 0, 43.80204010009766
6, 0, 0, 40.43435668945312
7, 0, 0, 40.85061645507812
8, 0, 0, 41.89558792114258
9, 0, 0, 43.09585952758789
10, 0, 0, 43.81439208984375
11, 0, 0, 43.8375358581543
12, 0, 0, 42.97879791259766
13, 0, 0, 43.13828659057617
14, 0, 0, 44.36650085449219
15, 0, 0, 44.03763198852539
16, 0, 0, 44.18204498291016
17, 0, 0, 45.09997940063477
18, 0, 0, 45.53549194335938
19, 0, 0, 44.93864822387695
20, 0, 0, 45.01868438720703
21, 0, 0, 44.91223907470703
22, 0, 0, 45.28123474121094
23, 0, 0, 45.60290145874023
24, 0, 0, 46.76064682006836
25, 0, 0, 47.72272109985352
26, 0, 0, 46.09245681762695
27, 0, 0, 46.5699348449707
28, 0, 0, 49.61198043823242
29, 0, 0, 45.72274398803711
30, 0, 0, 47.13790893554688
31, 0, 0, 49.63874816894531
32, 0, 0, 48.98754501342773
33, 0, 0, 49.25662612915039
34, 0, 0, 49.98057556152344
35, 0, 0, 47.6163330078125
36, 0, 0, 50.09267044067383
37, 0, 0, 48.50702667236328
38, 0, 0, 49.35873031616211
39, 0, 0, 49.52387237548828
40, 0, 0, 49.75736999511719
41, 0, 0, 49.28267669677734
42, 0, 0, 49.3371467590332
43, 0, 0, 51.77942657470703
44, 0, 0, 50.34039688110352
45, 0, 0, 51.0567741394043
46, 0, 0, 51.28453826904297
47, 0, 0, 52.86922073364258
48, 0, 0, 51.79533767700195
49, 0, 0, 53.64229583740234
50, 0, 0, 52.80695343017578
51, 0, 0, 55.46927261352539
52, 0, 0, 54.93912887573242
53, 0, 0, 54.36974716186523
54, 0, 0, 55.9417610168457
55, 0, 0, 55.49331283569336
56, 0, 0, 57.94583511352539
57, 0, 0, 56.54571533203125
58, 0, 0, 57.44203186035156
59, 0, 0, 60.2489128112793
60, 0, 0, 60.37044525146484
61, 0, 0, 61.43085861206055
62, 0, 0, 60.55766296386719
63, 0, 0, 60.29299926757812
64, 0, 0, 61.98019027709961
65, 0, 0, 62.60223007202148
66, 0, 0, 63.44983673095703
67, 0, 0, 65.47510528564453
68, 0, 0, 66.31307220458984
69, 0, 0, 64.93787384033203
70, 0, 0, 66.9407958984375
71, 0, 0, 68.05943298339844
72, 0, 0, 70.10095977783203
73, 0, 0, 71.87061309814453
74, 0, 0, 71.50034332275391
75, 0, 0, 72.78139495849609
76, 0, 0, 76.00379180908203
77, 0, 0, 78.46260070800781
78, 0, 0, 81.22446441650391
79, 0, 0, 81.05100250244141
80, 0, 0, 80.21984100341797
81, 0, 0, 83.39072418212891
82, 0, 0, 85.84372711181641
83, 0, 0, 85.68719482421875
84, 0, 0, 89.3702392578125
85, 0, 0, 93.83027648925781
86, 0, 0, 100.8186950683594
87, 0, 0, 110.6328048706055
88, 0, 0, 123.8862457275391
89, 0, 0, 140.9167327880859
90, 0, 0, 157.02783203125
91, 0, 0, 192.9236297607422
92, 0, 0, 149.47705078125
93, 0, 0, 83.78856658935547
94, 0, 0, 61.90937423706055
95, 0, 0, 15.81806087493896
96, 0, 0, 0
97, 0, 0, 0
98, 0, 0, 0
99, 0, 0, 0
100, 0, 0, 0
101, 0, 0, 0
102, 0, 0, 0
103, 0, 0, 0
104, 0, 0, 0
105, 0, 0, 0
106, 0, 0, 0
107, 0, 0, 0
108, 0, 0, 0
109, 0, 0, 0
110, 0, 0, 0
111, 0, 0, 0
112, 0, 0, 0
113, 0, 0, 0
114, 0, 0, 0
115, 0, 0, 0
116, 0, 0, 0
117, 0, 0, 0
118, 0, 0, 0
119, 0, 0, 0
120, 0, 0, 0.06393267959356308
121, 0, 0, 0
122, 0, 0, 0
123, 0, 0, 0
124, 0, 0, 0
125, 0, 0, 0
126, 0, 0, 0
127, 0, 0, 0
128, 0, 0, 0
129, 0, 0, 0
130, 0, 0, 0.04975264891982079
131, 0, 0, 0
132, 0, 0, 0
133, 0, 0, 0
134, 0, 0, 0
135, 0, 0, 0
136, 0, 0, 0
137, 0, 0, 0
138, 0, 0, 0
139, 0, 0, 0
140, 0, 0, 0
141, 0, 0, 0
142, 0, 0, 0
143, 0, 0, 0
144, 0, 0, 0
145, 0, 0, 0
146, 0, 0, 0
147, 0, 0, 0
148, 0, 0, 0
149, 0, 0, 0
150, 0, 0, 0
151, 0, 0, 0
152, 0, 0, 0
153, 0, 0, 0
154, 0, 0, 0
155, 0, 0, 0
156, 0, 0, 0
157, 0, 0, 0
158, 0, 0, 0
159, 0, 0, 0
160, 0, 0, 0
161, 0, 0, 0
162, 0, 0, 0
163, 0, 0, 0
164, 0, 0, 0
165, 0, 0, 0
166, 0, 0, 0
167, 0, 0, 0
168, 0, 0, 0
169, 0, 0, 0
170, 0, 0, 0
171, 0, 0, 0
172, 0, 0, 0
173, 0, 0, 0
174, 0, 0, 0
175, 0, 0, 0
176, 0, 0, 0
177, 0, 0, 0
178, 0, 0, 0
179, 0, 0, 0
