# TOPAS Version: 3.3.p1
# Parameter File: Simple_Pattern.txt
# Results for scorer MLIC_Scorer
# Scored in component: MLIC
# X in 180 bins of 0.222222 cm
# Y in 1 bin  of 10 cm
# Z in 1 bin  of 10 cm
# EnergyDeposit ( MeV ) : Sum   
0, 0, 0, 45.17900466918945
1, 0, 0, 46.43995666503906
2, 0, 0, 45.17759704589844
3, 0, 0, 43.82728958129883
4, 0, 0, 45.44876098632812
5, 0, 0, 45.74456405639648
6, 0, 0, 42.72804260253906
7, 0, 0, 46.19490814208984
8, 0, 0, 46.25510406494141
9, 0, 0, 50.04599761962891
10, 0, 0, 45.68133544921875
11, 0, 0, 48.88103103637695
12, 0, 0, 48.15207672119141
13, 0, 0, 47.61476898193359
14, 0, 0, 46.82776641845703
15, 0, 0, 48.69972991943359
16, 0, 0, 48.37927627563477
17, 0, 0, 48.04487228393555
18, 0, 0, 47.88891983032227
19, 0, 0, 49.30343246459961
20, 0, 0, 50.29883193969727
21, 0, 0, 49.74739074707031
22, 0, 0, 50.18782043457031
23, 0, 0, 51.28140640258789
24, 0, 0, 49.71998596191406
25, 0, 0, 51.86330795288086
26, 0, 0, 51.36257171630859
27, 0, 0, 49.00488662719727
28, 0, 0, 52.01480484008789
29, 0, 0, 51.82059478759766
30, 0, 0, 52.05992889404297
31, 0, 0, 53.52860260009766
32, 0, 0, 53.41072463989258
33, 0, 0, 51.9498405456543
34, 0, 0, 51.28583145141602
35, 0, 0, 52.74471282958984
36, 0, 0, 50.94194793701172
37, 0, 0, 52.63442993164062
38, 0, 0, 54.59062576293945
39, 0, 0, 53.60943222045898
40, 0, 0, 51.64735794067383
41, 0, 0, 52.94740295410156
42, 0, 0, 54.95050430297852
43, 0, 0, 55.07909393310547
44, 0, 0, 56.20383071899414
45, 0, 0, 55.11565017700195
46, 0, 0, 54.82595062255859
47, 0, 0, 56.66316604614258
48, 0, 0, 55.64409637451172
49, 0, 0, 58.83202743530273
50, 0, 0, 58.05659866333008
51, 0, 0, 58.07988739013672
52, 0, 0, 58.25115585327148
53, 0, 0, 56.99803924560547
54, 0, 0, 56.95004653930664
55, 0, 0, 59.93924713134766
56, 0, 0, 59.58438873291016
57, 0, 0, 59.8215446472168
58, 0, 0, 58.45848846435547
59, 0, 0, 58.90356826782227
60, 0, 0, 60.35484313964844
61, 0, 0, 60.62166976928711
62, 0, 0, 61.25972366333008
63, 0, 0, 61.38125610351562
64, 0, 0, 62.41400527954102
65, 0, 0, 62.65106964111328
66, 0, 0, 63.97285842895508
67, 0, 0, 66.54750823974609
68, 0, 0, 66.88078308105469
69, 0, 0, 67.41764068603516
70, 0, 0, 66.93631744384766
71, 0, 0, 70.08632659912109
72, 0, 0, 69.02677917480469
73, 0, 0, 70.97068786621094
74, 0, 0, 71.48663330078125
75, 0, 0, 73.18560028076172
76, 0, 0, 76.55715942382812
77, 0, 0, 77.56862640380859
78, 0, 0, 79.91139984130859
79, 0, 0, 82.8282470703125
80, 0, 0, 86.60105895996094
81, 0, 0, 89.50466918945312
82, 0, 0, 92.89427947998047
83, 0, 0, 98.01957702636719
84, 0, 0, 101.7818145751953
85, 0, 0, 108.4639663696289
86, 0, 0, 116.7268371582031
87, 0, 0, 126.1846160888672
88, 0, 0, 141.043701171875
89, 0, 0, 163.4552154541016
90, 0, 0, 193.7594146728516
91, 0, 0, 188.0614471435547
92, 0, 0, 213.2382507324219
93, 0, 0, 122.8806762695312
94, 0, 0, 53.50603485107422
95, 0, 0, 7.566489696502686
96, 0, 0, 10.38068771362305
97, 0, 0, 0.03493086621165276
98, 0, 0, 0
99, 0, 0, 0
100, 0, 0, 0
101, 0, 0, 0.001068960293196142
102, 0, 0, 0
103, 0, 0, 0
104, 0, 0, 0
105, 0, 0, 0
106, 0, 0, 0
107, 0, 0, 0
108, 0, 0, 0
109, 0, 0, 0
110, 0, 0, 0
111, 0, 0, 0
112, 0, 0, 0
113, 0, 0, 0
114, 0, 0, 0
115, 0, 0, 0
116, 0, 0, 0
117, 0, 0, 0
118, 0, 0, 0
119, 0, 0, 0
120, 0, 0, 0
121, 0, 0, 0
122, 0, 0, 0
123, 0, 0, 0
124, 0, 0, 0
125, 0, 0, 0
126, 0, 0, 0
127, 0, 0, 0
128, 0, 0, 0
129, 0, 0, 0
130, 0, 0, 0
131, 0, 0, 0
132, 0, 0, 0
133, 0, 0, 0.06229023635387421
134, 0, 0, 0
135, 0, 0, 0
136, 0, 0, 0
137, 0, 0, 0
138, 0, 0, 0
139, 0, 0, 0
140, 0, 0, 0
141, 0, 0, 0
142, 0, 0, 0
143, 0, 0, 0
144, 0, 0, 0
145, 0, 0, 0
146, 0, 0, 0
147, 0, 0, 0
148, 0, 0, 0
149, 0, 0, 0
150, 0, 0, 0
151, 0, 0, 0
152, 0, 0, 0
153, 0, 0, 0
154, 0, 0, 0
155, 0, 0, 0
156, 0, 0, 0
157, 0, 0, 0
158, 0, 0, 0
159, 0, 0, 0
160, 0, 0, 0
161, 0, 0, 0
162, 0, 0, 0
163, 0, 0, 0
164, 0, 0, 0
165, 0, 0, 0
166, 0, 0, 0
167, 0, 0, 0
168, 0, 0, 0
169, 0, 0, 0
170, 0, 0, 0
171, 0, 0, 0
172, 0, 0, 0
173, 0, 0, 0
174, 0, 0, 0
175, 0, 0, 0
176, 0, 0, 0
177, 0, 0, 0
178, 0, 0, 0
179, 0, 0, 0
