# TOPAS Version: 3.3.p1
# Parameter File: Simple_Pattern.txt
# Results for scorer MLIC_Scorer
# Scored in component: MLIC
# X in 180 bins of 0.222222 cm
# Y in 1 bin  of 10 cm
# Z in 1 bin  of 10 cm
# EnergyDeposit ( MeV ) : Sum   
0, 0, 0, 1087.8095703125
1, 0, 0, 1085.34228515625
2, 0, 0, 1094.43896484375
3, 0, 0, 1089.268798828125
4, 0, 0, 1088.891723632812
5, 0, 0, 1095.847900390625
6, 0, 0, 1102.118774414062
7, 0, 0, 1108.235229492188
8, 0, 0, 1120.500366210938
9, 0, 0, 1124.411254882812
10, 0, 0, 1131.043334960938
11, 0, 0, 1129.82568359375
12, 0, 0, 1141.3134765625
13, 0, 0, 1137.657592773438
14, 0, 0, 1145.378173828125
15, 0, 0, 1145.869262695312
16, 0, 0, 1145.5283203125
17, 0, 0, 1153.905395507812
18, 0, 0, 1155.915405273438
19, 0, 0, 1164.422607421875
20, 0, 0, 1173.458618164062
21, 0, 0, 1174.591552734375
22, 0, 0, 1174.809448242188
23, 0, 0, 1174.572021484375
24, 0, 0, 1187.466064453125
25, 0, 0, 1183.552368164062
26, 0, 0, 1190.1337890625
27, 0, 0, 1193.86962890625
28, 0, 0, 1192.893676757812
29, 0, 0, 1206.011840820312
30, 0, 0, 1211.091796875
31, 0, 0, 1210.929321289062
32, 0, 0, 1218.368286132812
33, 0, 0, 1224.7763671875
34, 0, 0, 1224.331298828125
35, 0, 0, 1246.741455078125
36, 0, 0, 1237.654907226562
37, 0, 0, 1237.748291015625
38, 0, 0, 1248.719482421875
39, 0, 0, 1255.909790039062
40, 0, 0, 1266.679565429688
41, 0, 0, 1256.565551757812
42, 0, 0, 1273.170532226562
43, 0, 0, 1280.942993164062
44, 0, 0, 1278.83349609375
45, 0, 0, 1287.754150390625
46, 0, 0, 1296.544799804688
47, 0, 0, 1310.732543945312
48, 0, 0, 1315.501342773438
49, 0, 0, 1321.27490234375
50, 0, 0, 1326.327758789062
51, 0, 0, 1331.003662109375
52, 0, 0, 1339.905639648438
53, 0, 0, 1341.57177734375
54, 0, 0, 1357.126708984375
55, 0, 0, 1364.565551757812
56, 0, 0, 1383.212036132812
57, 0, 0, 1388.007568359375
58, 0, 0, 1391.303100585938
59, 0, 0, 1395.078735351562
60, 0, 0, 1414.421630859375
61, 0, 0, 1424.310913085938
62, 0, 0, 1437.891479492188
63, 0, 0, 1463.549682617188
64, 0, 0, 1474.440551757812
65, 0, 0, 1492.597412109375
66, 0, 0, 1512.788330078125
67, 0, 0, 1530.92578125
68, 0, 0, 1539.078857421875
69, 0, 0, 1567.037475585938
70, 0, 0, 1596.066650390625
71, 0, 0, 1623.20361328125
72, 0, 0, 1642.048461914062
73, 0, 0, 1681.881469726562
74, 0, 0, 1713.424560546875
75, 0, 0, 1746.133422851562
76, 0, 0, 1782.082153320312
77, 0, 0, 1826.647338867188
78, 0, 0, 1872.074951171875
79, 0, 0, 1923.298461914062
80, 0, 0, 1984.601318359375
81, 0, 0, 2044.568115234375
82, 0, 0, 2133.91259765625
83, 0, 0, 2211.69140625
84, 0, 0, 2313.619140625
85, 0, 0, 2441.2705078125
86, 0, 0, 2593.063232421875
87, 0, 0, 2796.7236328125
88, 0, 0, 3087.899658203125
89, 0, 0, 3532.140869140625
90, 0, 0, 4076.6328125
91, 0, 0, 4790.06982421875
92, 0, 0, 4680.04248046875
93, 0, 0, 3374.848388671875
94, 0, 0, 1733.232788085938
95, 0, 0, 585.9688720703125
96, 0, 0, 115.7705993652344
97, 0, 0, 8.896154403686523
98, 0, 0, 0.03253131359815598
99, 0, 0, 0.04983513429760933
100, 0, 0, 0.0009856129763647914
101, 0, 0, 0
102, 0, 0, 0.0361250638961792
103, 0, 0, 0.005930793471634388
104, 0, 0, 0.01686921715736389
105, 0, 0, 0
106, 0, 0, 0.06246253848075867
107, 0, 0, 0
108, 0, 0, 0
109, 0, 0, 0.03341028839349747
110, 0, 0, 0
111, 0, 0, 0.04912479966878891
112, 0, 0, 0.005226976238191128
113, 0, 0, 0
114, 0, 0, 0.03859773278236389
115, 0, 0, 0
116, 0, 0, 0.0008177568088285625
117, 0, 0, 0
118, 0, 0, 0
119, 0, 0, 0.0470087081193924
120, 0, 0, 0.008456091396510601
121, 0, 0, 0
122, 0, 0, 0
123, 0, 0, 0
124, 0, 0, 0.02409549243748188
125, 0, 0, 0
126, 0, 0, 0.2695593535900116
127, 0, 0, 0
128, 0, 0, 0.01654188148677349
129, 0, 0, 0
130, 0, 0, 0
131, 0, 0, 0
132, 0, 0, 0.0151919899508357
133, 0, 0, 0
134, 0, 0, 0.1083023995161057
135, 0, 0, 0.06208118423819542
136, 0, 0, 0.02782489731907845
137, 0, 0, 0
138, 0, 0, 0
139, 0, 0, 0
140, 0, 0, 0
141, 0, 0, 0
142, 0, 0, 0
143, 0, 0, 0
144, 0, 0, 0
145, 0, 0, 0
146, 0, 0, 0
147, 0, 0, 0
148, 0, 0, 0
149, 0, 0, 0.01010482758283615
150, 0, 0, 0.09871907532215118
151, 0, 0, 0
152, 0, 0, 0
153, 0, 0, 0.04813056066632271
154, 0, 0, 0
155, 0, 0, 0.2196290045976639
156, 0, 0, 0
157, 0, 0, 0
158, 0, 0, 0.04189739376306534
159, 0, 0, 0
160, 0, 0, 0.02627756260335445
161, 0, 0, 0
162, 0, 0, 0
163, 0, 0, 0.0557415708899498
164, 0, 0, 0
165, 0, 0, 0
166, 0, 0, 0
167, 0, 0, 0
168, 0, 0, 0.01607842557132244
169, 0, 0, 0
170, 0, 0, 0.04388962313532829
171, 0, 0, 0.03458188101649284
172, 0, 0, 0
173, 0, 0, 0
174, 0, 0, 0.002809461671859026
175, 0, 0, 0
176, 0, 0, 0
177, 0, 0, 0
178, 0, 0, 0
179, 0, 0, 0
