# TOPAS Version: 3.3.p1
# Parameter File: Simple_Pattern.txt
# Results for scorer MLIC_Scorer
# Scored in component: MLIC
# X in 180 bins of 0.222222 cm
# Y in 1 bin  of 10 cm
# Z in 1 bin  of 10 cm
# EnergyDeposit ( MeV ) : Sum   
0, 0, 0, 35.14064407348633
1, 0, 0, 36.13613891601562
2, 0, 0, 36.01784515380859
3, 0, 0, 36.63631439208984
4, 0, 0, 37.58023071289062
5, 0, 0, 36.06548690795898
6, 0, 0, 36.44407653808594
7, 0, 0, 36.42510604858398
8, 0, 0, 36.49333953857422
9, 0, 0, 37.43683242797852
10, 0, 0, 38.41599273681641
11, 0, 0, 39.59331893920898
12, 0, 0, 38.7188835144043
13, 0, 0, 40.13843536376953
14, 0, 0, 38.69683837890625
15, 0, 0, 38.87028884887695
16, 0, 0, 39.91948318481445
17, 0, 0, 38.63486862182617
18, 0, 0, 38.76030731201172
19, 0, 0, 39.52111434936523
20, 0, 0, 39.44334030151367
21, 0, 0, 40.44625854492188
22, 0, 0, 39.5688362121582
23, 0, 0, 40.65967559814453
24, 0, 0, 38.7218132019043
25, 0, 0, 40.74126815795898
26, 0, 0, 40.31163024902344
27, 0, 0, 39.68854904174805
28, 0, 0, 40.80227661132812
29, 0, 0, 41.27700042724609
30, 0, 0, 41.47348785400391
31, 0, 0, 41.61552429199219
32, 0, 0, 40.85268402099609
33, 0, 0, 42.15705871582031
34, 0, 0, 41.62468719482422
35, 0, 0, 43.6277961730957
36, 0, 0, 41.44509124755859
37, 0, 0, 44.07068634033203
38, 0, 0, 43.07028961181641
39, 0, 0, 45.62747955322266
40, 0, 0, 44.89882659912109
41, 0, 0, 44.3802490234375
42, 0, 0, 45.34599685668945
43, 0, 0, 47.86498641967773
44, 0, 0, 46.61006164550781
45, 0, 0, 46.71603393554688
46, 0, 0, 47.7868537902832
47, 0, 0, 46.72719192504883
48, 0, 0, 48.37974166870117
49, 0, 0, 47.4739875793457
50, 0, 0, 47.70143890380859
51, 0, 0, 48.41742324829102
52, 0, 0, 51.10247802734375
53, 0, 0, 50.57540130615234
54, 0, 0, 50.35700225830078
55, 0, 0, 51.57168960571289
56, 0, 0, 52.03657150268555
57, 0, 0, 52.2223014831543
58, 0, 0, 55.14688873291016
59, 0, 0, 52.12248611450195
60, 0, 0, 54.69448852539062
61, 0, 0, 54.76416778564453
62, 0, 0, 56.54251480102539
63, 0, 0, 55.93617630004883
64, 0, 0, 58.06425476074219
65, 0, 0, 58.44075393676758
66, 0, 0, 60.0483512878418
67, 0, 0, 58.87966918945312
68, 0, 0, 61.51461791992188
69, 0, 0, 63.07068634033203
70, 0, 0, 63.70867919921875
71, 0, 0, 65.04816436767578
72, 0, 0, 65.43161010742188
73, 0, 0, 65.86052703857422
74, 0, 0, 69.18093109130859
75, 0, 0, 70.04444122314453
76, 0, 0, 71.27500915527344
77, 0, 0, 72.56733703613281
78, 0, 0, 74.92052459716797
79, 0, 0, 77.50875091552734
80, 0, 0, 79.80994415283203
81, 0, 0, 82.56265258789062
82, 0, 0, 86.90518188476562
83, 0, 0, 89.16448211669922
84, 0, 0, 94.27341461181641
85, 0, 0, 99.08030700683594
86, 0, 0, 102.1243133544922
87, 0, 0, 111.9723815917969
88, 0, 0, 121.6984710693359
89, 0, 0, 137.3250579833984
90, 0, 0, 169.0633239746094
91, 0, 0, 194.8617401123047
92, 0, 0, 197.3078002929688
93, 0, 0, 170.2409210205078
94, 0, 0, 62.644287109375
95, 0, 0, 20.53116798400879
96, 0, 0, 4.071701049804688
97, 0, 0, 0
98, 0, 0, 0
99, 0, 0, 0
100, 0, 0, 0
101, 0, 0, 0
102, 0, 0, 0
103, 0, 0, 0
104, 0, 0, 0
105, 0, 0, 0
106, 0, 0, 0
107, 0, 0, 0
108, 0, 0, 0
109, 0, 0, 0
110, 0, 0, 0
111, 0, 0, 0
112, 0, 0, 0
113, 0, 0, 0
114, 0, 0, 0
115, 0, 0, 0
116, 0, 0, 0
117, 0, 0, 0
118, 0, 0, 0
119, 0, 0, 0
120, 0, 0, 0
121, 0, 0, 0
122, 0, 0, 0
123, 0, 0, 0
124, 0, 0, 0
125, 0, 0, 0
126, 0, 0, 0
127, 0, 0, 0
128, 0, 0, 0.01879769004881382
129, 0, 0, 0
130, 0, 0, 0
131, 0, 0, 0
132, 0, 0, 0
133, 0, 0, 0
134, 0, 0, 0
135, 0, 0, 0
136, 0, 0, 0
137, 0, 0, 0
138, 0, 0, 0
139, 0, 0, 0
140, 0, 0, 0
141, 0, 0, 0
142, 0, 0, 0
143, 0, 0, 0
144, 0, 0, 0
145, 0, 0, 0
146, 0, 0, 0
147, 0, 0, 0
148, 0, 0, 0
149, 0, 0, 0
150, 0, 0, 0
151, 0, 0, 0
152, 0, 0, 0
153, 0, 0, 0
154, 0, 0, 0
155, 0, 0, 0
156, 0, 0, 0
157, 0, 0, 0
158, 0, 0, 0
159, 0, 0, 0
160, 0, 0, 0
161, 0, 0, 0
162, 0, 0, 0
163, 0, 0, 0
164, 0, 0, 0
165, 0, 0, 0
166, 0, 0, 0
167, 0, 0, 0
168, 0, 0, 0
169, 0, 0, 0
170, 0, 0, 0
171, 0, 0, 0
172, 0, 0, 0
173, 0, 0, 0
174, 0, 0, 0
175, 0, 0, 0
176, 0, 0, 0
177, 0, 0, 0
178, 0, 0, 0
179, 0, 0, 0
