# TOPAS Version: 3.3.p1
# Parameter File: Simple_Pattern.txt
# Results for scorer MLIC_Scorer
# Scored in component: MLIC
# X in 180 bins of 0.222222 cm
# Y in 1 bin  of 10 cm
# Z in 1 bin  of 10 cm
# EnergyDeposit ( MeV ) : Sum   
0, 0, 0, 104.0780563354492
1, 0, 0, 103.5904922485352
2, 0, 0, 102.7593841552734
3, 0, 0, 106.5239791870117
4, 0, 0, 104.4052276611328
5, 0, 0, 107.4559936523438
6, 0, 0, 109.2465057373047
7, 0, 0, 106.4278182983398
8, 0, 0, 107.6238250732422
9, 0, 0, 105.4748916625977
10, 0, 0, 108.4489288330078
11, 0, 0, 109.8156661987305
12, 0, 0, 105.8021392822266
13, 0, 0, 109.0958557128906
14, 0, 0, 112.5086517333984
15, 0, 0, 112.7784881591797
16, 0, 0, 111.9865264892578
17, 0, 0, 108.2719116210938
18, 0, 0, 110.0516586303711
19, 0, 0, 113.9526748657227
20, 0, 0, 115.3536911010742
21, 0, 0, 112.5218276977539
22, 0, 0, 114.9807739257812
23, 0, 0, 117.0428085327148
24, 0, 0, 119.130989074707
25, 0, 0, 119.0554962158203
26, 0, 0, 116.0905914306641
27, 0, 0, 117.6612777709961
28, 0, 0, 116.8336410522461
29, 0, 0, 120.543342590332
30, 0, 0, 120.0542373657227
31, 0, 0, 124.4103240966797
32, 0, 0, 120.4450149536133
33, 0, 0, 124.3242340087891
34, 0, 0, 124.5469589233398
35, 0, 0, 121.9578628540039
36, 0, 0, 126.4086380004883
37, 0, 0, 126.024169921875
38, 0, 0, 130.1256256103516
39, 0, 0, 128.6708679199219
40, 0, 0, 128.1651611328125
41, 0, 0, 128.1374359130859
42, 0, 0, 130.4908447265625
43, 0, 0, 135.9756011962891
44, 0, 0, 134.2832641601562
45, 0, 0, 136.8521118164062
46, 0, 0, 135.8121185302734
47, 0, 0, 137.6821899414062
48, 0, 0, 139.0420989990234
49, 0, 0, 139.88037109375
50, 0, 0, 139.1808471679688
51, 0, 0, 143.1837615966797
52, 0, 0, 144.0737609863281
53, 0, 0, 145.1278686523438
54, 0, 0, 145.4215698242188
55, 0, 0, 147.3626098632812
56, 0, 0, 150.7194976806641
57, 0, 0, 150.8633880615234
58, 0, 0, 152.9646453857422
59, 0, 0, 155.5373687744141
60, 0, 0, 158.0996704101562
61, 0, 0, 158.3013610839844
62, 0, 0, 163.5590667724609
63, 0, 0, 163.0955657958984
64, 0, 0, 165.7835540771484
65, 0, 0, 170.5882415771484
66, 0, 0, 170.5056762695312
67, 0, 0, 172.5482177734375
68, 0, 0, 178.7578277587891
69, 0, 0, 179.3953094482422
70, 0, 0, 184.4505767822266
71, 0, 0, 188.0621948242188
72, 0, 0, 192.1178436279297
73, 0, 0, 196.8446197509766
74, 0, 0, 199.2336120605469
75, 0, 0, 206.3424530029297
76, 0, 0, 209.6507568359375
77, 0, 0, 216.871337890625
78, 0, 0, 222.2850799560547
79, 0, 0, 226.2542419433594
80, 0, 0, 239.2842864990234
81, 0, 0, 251.4272613525391
82, 0, 0, 254.325439453125
83, 0, 0, 266.8687133789062
84, 0, 0, 281.9671020507812
85, 0, 0, 297.7252807617188
86, 0, 0, 321.8645324707031
87, 0, 0, 350.5395202636719
88, 0, 0, 383.1964416503906
89, 0, 0, 438.1677856445312
90, 0, 0, 506.6032409667969
91, 0, 0, 568.6776123046875
92, 0, 0, 535.2824096679688
93, 0, 0, 408.3433837890625
94, 0, 0, 155.5926055908203
95, 0, 0, 41.67493438720703
96, 0, 0, 15.19133186340332
97, 0, 0, 6.130740165710449
98, 0, 0, 0
99, 0, 0, 0
100, 0, 0, 0
101, 0, 0, 0
102, 0, 0, 0
103, 0, 0, 0
104, 0, 0, 0
105, 0, 0, 0
106, 0, 0, 0
107, 0, 0, 0
108, 0, 0, 0
109, 0, 0, 0
110, 0, 0, 0
111, 0, 0, 0
112, 0, 0, 0
113, 0, 0, 0
114, 0, 0, 0
115, 0, 0, 0
116, 0, 0, 0
117, 0, 0, 0
118, 0, 0, 0
119, 0, 0, 0.1149606257677078
120, 0, 0, 0
121, 0, 0, 0
122, 0, 0, 0
123, 0, 0, 0
124, 0, 0, 0
125, 0, 0, 0
126, 0, 0, 0
127, 0, 0, 0
128, 0, 0, 0
129, 0, 0, 0
130, 0, 0, 0
131, 0, 0, 0
132, 0, 0, 0
133, 0, 0, 0
134, 0, 0, 0
135, 0, 0, 0
136, 0, 0, 0
137, 0, 0, 0
138, 0, 0, 0
139, 0, 0, 0
140, 0, 0, 0
141, 0, 0, 0
142, 0, 0, 0
143, 0, 0, 0
144, 0, 0, 0
145, 0, 0, 0
146, 0, 0, 0
147, 0, 0, 0
148, 0, 0, 0
149, 0, 0, 0
150, 0, 0, 0
151, 0, 0, 0
152, 0, 0, 0
153, 0, 0, 0
154, 0, 0, 0
155, 0, 0, 0
156, 0, 0, 0
157, 0, 0, 0
158, 0, 0, 0
159, 0, 0, 0
160, 0, 0, 0
161, 0, 0, 0
162, 0, 0, 0
163, 0, 0, 0
164, 0, 0, 0
165, 0, 0, 0
166, 0, 0, 0
167, 0, 0, 0
168, 0, 0, 0
169, 0, 0, 0
170, 0, 0, 0
171, 0, 0, 0
172, 0, 0, 0
173, 0, 0, 0
174, 0, 0, 0
175, 0, 0, 0
176, 0, 0, 0
177, 0, 0, 0
178, 0, 0, 0
179, 0, 0, 0
