# TOPAS Version: 3.3.p1
# Parameter File: Simple_Pattern.txt
# Results for scorer MLIC_Scorer
# Scored in component: MLIC
# X in 180 bins of 0.222222 cm
# Y in 1 bin  of 10 cm
# Z in 1 bin  of 10 cm
# EnergyDeposit ( MeV ) : Sum   
0, 0, 0, 39.61716461181641
1, 0, 0, 40.8702507019043
2, 0, 0, 38.68610763549805
3, 0, 0, 39.89245986938477
4, 0, 0, 41.01609802246094
5, 0, 0, 40.47635650634766
6, 0, 0, 40.62921524047852
7, 0, 0, 41.81693649291992
8, 0, 0, 41.2180061340332
9, 0, 0, 41.04635620117188
10, 0, 0, 41.63262176513672
11, 0, 0, 42.23872756958008
12, 0, 0, 44.39991760253906
13, 0, 0, 44.43370056152344
14, 0, 0, 42.29274749755859
15, 0, 0, 44.22730255126953
16, 0, 0, 42.07444381713867
17, 0, 0, 44.79315185546875
18, 0, 0, 42.93777084350586
19, 0, 0, 44.33774185180664
20, 0, 0, 43.40393829345703
21, 0, 0, 43.23910522460938
22, 0, 0, 44.19361114501953
23, 0, 0, 46.02142333984375
24, 0, 0, 43.06706237792969
25, 0, 0, 45.4757194519043
26, 0, 0, 44.14116668701172
27, 0, 0, 46.723388671875
28, 0, 0, 44.38354873657227
29, 0, 0, 44.85103225708008
30, 0, 0, 46.01185989379883
31, 0, 0, 46.37637329101562
32, 0, 0, 45.24067306518555
33, 0, 0, 45.68381118774414
34, 0, 0, 45.01259613037109
35, 0, 0, 47.2596321105957
36, 0, 0, 45.78477096557617
37, 0, 0, 48.08653259277344
38, 0, 0, 46.89090728759766
39, 0, 0, 46.34566497802734
40, 0, 0, 47.44536590576172
41, 0, 0, 48.58184814453125
42, 0, 0, 48.53487396240234
43, 0, 0, 48.39705276489258
44, 0, 0, 48.17914581298828
45, 0, 0, 48.74142456054688
46, 0, 0, 49.01399612426758
47, 0, 0, 50.45409774780273
48, 0, 0, 49.99466705322266
49, 0, 0, 47.56514739990234
50, 0, 0, 49.33349227905273
51, 0, 0, 49.09493637084961
52, 0, 0, 50.07351303100586
53, 0, 0, 51.08220672607422
54, 0, 0, 51.44988632202148
55, 0, 0, 52.69051742553711
56, 0, 0, 51.3902702331543
57, 0, 0, 52.37587356567383
58, 0, 0, 50.61951065063477
59, 0, 0, 52.66840744018555
60, 0, 0, 52.32092666625977
61, 0, 0, 54.57667922973633
62, 0, 0, 54.06162643432617
63, 0, 0, 54.9726448059082
64, 0, 0, 54.8927001953125
65, 0, 0, 56.17416763305664
66, 0, 0, 56.31607055664062
67, 0, 0, 57.24023056030273
68, 0, 0, 59.08375549316406
69, 0, 0, 58.08316040039062
70, 0, 0, 60.80011367797852
71, 0, 0, 62.0949821472168
72, 0, 0, 63.51323318481445
73, 0, 0, 64.90558624267578
74, 0, 0, 66.57241058349609
75, 0, 0, 69.13396453857422
76, 0, 0, 67.80384826660156
77, 0, 0, 72.38999938964844
78, 0, 0, 72.63491821289062
79, 0, 0, 73.70362854003906
80, 0, 0, 79.039306640625
81, 0, 0, 80.42335510253906
82, 0, 0, 82.97004699707031
83, 0, 0, 85.56645965576172
84, 0, 0, 90.74388885498047
85, 0, 0, 96.55903625488281
86, 0, 0, 103.2393493652344
87, 0, 0, 112.2843170166016
88, 0, 0, 124.2483291625977
89, 0, 0, 145.9371490478516
90, 0, 0, 180.8738708496094
91, 0, 0, 192.9410095214844
92, 0, 0, 172.3653717041016
93, 0, 0, 102.6100769042969
94, 0, 0, 45.42626190185547
95, 0, 0, 27.67915725708008
96, 0, 0, 3.954325437545776
97, 0, 0, 0
98, 0, 0, 0
99, 0, 0, 0
100, 0, 0, 0
101, 0, 0, 0
102, 0, 0, 0
103, 0, 0, 0
104, 0, 0, 0
105, 0, 0, 0
106, 0, 0, 0
107, 0, 0, 0
108, 0, 0, 0
109, 0, 0, 0
110, 0, 0, 0
111, 0, 0, 0
112, 0, 0, 0
113, 0, 0, 0
114, 0, 0, 0
115, 0, 0, 0
116, 0, 0, 0
117, 0, 0, 0
118, 0, 0, 0
119, 0, 0, 0
120, 0, 0, 0
121, 0, 0, 0
122, 0, 0, 0
123, 0, 0, 0
124, 0, 0, 0
125, 0, 0, 0
126, 0, 0, 0
127, 0, 0, 0
128, 0, 0, 0
129, 0, 0, 0
130, 0, 0, 0
131, 0, 0, 0
132, 0, 0, 0
133, 0, 0, 0
134, 0, 0, 0
135, 0, 0, 0
136, 0, 0, 0
137, 0, 0, 0
138, 0, 0, 0
139, 0, 0, 0
140, 0, 0, 0
141, 0, 0, 0
142, 0, 0, 0
143, 0, 0, 0
144, 0, 0, 0
145, 0, 0, 0
146, 0, 0, 0
147, 0, 0, 0
148, 0, 0, 0
149, 0, 0, 0
150, 0, 0, 0
151, 0, 0, 0
152, 0, 0, 0
153, 0, 0, 0
154, 0, 0, 0
155, 0, 0, 0
156, 0, 0, 0
157, 0, 0, 0
158, 0, 0, 0
159, 0, 0, 0
160, 0, 0, 0
161, 0, 0, 0
162, 0, 0, 0
163, 0, 0, 0
164, 0, 0, 0
165, 0, 0, 0
166, 0, 0, 0
167, 0, 0, 0
168, 0, 0, 0
169, 0, 0, 0
170, 0, 0, 0
171, 0, 0, 0
172, 0, 0, 0
173, 0, 0, 0
174, 0, 0, 0
175, 0, 0, 0
176, 0, 0, 0
177, 0, 0, 0
178, 0, 0, 0
179, 0, 0, 0
