# TOPAS Version: 3.3.p1
# Parameter File: Simple_Pattern.txt
# Results for scorer MLIC_Scorer
# Scored in component: MLIC
# X in 180 bins of 0.222222 cm
# Y in 1 bin  of 10 cm
# Z in 1 bin  of 10 cm
# EnergyDeposit ( MeV ) : Sum   
0, 0, 0, 1079.005004882812
1, 0, 0, 1093.12158203125
2, 0, 0, 1092.391723632812
3, 0, 0, 1105.867065429688
4, 0, 0, 1099.7822265625
5, 0, 0, 1108.622802734375
6, 0, 0, 1108.633544921875
7, 0, 0, 1112.523803710938
8, 0, 0, 1125.068603515625
9, 0, 0, 1127.62939453125
10, 0, 0, 1131.380249023438
11, 0, 0, 1134.242431640625
12, 0, 0, 1136.644165039062
13, 0, 0, 1147.495361328125
14, 0, 0, 1148.30126953125
15, 0, 0, 1151.0380859375
16, 0, 0, 1146.252075195312
17, 0, 0, 1154.468872070312
18, 0, 0, 1163.814819335938
19, 0, 0, 1172.195922851562
20, 0, 0, 1172.7431640625
21, 0, 0, 1180.034423828125
22, 0, 0, 1173.65966796875
23, 0, 0, 1188.299072265625
24, 0, 0, 1192.21826171875
25, 0, 0, 1191.480224609375
26, 0, 0, 1192.422241210938
27, 0, 0, 1208.451171875
28, 0, 0, 1209.801391601562
29, 0, 0, 1220.439331054688
30, 0, 0, 1223.257568359375
31, 0, 0, 1219.3564453125
32, 0, 0, 1225.60400390625
33, 0, 0, 1231.273681640625
34, 0, 0, 1226.99560546875
35, 0, 0, 1235.823974609375
36, 0, 0, 1246.444458007812
37, 0, 0, 1250.808837890625
38, 0, 0, 1254.251708984375
39, 0, 0, 1256.356689453125
40, 0, 0, 1265.889892578125
41, 0, 0, 1267.478515625
42, 0, 0, 1275.347290039062
43, 0, 0, 1279.6552734375
44, 0, 0, 1282.9287109375
45, 0, 0, 1292.64794921875
46, 0, 0, 1305.036743164062
47, 0, 0, 1305.388305664062
48, 0, 0, 1318.408569335938
49, 0, 0, 1319.705810546875
50, 0, 0, 1327.696533203125
51, 0, 0, 1338.718627929688
52, 0, 0, 1352.724731445312
53, 0, 0, 1358.526977539062
54, 0, 0, 1362.255615234375
55, 0, 0, 1365.935668945312
56, 0, 0, 1388.471923828125
57, 0, 0, 1381.103271484375
58, 0, 0, 1402.570434570312
59, 0, 0, 1411.308349609375
60, 0, 0, 1422.4921875
61, 0, 0, 1430.447509765625
62, 0, 0, 1430.118408203125
63, 0, 0, 1444.312744140625
64, 0, 0, 1460.135864257812
65, 0, 0, 1477.027465820312
66, 0, 0, 1486.152954101562
67, 0, 0, 1504.733154296875
68, 0, 0, 1524.212646484375
69, 0, 0, 1542.467895507812
70, 0, 0, 1568.174926757812
71, 0, 0, 1582.32763671875
72, 0, 0, 1606.991821289062
73, 0, 0, 1634.3544921875
74, 0, 0, 1669.985961914062
75, 0, 0, 1706.601196289062
76, 0, 0, 1737.485107421875
77, 0, 0, 1776.912109375
78, 0, 0, 1822.538696289062
79, 0, 0, 1873.65869140625
80, 0, 0, 1925.479248046875
81, 0, 0, 1992.109375
82, 0, 0, 2060.9716796875
83, 0, 0, 2145.939453125
84, 0, 0, 2241.34228515625
85, 0, 0, 2336.596435546875
86, 0, 0, 2480.545654296875
87, 0, 0, 2681.1533203125
88, 0, 0, 2988.082763671875
89, 0, 0, 3415.917236328125
90, 0, 0, 3994.419921875
91, 0, 0, 4352.25537109375
92, 0, 0, 4095.406494140625
93, 0, 0, 3033.367919921875
94, 0, 0, 1589.584228515625
95, 0, 0, 345.7351989746094
96, 0, 0, 79.44572448730469
97, 0, 0, 3.769628047943115
98, 0, 0, 0
99, 0, 0, 0.03840877115726471
100, 0, 0, 0.06880100071430206
101, 0, 0, 0
102, 0, 0, 0.04052666574716568
103, 0, 0, 0.007587443571537733
104, 0, 0, 0
105, 0, 0, 0.02689583972096443
106, 0, 0, 0.04308294132351875
107, 0, 0, 0
108, 0, 0, 0
109, 0, 0, 0
110, 0, 0, 0
111, 0, 0, 0.04136328026652336
112, 0, 0, 0
113, 0, 0, 0.005342103075236082
114, 0, 0, 0.01904002018272877
115, 0, 0, 0.03018177859485149
116, 0, 0, 0
117, 0, 0, 0.07065773010253906
118, 0, 0, 0.003772844793274999
119, 0, 0, 0
120, 0, 0, 0.0169781856238842
121, 0, 0, 0.06776207685470581
122, 0, 0, 0.01359167043119669
123, 0, 0, 0.007256796117872
124, 0, 0, 0
125, 0, 0, 0.1172123923897743
126, 0, 0, 0.1034413427114487
127, 0, 0, 0.04496294632554054
128, 0, 0, 0.0718621239066124
129, 0, 0, 0
130, 0, 0, 0
131, 0, 0, 0.1015979424118996
132, 0, 0, 0
133, 0, 0, 0
134, 0, 0, 0
135, 0, 0, 0.06518853455781937
136, 0, 0, 0.0845128521323204
137, 0, 0, 0
138, 0, 0, 0
139, 0, 0, 0.001086055301129818
140, 0, 0, 0
141, 0, 0, 0
142, 0, 0, 0
143, 0, 0, 0.02158928848803043
144, 0, 0, 0
145, 0, 0, 0
146, 0, 0, 0
147, 0, 0, 0
148, 0, 0, 0.006583165843039751
149, 0, 0, 0.003365176264196634
150, 0, 0, 0
151, 0, 0, 0.1149736940860748
152, 0, 0, 0
153, 0, 0, 0
154, 0, 0, 0.02786899730563164
155, 0, 0, 0
156, 0, 0, 0
157, 0, 0, 0
158, 0, 0, 0
159, 0, 0, 0.003920442890375853
160, 0, 0, 0.006788664031773806
161, 0, 0, 0
162, 0, 0, 0
163, 0, 0, 0.05598315969109535
164, 0, 0, 0.009807799942791462
165, 0, 0, 0
166, 0, 0, 0
167, 0, 0, 0
168, 0, 0, 0
169, 0, 0, 0.05284357815980911
170, 0, 0, 0
171, 0, 0, 0.04900642856955528
172, 0, 0, 0.03068253584206104
173, 0, 0, 0
174, 0, 0, 0
175, 0, 0, 0
176, 0, 0, 0.02009579353034496
177, 0, 0, 0
178, 0, 0, 0
179, 0, 0, 0
