# TOPAS Version: 3.3.p1
# Parameter File: Simple_Pattern.txt
# Results for scorer MLIC_Scorer
# Scored in component: MLIC
# X in 180 bins of 0.222222 cm
# Y in 1 bin  of 10 cm
# Z in 1 bin  of 10 cm
# EnergyDeposit ( MeV ) : Sum   
0, 0, 0, 1080.589599609375
1, 0, 0, 1095.943481445312
2, 0, 0, 1095.48388671875
3, 0, 0, 1099.71875
4, 0, 0, 1097.4287109375
5, 0, 0, 1109.754760742188
6, 0, 0, 1120.634521484375
7, 0, 0, 1119.752563476562
8, 0, 0, 1118.922485351562
9, 0, 0, 1116.450073242188
10, 0, 0, 1131.6708984375
11, 0, 0, 1136.648193359375
12, 0, 0, 1141.104125976562
13, 0, 0, 1135.663208007812
14, 0, 0, 1153.347045898438
15, 0, 0, 1161.262329101562
16, 0, 0, 1168.40283203125
17, 0, 0, 1170.485717773438
18, 0, 0, 1178.9140625
19, 0, 0, 1187.591552734375
20, 0, 0, 1192.881103515625
21, 0, 0, 1198.48193359375
22, 0, 0, 1202.7744140625
23, 0, 0, 1204.677734375
24, 0, 0, 1220.571044921875
25, 0, 0, 1235.088256835938
26, 0, 0, 1230.673583984375
27, 0, 0, 1237.583862304688
28, 0, 0, 1252.368286132812
29, 0, 0, 1256.787231445312
30, 0, 0, 1257.639526367188
31, 0, 0, 1275.354614257812
32, 0, 0, 1278.305908203125
33, 0, 0, 1288.517211914062
34, 0, 0, 1291.823852539062
35, 0, 0, 1293.39208984375
36, 0, 0, 1320.0517578125
37, 0, 0, 1329.014526367188
38, 0, 0, 1329.057373046875
39, 0, 0, 1339.212524414062
40, 0, 0, 1339.707641601562
41, 0, 0, 1368.357788085938
42, 0, 0, 1377.762329101562
43, 0, 0, 1386.016967773438
44, 0, 0, 1399.616577148438
45, 0, 0, 1406.392578125
46, 0, 0, 1423.001342773438
47, 0, 0, 1437.052124023438
48, 0, 0, 1448.276611328125
49, 0, 0, 1456.701904296875
50, 0, 0, 1471.646850585938
51, 0, 0, 1488.150512695312
52, 0, 0, 1506.626831054688
53, 0, 0, 1529.585815429688
54, 0, 0, 1526.753173828125
55, 0, 0, 1554.223754882812
56, 0, 0, 1576.937377929688
57, 0, 0, 1580.75048828125
58, 0, 0, 1609.005859375
59, 0, 0, 1632.808715820312
60, 0, 0, 1643.438110351562
61, 0, 0, 1665.394897460938
62, 0, 0, 1688.352172851562
63, 0, 0, 1718.962158203125
64, 0, 0, 1739.888671875
65, 0, 0, 1766.65771484375
66, 0, 0, 1790.620239257812
67, 0, 0, 1830.667846679688
68, 0, 0, 1845.488159179688
69, 0, 0, 1891.662231445312
70, 0, 0, 1921.927856445312
71, 0, 0, 1949.687622070312
72, 0, 0, 1998.12158203125
73, 0, 0, 2048.64794921875
74, 0, 0, 2083.93017578125
75, 0, 0, 2125.72607421875
76, 0, 0, 2181.432373046875
77, 0, 0, 2236.6279296875
78, 0, 0, 2302.287353515625
79, 0, 0, 2372.881591796875
80, 0, 0, 2446.111083984375
81, 0, 0, 2537.334228515625
82, 0, 0, 2644.5419921875
83, 0, 0, 2760.4501953125
84, 0, 0, 2894.817626953125
85, 0, 0, 3066.390380859375
86, 0, 0, 3269.07421875
87, 0, 0, 3539.231689453125
88, 0, 0, 3922.485595703125
89, 0, 0, 4484.41552734375
90, 0, 0, 5271.39453125
91, 0, 0, 6085.43310546875
92, 0, 0, 5782.24462890625
93, 0, 0, 4371.6162109375
94, 0, 0, 2395.10302734375
95, 0, 0, 741.8035888671875
96, 0, 0, 100.7534027099609
97, 0, 0, 10.06800746917725
98, 0, 0, 0.003646372584626079
99, 0, 0, 0.003248788416385651
100, 0, 0, 0
101, 0, 0, 0
102, 0, 0, 0.05121307075023651
103, 0, 0, 0
104, 0, 0, 0
105, 0, 0, 0
106, 0, 0, 0
107, 0, 0, 0
108, 0, 0, 0
109, 0, 0, 0
110, 0, 0, 0
111, 0, 0, 0.03270746394991875
112, 0, 0, 0
113, 0, 0, 0
114, 0, 0, 0.005108510609716177
115, 0, 0, 0
116, 0, 0, 0
117, 0, 0, 0
118, 0, 0, 0
119, 0, 0, 0
120, 0, 0, 0
121, 0, 0, 0
122, 0, 0, 0
123, 0, 0, 0
124, 0, 0, 0.0892254114151001
125, 0, 0, 0
126, 0, 0, 0
127, 0, 0, 0
128, 0, 0, 0
129, 0, 0, 0
130, 0, 0, 0
131, 0, 0, 0
132, 0, 0, 0
133, 0, 0, 0
134, 0, 0, 0
135, 0, 0, 0
136, 0, 0, 0
137, 0, 0, 0
138, 0, 0, 0
139, 0, 0, 0
140, 0, 0, 0
141, 0, 0, 0
142, 0, 0, 0
143, 0, 0, 0
144, 0, 0, 0
145, 0, 0, 0
146, 0, 0, 0
147, 0, 0, 0
148, 0, 0, 0
149, 0, 0, 0
150, 0, 0, 0
151, 0, 0, 0
152, 0, 0, 0
153, 0, 0, 0
154, 0, 0, 0
155, 0, 0, 0
156, 0, 0, 0
157, 0, 0, 0
158, 0, 0, 0
159, 0, 0, 0
160, 0, 0, 0
161, 0, 0, 0
162, 0, 0, 0
163, 0, 0, 0
164, 0, 0, 0
165, 0, 0, 0
166, 0, 0, 0
167, 0, 0, 0
168, 0, 0, 0
169, 0, 0, 0
170, 0, 0, 0
171, 0, 0, 0
172, 0, 0, 0
173, 0, 0, 0
174, 0, 0, 0
175, 0, 0, 0
176, 0, 0, 0
177, 0, 0, 0
178, 0, 0, 0
179, 0, 0, 0
