# TOPAS Version: 3.3.p1
# Parameter File: Simple_Pattern.txt
# Results for scorer MLIC_Scorer
# Scored in component: MLIC
# X in 180 bins of 0.222222 cm
# Y in 1 bin  of 10 cm
# Z in 1 bin  of 10 cm
# EnergyDeposit ( MeV ) : Sum   
0, 0, 0, 45.18499374389648
1, 0, 0, 47.72655868530273
2, 0, 0, 45.54559326171875
3, 0, 0, 45.8676872253418
4, 0, 0, 47.82838439941406
5, 0, 0, 45.85475540161133
6, 0, 0, 47.91962051391602
7, 0, 0, 47.49338531494141
8, 0, 0, 48.36927032470703
9, 0, 0, 49.68971633911133
10, 0, 0, 48.97861862182617
11, 0, 0, 47.89113998413086
12, 0, 0, 51.58074951171875
13, 0, 0, 48.4805793762207
14, 0, 0, 49.09356307983398
15, 0, 0, 49.18595886230469
16, 0, 0, 52.34506607055664
17, 0, 0, 49.77952575683594
18, 0, 0, 51.75149917602539
19, 0, 0, 50.82777404785156
20, 0, 0, 53.02382278442383
21, 0, 0, 51.72157669067383
22, 0, 0, 51.25104522705078
23, 0, 0, 52.77595520019531
24, 0, 0, 53.12604522705078
25, 0, 0, 53.76765823364258
26, 0, 0, 55.43159866333008
27, 0, 0, 53.60372924804688
28, 0, 0, 54.1322135925293
29, 0, 0, 54.7156867980957
30, 0, 0, 53.42657089233398
31, 0, 0, 55.88679122924805
32, 0, 0, 55.42815780639648
33, 0, 0, 56.59321975708008
34, 0, 0, 56.33256530761719
35, 0, 0, 58.03778839111328
36, 0, 0, 58.77997207641602
37, 0, 0, 58.5719108581543
38, 0, 0, 58.61430358886719
39, 0, 0, 59.77395629882812
40, 0, 0, 60.56502151489258
41, 0, 0, 61.42235946655273
42, 0, 0, 62.04762649536133
43, 0, 0, 61.77006530761719
44, 0, 0, 63.96926879882812
45, 0, 0, 64.33273315429688
46, 0, 0, 64.87380981445312
47, 0, 0, 67.20248413085938
48, 0, 0, 66.65747833251953
49, 0, 0, 66.99052429199219
50, 0, 0, 68.79421234130859
51, 0, 0, 69.87148284912109
52, 0, 0, 70.99436950683594
53, 0, 0, 73.55972290039062
54, 0, 0, 73.71878051757812
55, 0, 0, 73.03410339355469
56, 0, 0, 75.34175872802734
57, 0, 0, 77.53775787353516
58, 0, 0, 78.60568237304688
59, 0, 0, 81.69216156005859
60, 0, 0, 83.61298370361328
61, 0, 0, 84.44407653808594
62, 0, 0, 84.08588409423828
63, 0, 0, 88.059814453125
64, 0, 0, 88.95154571533203
65, 0, 0, 91.44649505615234
66, 0, 0, 94.96430969238281
67, 0, 0, 98.61772918701172
68, 0, 0, 102.6836700439453
69, 0, 0, 107.6157455444336
70, 0, 0, 111.2164306640625
71, 0, 0, 116.9235076904297
72, 0, 0, 122.7397003173828
73, 0, 0, 132.0918121337891
74, 0, 0, 141.0420684814453
75, 0, 0, 156.9232788085938
76, 0, 0, 182.0420074462891
77, 0, 0, 215.036376953125
78, 0, 0, 234.4965209960938
79, 0, 0, 235.6370849609375
80, 0, 0, 181.9197540283203
81, 0, 0, 120.9811477661133
82, 0, 0, 77.32729339599609
83, 0, 0, 11.57173728942871
84, 0, 0, 2.749568700790405
85, 0, 0, 0
86, 0, 0, 0
87, 0, 0, 0
88, 0, 0, 0
89, 0, 0, 0
90, 0, 0, 0
91, 0, 0, 0
92, 0, 0, 0
93, 0, 0, 0
94, 0, 0, 0
95, 0, 0, 0
96, 0, 0, 0
97, 0, 0, 0
98, 0, 0, 0
99, 0, 0, 0
100, 0, 0, 0
101, 0, 0, 0
102, 0, 0, 0
103, 0, 0, 0
104, 0, 0, 0
105, 0, 0, 0
106, 0, 0, 0
107, 0, 0, 0
108, 0, 0, 0
109, 0, 0, 0
110, 0, 0, 0
111, 0, 0, 0
112, 0, 0, 0
113, 0, 0, 0
114, 0, 0, 0
115, 0, 0, 0
116, 0, 0, 0
117, 0, 0, 0
118, 0, 0, 0
119, 0, 0, 0
120, 0, 0, 0
121, 0, 0, 0
122, 0, 0, 0
123, 0, 0, 0
124, 0, 0, 0
125, 0, 0, 0
126, 0, 0, 0
127, 0, 0, 0
128, 0, 0, 0
129, 0, 0, 0
130, 0, 0, 0
131, 0, 0, 0
132, 0, 0, 0
133, 0, 0, 0
134, 0, 0, 0
135, 0, 0, 0
136, 0, 0, 0
137, 0, 0, 0
138, 0, 0, 0
139, 0, 0, 0
140, 0, 0, 0
141, 0, 0, 0
142, 0, 0, 0
143, 0, 0, 0
144, 0, 0, 0
145, 0, 0, 0
146, 0, 0, 0
147, 0, 0, 0
148, 0, 0, 0
149, 0, 0, 0
150, 0, 0, 0
151, 0, 0, 0
152, 0, 0, 0
153, 0, 0, 0
154, 0, 0, 0
155, 0, 0, 0
156, 0, 0, 0
157, 0, 0, 0
158, 0, 0, 0
159, 0, 0, 0
160, 0, 0, 0
161, 0, 0, 0
162, 0, 0, 0
163, 0, 0, 0
164, 0, 0, 0
165, 0, 0, 0
166, 0, 0, 0
167, 0, 0, 0
168, 0, 0, 0
169, 0, 0, 0
170, 0, 0, 0
171, 0, 0, 0
172, 0, 0, 0
173, 0, 0, 0
174, 0, 0, 0
175, 0, 0, 0
176, 0, 0, 0
177, 0, 0, 0
178, 0, 0, 0
179, 0, 0, 0
