# TOPAS Version: 3.3.p1
# Parameter File: Simple_Pattern.txt
# Results for scorer MLIC_Scorer
# Scored in component: MLIC
# X in 180 bins of 0.222222 cm
# Y in 1 bin  of 10 cm
# Z in 1 bin  of 10 cm
# EnergyDeposit ( MeV ) : Sum   
0, 0, 0, 36.18423080444336
1, 0, 0, 35.89504241943359
2, 0, 0, 35.04019927978516
3, 0, 0, 36.46036529541016
4, 0, 0, 35.36867141723633
5, 0, 0, 35.82461166381836
6, 0, 0, 35.31132888793945
7, 0, 0, 36.83344650268555
8, 0, 0, 35.92463302612305
9, 0, 0, 37.02761840820312
10, 0, 0, 37.69339370727539
11, 0, 0, 36.07942199707031
12, 0, 0, 36.46490478515625
13, 0, 0, 36.79504776000977
14, 0, 0, 36.28018569946289
15, 0, 0, 36.08151245117188
16, 0, 0, 38.0145149230957
17, 0, 0, 40.65957641601562
18, 0, 0, 38.24481964111328
19, 0, 0, 38.82666778564453
20, 0, 0, 39.54115676879883
21, 0, 0, 40.4066276550293
22, 0, 0, 38.51395034790039
23, 0, 0, 39.45938491821289
24, 0, 0, 39.26243591308594
25, 0, 0, 39.48087310791016
26, 0, 0, 39.83354187011719
27, 0, 0, 38.42466735839844
28, 0, 0, 39.46997833251953
29, 0, 0, 40.98686599731445
30, 0, 0, 40.96539688110352
31, 0, 0, 39.30226898193359
32, 0, 0, 41.89003372192383
33, 0, 0, 40.92375564575195
34, 0, 0, 41.13016510009766
35, 0, 0, 42.85988616943359
36, 0, 0, 42.1501350402832
37, 0, 0, 43.28189849853516
38, 0, 0, 43.36333465576172
39, 0, 0, 43.27709197998047
40, 0, 0, 43.82945251464844
41, 0, 0, 43.88583374023438
42, 0, 0, 43.54605484008789
43, 0, 0, 45.32609939575195
44, 0, 0, 45.8949089050293
45, 0, 0, 45.99599456787109
46, 0, 0, 46.2375373840332
47, 0, 0, 46.79654312133789
48, 0, 0, 45.70685195922852
49, 0, 0, 46.54610061645508
50, 0, 0, 46.38228225708008
51, 0, 0, 48.27305221557617
52, 0, 0, 49.47811889648438
53, 0, 0, 48.42592620849609
54, 0, 0, 50.82169342041016
55, 0, 0, 49.60181045532227
56, 0, 0, 51.14670944213867
57, 0, 0, 52.07165145874023
58, 0, 0, 52.48842620849609
59, 0, 0, 51.92985153198242
60, 0, 0, 52.40732574462891
61, 0, 0, 54.05128479003906
62, 0, 0, 55.91932678222656
63, 0, 0, 55.3748779296875
64, 0, 0, 56.00579833984375
65, 0, 0, 57.09101867675781
66, 0, 0, 57.68027114868164
67, 0, 0, 59.01224136352539
68, 0, 0, 60.90437698364258
69, 0, 0, 62.09849166870117
70, 0, 0, 63.74998092651367
71, 0, 0, 62.6255989074707
72, 0, 0, 65.82335662841797
73, 0, 0, 66.54917907714844
74, 0, 0, 68.94293212890625
75, 0, 0, 69.42892456054688
76, 0, 0, 71.13017272949219
77, 0, 0, 74.45177459716797
78, 0, 0, 75.20691680908203
79, 0, 0, 77.14435577392578
80, 0, 0, 81.52780151367188
81, 0, 0, 85.82028961181641
82, 0, 0, 85.91798400878906
83, 0, 0, 91.94236755371094
84, 0, 0, 96.44737243652344
85, 0, 0, 103.1408843994141
86, 0, 0, 109.6214141845703
87, 0, 0, 119.7434234619141
88, 0, 0, 134.4714965820312
89, 0, 0, 155.5448455810547
90, 0, 0, 182.7980804443359
91, 0, 0, 221.3721771240234
92, 0, 0, 198.9346008300781
93, 0, 0, 120.2237319946289
94, 0, 0, 35.75638580322266
95, 0, 0, 7.200547218322754
96, 0, 0, 0
97, 0, 0, 0
98, 0, 0, 0
99, 0, 0, 0
100, 0, 0, 0
101, 0, 0, 0
102, 0, 0, 0
103, 0, 0, 0
104, 0, 0, 0
105, 0, 0, 0
106, 0, 0, 0
107, 0, 0, 0
108, 0, 0, 0
109, 0, 0, 0
110, 0, 0, 0
111, 0, 0, 0
112, 0, 0, 0
113, 0, 0, 0
114, 0, 0, 0
115, 0, 0, 0
116, 0, 0, 0
117, 0, 0, 0
118, 0, 0, 0
119, 0, 0, 0
120, 0, 0, 0
121, 0, 0, 0
122, 0, 0, 0
123, 0, 0, 0
124, 0, 0, 0
125, 0, 0, 0
126, 0, 0, 0
127, 0, 0, 0
128, 0, 0, 0
129, 0, 0, 0
130, 0, 0, 0
131, 0, 0, 0
132, 0, 0, 0
133, 0, 0, 0
134, 0, 0, 0
135, 0, 0, 0
136, 0, 0, 0
137, 0, 0, 0
138, 0, 0, 0
139, 0, 0, 0
140, 0, 0, 0
141, 0, 0, 0
142, 0, 0, 0
143, 0, 0, 0
144, 0, 0, 0
145, 0, 0, 0
146, 0, 0, 0
147, 0, 0, 0
148, 0, 0, 0
149, 0, 0, 0
150, 0, 0, 0
151, 0, 0, 0
152, 0, 0, 0
153, 0, 0, 0
154, 0, 0, 0
155, 0, 0, 0
156, 0, 0, 0
157, 0, 0, 0
158, 0, 0, 0
159, 0, 0, 0
160, 0, 0, 0
161, 0, 0, 0
162, 0, 0, 0
163, 0, 0, 0
164, 0, 0, 0
165, 0, 0, 0
166, 0, 0, 0
167, 0, 0, 0
168, 0, 0, 0
169, 0, 0, 0
170, 0, 0, 0
171, 0, 0, 0
172, 0, 0, 0
173, 0, 0, 0
174, 0, 0, 0
175, 0, 0, 0
176, 0, 0, 0
177, 0, 0, 0
178, 0, 0, 0
179, 0, 0, 0
