# TOPAS Version: 3.3.p1
# Parameter File: Simple_Pattern.txt
# Results for scorer MLIC_Scorer
# Scored in component: MLIC
# X in 180 bins of 0.222222 cm
# Y in 1 bin  of 10 cm
# Z in 1 bin  of 10 cm
# EnergyDeposit ( MeV ) : Sum   
0, 0, 0, 1093.74609375
1, 0, 0, 1094.064697265625
2, 0, 0, 1096.489013671875
3, 0, 0, 1100.05322265625
4, 0, 0, 1107.651123046875
5, 0, 0, 1107.978271484375
6, 0, 0, 1115.566772460938
7, 0, 0, 1114.053833007812
8, 0, 0, 1123.87646484375
9, 0, 0, 1128.252197265625
10, 0, 0, 1129.946044921875
11, 0, 0, 1132.027465820312
12, 0, 0, 1148.111450195312
13, 0, 0, 1141.0673828125
14, 0, 0, 1151.243774414062
15, 0, 0, 1152.826904296875
16, 0, 0, 1151.691284179688
17, 0, 0, 1170.839721679688
18, 0, 0, 1165.41552734375
19, 0, 0, 1176.265014648438
20, 0, 0, 1174.0625
21, 0, 0, 1189.180541992188
22, 0, 0, 1183.831176757812
23, 0, 0, 1193.572265625
24, 0, 0, 1199.949829101562
25, 0, 0, 1203.958251953125
26, 0, 0, 1213.342407226562
27, 0, 0, 1212.377319335938
28, 0, 0, 1208.472290039062
29, 0, 0, 1220.341918945312
30, 0, 0, 1229.90673828125
31, 0, 0, 1230.09033203125
32, 0, 0, 1227.776977539062
33, 0, 0, 1233.826171875
34, 0, 0, 1244.3486328125
35, 0, 0, 1242.303100585938
36, 0, 0, 1242.458984375
37, 0, 0, 1256.197875976562
38, 0, 0, 1258.938842773438
39, 0, 0, 1261.8486328125
40, 0, 0, 1270.717163085938
41, 0, 0, 1278.90673828125
42, 0, 0, 1281.23974609375
43, 0, 0, 1283.328125
44, 0, 0, 1301.307861328125
45, 0, 0, 1296.870361328125
46, 0, 0, 1308.843627929688
47, 0, 0, 1316.647216796875
48, 0, 0, 1327.760864257812
49, 0, 0, 1326.694213867188
50, 0, 0, 1345.094604492188
51, 0, 0, 1344.30224609375
52, 0, 0, 1355.212524414062
53, 0, 0, 1364.216918945312
54, 0, 0, 1376.974487304688
55, 0, 0, 1372.7197265625
56, 0, 0, 1391.028076171875
57, 0, 0, 1403.415893554688
58, 0, 0, 1399.291748046875
59, 0, 0, 1414.447021484375
60, 0, 0, 1433.570678710938
61, 0, 0, 1443.67138671875
62, 0, 0, 1456.528076171875
63, 0, 0, 1468.182495117188
64, 0, 0, 1489.930297851562
65, 0, 0, 1504.580322265625
66, 0, 0, 1523.017578125
67, 0, 0, 1540.592041015625
68, 0, 0, 1561.23486328125
69, 0, 0, 1580.709716796875
70, 0, 0, 1605.345825195312
71, 0, 0, 1630.342041015625
72, 0, 0, 1663.399169921875
73, 0, 0, 1685.809814453125
74, 0, 0, 1729.887451171875
75, 0, 0, 1763.308471679688
76, 0, 0, 1799.181762695312
77, 0, 0, 1834.640380859375
78, 0, 0, 1888.111694335938
79, 0, 0, 1936.54248046875
80, 0, 0, 1991.526000976562
81, 0, 0, 2055.8037109375
82, 0, 0, 2141.346923828125
83, 0, 0, 2240.263916015625
84, 0, 0, 2336.993408203125
85, 0, 0, 2470.26416015625
86, 0, 0, 2641.340576171875
87, 0, 0, 2841.477294921875
88, 0, 0, 3142.413330078125
89, 0, 0, 3578.253662109375
90, 0, 0, 4285.85009765625
91, 0, 0, 4755.30029296875
92, 0, 0, 4643.98291015625
93, 0, 0, 3425.188720703125
94, 0, 0, 1762.757446289062
95, 0, 0, 475.7177429199219
96, 0, 0, 89.58290863037109
97, 0, 0, 0.06934164464473724
98, 0, 0, 0.00564310047775507
99, 0, 0, 0
100, 0, 0, 0.002243190305307508
101, 0, 0, 0.03469966351985931
102, 0, 0, 0
103, 0, 0, 0
104, 0, 0, 0.04386920109391212
105, 0, 0, 0
106, 0, 0, 0
107, 0, 0, 0
108, 0, 0, 0
109, 0, 0, 0.008752251043915749
110, 0, 0, 0
111, 0, 0, 0
112, 0, 0, 0.04500269889831543
113, 0, 0, 0.02703138254582882
114, 0, 0, 0
115, 0, 0, 0
116, 0, 0, 0.008153785020112991
117, 0, 0, 0.2246319353580475
118, 0, 0, 0.003065886907279491
119, 0, 0, 0
120, 0, 0, 0.07620768249034882
121, 0, 0, 0
122, 0, 0, 0
123, 0, 0, 0.0339304618537426
124, 0, 0, 0
125, 0, 0, 0
126, 0, 0, 0
127, 0, 0, 0.05250440537929535
128, 0, 0, 0
129, 0, 0, 0
130, 0, 0, 0
131, 0, 0, 0.01677210815250874
132, 0, 0, 0
133, 0, 0, 0.0114496061578393
134, 0, 0, 0
135, 0, 0, 0
136, 0, 0, 0.06240704655647278
137, 0, 0, 0
138, 0, 0, 0
139, 0, 0, 0
140, 0, 0, 0
141, 0, 0, 0
142, 0, 0, 0.0493658185005188
143, 0, 0, 0.002051703166216612
144, 0, 0, 0
145, 0, 0, 0
146, 0, 0, 0.03955239802598953
147, 0, 0, 0
148, 0, 0, 0
149, 0, 0, 0
150, 0, 0, 0
151, 0, 0, 0
152, 0, 0, 0
153, 0, 0, 0
154, 0, 0, 0
155, 0, 0, 0.03799339011311531
156, 0, 0, 0
157, 0, 0, 0
158, 0, 0, 0
159, 0, 0, 0.111104778945446
160, 0, 0, 0
161, 0, 0, 0.05434860289096832
162, 0, 0, 0
163, 0, 0, 0.01504294574260712
164, 0, 0, 0
165, 0, 0, 0.0075887655839324
166, 0, 0, 0
167, 0, 0, 0
168, 0, 0, 0
169, 0, 0, 0
170, 0, 0, 0.04090363904833794
171, 0, 0, 0
172, 0, 0, 0
173, 0, 0, 0
174, 0, 0, 0
175, 0, 0, 0
176, 0, 0, 0
177, 0, 0, 0.0391455665230751
178, 0, 0, 0
179, 0, 0, 0.01232994627207518
