# TOPAS Version: 3.3.p1
# Parameter File: Simple_Pattern.txt
# Results for scorer MLIC_Scorer
# Scored in component: MLIC
# X in 180 bins of 0.222222 cm
# Y in 1 bin  of 10 cm
# Z in 1 bin  of 10 cm
# EnergyDeposit ( MeV ) : Sum   
0, 0, 0, 1090.862915039062
1, 0, 0, 1082.53466796875
2, 0, 0, 1087.436401367188
3, 0, 0, 1091.948852539062
4, 0, 0, 1102.149536132812
5, 0, 0, 1108.988037109375
6, 0, 0, 1110.323852539062
7, 0, 0, 1118.439697265625
8, 0, 0, 1134.415405273438
9, 0, 0, 1133.392944335938
10, 0, 0, 1130.665161132812
11, 0, 0, 1138.088500976562
12, 0, 0, 1160.227294921875
13, 0, 0, 1154.232055664062
14, 0, 0, 1160.181762695312
15, 0, 0, 1162.019775390625
16, 0, 0, 1168.111206054688
17, 0, 0, 1174.345703125
18, 0, 0, 1182.869750976562
19, 0, 0, 1185.072631835938
20, 0, 0, 1191.0048828125
21, 0, 0, 1201.052124023438
22, 0, 0, 1198.636352539062
23, 0, 0, 1205.375854492188
24, 0, 0, 1228.282348632812
25, 0, 0, 1227.930297851562
26, 0, 0, 1237.185546875
27, 0, 0, 1241.160278320312
28, 0, 0, 1246.8251953125
29, 0, 0, 1252.960205078125
30, 0, 0, 1273.039916992188
31, 0, 0, 1281.83837890625
32, 0, 0, 1282.465698242188
33, 0, 0, 1296.367553710938
34, 0, 0, 1296.432983398438
35, 0, 0, 1310.620727539062
36, 0, 0, 1312.779174804688
37, 0, 0, 1323.3017578125
38, 0, 0, 1338.99365234375
39, 0, 0, 1339.979736328125
40, 0, 0, 1356.758056640625
41, 0, 0, 1366.6064453125
42, 0, 0, 1382.531982421875
43, 0, 0, 1388.508422851562
44, 0, 0, 1400.901733398438
45, 0, 0, 1417.998779296875
46, 0, 0, 1427.800048828125
47, 0, 0, 1442.19189453125
48, 0, 0, 1457.22119140625
49, 0, 0, 1464.639892578125
50, 0, 0, 1481.486206054688
51, 0, 0, 1487.345092773438
52, 0, 0, 1510.206909179688
53, 0, 0, 1525.68701171875
54, 0, 0, 1543.724365234375
55, 0, 0, 1554.16748046875
56, 0, 0, 1579.13818359375
57, 0, 0, 1599.898681640625
58, 0, 0, 1617.871826171875
59, 0, 0, 1636.574462890625
60, 0, 0, 1646.4560546875
61, 0, 0, 1667.857177734375
62, 0, 0, 1694.038452148438
63, 0, 0, 1711.381103515625
64, 0, 0, 1737.728393554688
65, 0, 0, 1757.824096679688
66, 0, 0, 1793.865112304688
67, 0, 0, 1830.356689453125
68, 0, 0, 1846.392333984375
69, 0, 0, 1888.221313476562
70, 0, 0, 1915.190063476562
71, 0, 0, 1958.131591796875
72, 0, 0, 2000.889404296875
73, 0, 0, 2032.46240234375
74, 0, 0, 2080.02099609375
75, 0, 0, 2142.356689453125
76, 0, 0, 2194.559814453125
77, 0, 0, 2248.85498046875
78, 0, 0, 2321.918701171875
79, 0, 0, 2385.90185546875
80, 0, 0, 2472.44140625
81, 0, 0, 2566.604248046875
82, 0, 0, 2669.34033203125
83, 0, 0, 2782.64111328125
84, 0, 0, 2923.832763671875
85, 0, 0, 3099.236328125
86, 0, 0, 3310.897705078125
87, 0, 0, 3604.701171875
88, 0, 0, 3993.762451171875
89, 0, 0, 4570.32373046875
90, 0, 0, 5300.818359375
91, 0, 0, 6132.1083984375
92, 0, 0, 5802.6884765625
93, 0, 0, 4402.43701171875
94, 0, 0, 2237.5751953125
95, 0, 0, 780.2116088867188
96, 0, 0, 203.44384765625
97, 0, 0, 3.613925695419312
98, 0, 0, 0
99, 0, 0, 0
100, 0, 0, 0
101, 0, 0, 0
102, 0, 0, 0
103, 0, 0, 0
104, 0, 0, 0.06469366699457169
105, 0, 0, 0
106, 0, 0, 0
107, 0, 0, 0.008331996388733387
108, 0, 0, 0
109, 0, 0, 0
110, 0, 0, 0
111, 0, 0, 0
112, 0, 0, 0
113, 0, 0, 0
114, 0, 0, 0
115, 0, 0, 0
116, 0, 0, 0
117, 0, 0, 0
118, 0, 0, 0
119, 0, 0, 0
120, 0, 0, 0
121, 0, 0, 0
122, 0, 0, 0
123, 0, 0, 0
124, 0, 0, 0
125, 0, 0, 0
126, 0, 0, 0
127, 0, 0, 0
128, 0, 0, 0
129, 0, 0, 0
130, 0, 0, 0
131, 0, 0, 0
132, 0, 0, 0
133, 0, 0, 0
134, 0, 0, 0
135, 0, 0, 0
136, 0, 0, 0
137, 0, 0, 0
138, 0, 0, 0
139, 0, 0, 0
140, 0, 0, 0
141, 0, 0, 0
142, 0, 0, 0
143, 0, 0, 0
144, 0, 0, 0
145, 0, 0, 0
146, 0, 0, 0
147, 0, 0, 0
148, 0, 0, 0
149, 0, 0, 0
150, 0, 0, 0
151, 0, 0, 0
152, 0, 0, 0
153, 0, 0, 0
154, 0, 0, 0
155, 0, 0, 0
156, 0, 0, 0
157, 0, 0, 0
158, 0, 0, 0
159, 0, 0, 0
160, 0, 0, 0
161, 0, 0, 0
162, 0, 0, 0
163, 0, 0, 0
164, 0, 0, 0
165, 0, 0, 0
166, 0, 0, 0
167, 0, 0, 0
168, 0, 0, 0
169, 0, 0, 0
170, 0, 0, 0
171, 0, 0, 0
172, 0, 0, 0
173, 0, 0, 0
174, 0, 0, 0
175, 0, 0, 0
176, 0, 0, 0
177, 0, 0, 0
178, 0, 0, 0
179, 0, 0, 0
