# TOPAS Version: 3.3.p1
# Parameter File: Simple_Pattern.txt
# Results for scorer MLIC_Scorer
# Scored in component: MLIC
# X in 180 bins of 0.222222 cm
# Y in 1 bin  of 10 cm
# Z in 1 bin  of 10 cm
# EnergyDeposit ( MeV ) : Sum   
0, 0, 0, 54.02053451538086
1, 0, 0, 54.56730651855469
2, 0, 0, 55.42825317382812
3, 0, 0, 53.29046630859375
4, 0, 0, 56.37260818481445
5, 0, 0, 54.42109680175781
6, 0, 0, 56.38019561767578
7, 0, 0, 54.22536468505859
8, 0, 0, 54.75921630859375
9, 0, 0, 58.23777389526367
10, 0, 0, 55.7066535949707
11, 0, 0, 58.11754608154297
12, 0, 0, 60.12519073486328
13, 0, 0, 58.38026809692383
14, 0, 0, 59.8835334777832
15, 0, 0, 58.29536056518555
16, 0, 0, 59.48728561401367
17, 0, 0, 59.22142028808594
18, 0, 0, 59.43815231323242
19, 0, 0, 57.89632797241211
20, 0, 0, 61.76341247558594
21, 0, 0, 62.67645645141602
22, 0, 0, 61.3405876159668
23, 0, 0, 61.66459274291992
24, 0, 0, 60.1171760559082
25, 0, 0, 61.50703048706055
26, 0, 0, 63.93237686157227
27, 0, 0, 62.7662467956543
28, 0, 0, 64.79682922363281
29, 0, 0, 65.34857177734375
30, 0, 0, 63.73219299316406
31, 0, 0, 64.8338623046875
32, 0, 0, 67.13914489746094
33, 0, 0, 67.03520202636719
34, 0, 0, 66.48915863037109
35, 0, 0, 68.58792114257812
36, 0, 0, 67.82950592041016
37, 0, 0, 70.44297790527344
38, 0, 0, 72.31756591796875
39, 0, 0, 71.81484985351562
40, 0, 0, 72.21939849853516
41, 0, 0, 70.57422637939453
42, 0, 0, 72.81988525390625
43, 0, 0, 75.60832214355469
44, 0, 0, 74.82452392578125
45, 0, 0, 75.30884552001953
46, 0, 0, 76.188232421875
47, 0, 0, 75.07018280029297
48, 0, 0, 77.74626159667969
49, 0, 0, 80.00056457519531
50, 0, 0, 80.82576751708984
51, 0, 0, 79.96603393554688
52, 0, 0, 81.83462524414062
53, 0, 0, 84.24803924560547
54, 0, 0, 85.75769805908203
55, 0, 0, 87.12693023681641
56, 0, 0, 88.56205749511719
57, 0, 0, 90.32688140869141
58, 0, 0, 91.15926361083984
59, 0, 0, 94.12425994873047
60, 0, 0, 95.70791625976562
61, 0, 0, 97.31166076660156
62, 0, 0, 100.118782043457
63, 0, 0, 103.8386077880859
64, 0, 0, 105.1225051879883
65, 0, 0, 108.4280395507812
66, 0, 0, 112.1764068603516
67, 0, 0, 116.1542129516602
68, 0, 0, 120.2721633911133
69, 0, 0, 126.1303024291992
70, 0, 0, 129.5288238525391
71, 0, 0, 135.4315338134766
72, 0, 0, 144.3157348632812
73, 0, 0, 154.3745269775391
74, 0, 0, 164.4751739501953
75, 0, 0, 181.0632171630859
76, 0, 0, 204.8126525878906
77, 0, 0, 243.5397491455078
78, 0, 0, 286.6130981445312
79, 0, 0, 320.8341369628906
80, 0, 0, 244.8397521972656
81, 0, 0, 110.6857986450195
82, 0, 0, 47.9738883972168
83, 0, 0, 10.1470890045166
84, 0, 0, 3.240549325942993
85, 0, 0, 3.43967342376709
86, 0, 0, 3.514130353927612
87, 0, 0, 4.410416603088379
88, 0, 0, 4.789872169494629
89, 0, 0, 6.008735656738281
90, 0, 0, 8.793184280395508
91, 0, 0, 7.716701507568359
92, 0, 0, 0
93, 0, 0, 0
94, 0, 0, 0
95, 0, 0, 0
96, 0, 0, 0
97, 0, 0, 0
98, 0, 0, 0
99, 0, 0, 0
100, 0, 0, 0
101, 0, 0, 0
102, 0, 0, 0
103, 0, 0, 0
104, 0, 0, 0
105, 0, 0, 0
106, 0, 0, 0
107, 0, 0, 0
108, 0, 0, 0
109, 0, 0, 0
110, 0, 0, 0
111, 0, 0, 0
112, 0, 0, 0
113, 0, 0, 0
114, 0, 0, 0
115, 0, 0, 0
116, 0, 0, 0
117, 0, 0, 0
118, 0, 0, 0
119, 0, 0, 0
120, 0, 0, 0
121, 0, 0, 0
122, 0, 0, 0
123, 0, 0, 0
124, 0, 0, 0
125, 0, 0, 0
126, 0, 0, 0
127, 0, 0, 0
128, 0, 0, 0
129, 0, 0, 0
130, 0, 0, 0
131, 0, 0, 0
132, 0, 0, 0
133, 0, 0, 0
134, 0, 0, 0
135, 0, 0, 0
136, 0, 0, 0
137, 0, 0, 0
138, 0, 0, 0
139, 0, 0, 0
140, 0, 0, 0
141, 0, 0, 0
142, 0, 0, 0
143, 0, 0, 0
144, 0, 0, 0
145, 0, 0, 0
146, 0, 0, 0
147, 0, 0, 0
148, 0, 0, 0
149, 0, 0, 0
150, 0, 0, 0
151, 0, 0, 0
152, 0, 0, 0
153, 0, 0, 0
154, 0, 0, 0
155, 0, 0, 0
156, 0, 0, 0
157, 0, 0, 0
158, 0, 0, 0
159, 0, 0, 0
160, 0, 0, 0
161, 0, 0, 0
162, 0, 0, 0
163, 0, 0, 0
164, 0, 0, 0
165, 0, 0, 0
166, 0, 0, 0
167, 0, 0, 0
168, 0, 0, 0
169, 0, 0, 0
170, 0, 0, 0
171, 0, 0, 0
172, 0, 0, 0
173, 0, 0, 0
174, 0, 0, 0
175, 0, 0, 0
176, 0, 0, 0
177, 0, 0, 0
178, 0, 0, 0
179, 0, 0, 0
