# TOPAS Version: 3.3.p1
# Parameter File: Simple_Pattern.txt
# Results for scorer MLIC_Scorer
# Scored in component: MLIC
# X in 165 bins of 0.2 cm
# Y in 1 bin  of 10 cm
# Z in 1 bin  of 10 cm
# EnergyDeposit ( MeV ) : Sum   
0, 0, 0, 931.3604736328125
1, 0, 0, 941.5589599609375
2, 0, 0, 939.2951049804688
3, 0, 0, 940.8058471679688
4, 0, 0, 944.8724975585938
5, 0, 0, 957.5826416015625
6, 0, 0, 960.688720703125
7, 0, 0, 960.2742309570312
8, 0, 0, 963.511474609375
9, 0, 0, 962.9898071289062
10, 0, 0, 974.753173828125
11, 0, 0, 973.0853271484375
12, 0, 0, 977.1358032226562
13, 0, 0, 991.1644287109375
14, 0, 0, 987.9544677734375
15, 0, 0, 993.0451049804688
16, 0, 0, 985.449951171875
17, 0, 0, 995.8734130859375
18, 0, 0, 1001.536682128906
19, 0, 0, 1009.180725097656
20, 0, 0, 1006.181640625
21, 0, 0, 1016.402648925781
22, 0, 0, 1019.635375976562
23, 0, 0, 1022.736145019531
24, 0, 0, 1028.276000976562
25, 0, 0, 1022.759826660156
26, 0, 0, 1041.88916015625
27, 0, 0, 1039.446166992188
28, 0, 0, 1047.098266601562
29, 0, 0, 1051.165649414062
30, 0, 0, 1055.380249023438
31, 0, 0, 1057.856689453125
32, 0, 0, 1057.93505859375
33, 0, 0, 1077.916015625
34, 0, 0, 1073.24658203125
35, 0, 0, 1076.868530273438
36, 0, 0, 1092.360107421875
37, 0, 0, 1090.041870117188
38, 0, 0, 1094.005615234375
39, 0, 0, 1097.299682617188
40, 0, 0, 1109.984130859375
41, 0, 0, 1113.516845703125
42, 0, 0, 1125.42236328125
43, 0, 0, 1121.499145507812
44, 0, 0, 1131.223876953125
45, 0, 0, 1143.110107421875
46, 0, 0, 1140.849731445312
47, 0, 0, 1141.785400390625
48, 0, 0, 1156.779052734375
49, 0, 0, 1165.929321289062
50, 0, 0, 1164.684204101562
51, 0, 0, 1180.2841796875
52, 0, 0, 1187.029663085938
53, 0, 0, 1188.679077148438
54, 0, 0, 1201.410400390625
55, 0, 0, 1213.963745117188
56, 0, 0, 1212.303466796875
57, 0, 0, 1229.195190429688
58, 0, 0, 1230.899291992188
59, 0, 0, 1252.640258789062
60, 0, 0, 1253.777465820312
61, 0, 0, 1265.2763671875
62, 0, 0, 1277.000732421875
63, 0, 0, 1285.948486328125
64, 0, 0, 1296.307495117188
65, 0, 0, 1309.39453125
66, 0, 0, 1316.004516601562
67, 0, 0, 1336.009887695312
68, 0, 0, 1334.638916015625
69, 0, 0, 1354.267333984375
70, 0, 0, 1362.574462890625
71, 0, 0, 1383.20703125
72, 0, 0, 1393.903076171875
73, 0, 0, 1406.30517578125
74, 0, 0, 1412.363403320312
75, 0, 0, 1426.536376953125
76, 0, 0, 1445.239501953125
77, 0, 0, 1456.40087890625
78, 0, 0, 1483.808349609375
79, 0, 0, 1499.87646484375
80, 0, 0, 1515.710083007812
81, 0, 0, 1529.136474609375
82, 0, 0, 1551.743408203125
83, 0, 0, 1573.445190429688
84, 0, 0, 1593.13525390625
85, 0, 0, 1612.244995117188
86, 0, 0, 1639.030151367188
87, 0, 0, 1667.604736328125
88, 0, 0, 1690.902221679688
89, 0, 0, 1713.962890625
90, 0, 0, 1748.217895507812
91, 0, 0, 1774.275146484375
92, 0, 0, 1809.855102539062
93, 0, 0, 1848.916625976562
94, 0, 0, 1879.741333007812
95, 0, 0, 1933.019653320312
96, 0, 0, 1974.366088867188
97, 0, 0, 2022.888061523438
98, 0, 0, 2076.73095703125
99, 0, 0, 2117.8125
100, 0, 0, 2192.011474609375
101, 0, 0, 2249.11865234375
102, 0, 0, 2326.902587890625
103, 0, 0, 2420.679443359375
104, 0, 0, 2513.11669921875
105, 0, 0, 2634.105224609375
106, 0, 0, 2764.1298828125
107, 0, 0, 2917.968505859375
108, 0, 0, 3128.114013671875
109, 0, 0, 3389.69775390625
110, 0, 0, 3745.27294921875
111, 0, 0, 4284.71484375
112, 0, 0, 4948.3740234375
113, 0, 0, 5304.66943359375
114, 0, 0, 5322.3095703125
115, 0, 0, 4485.36328125
116, 0, 0, 2948.989501953125
117, 0, 0, 1430.061401367188
118, 0, 0, 523.9083251953125
119, 0, 0, 133.2848052978516
120, 0, 0, 24.65391731262207
121, 0, 0, 0
122, 0, 0, 0
123, 0, 0, 0
124, 0, 0, 0
125, 0, 0, 0
126, 0, 0, 0
127, 0, 0, 0
128, 0, 0, 0
129, 0, 0, 0
130, 0, 0, 0
131, 0, 0, 0
132, 0, 0, 0
133, 0, 0, 0
134, 0, 0, 0
135, 0, 0, 0
136, 0, 0, 0
137, 0, 0, 0
138, 0, 0, 0
139, 0, 0, 0
140, 0, 0, 0
141, 0, 0, 0
142, 0, 0, 0
143, 0, 0, 0
144, 0, 0, 0
145, 0, 0, 0
146, 0, 0, 0
147, 0, 0, 0
148, 0, 0, 0
149, 0, 0, 0
150, 0, 0, 0
151, 0, 0, 0
152, 0, 0, 0
153, 0, 0, 0
154, 0, 0, 0
155, 0, 0, 0
156, 0, 0, 0
157, 0, 0, 0
158, 0, 0, 0
159, 0, 0, 0
160, 0, 0, 0
161, 0, 0, 0
162, 0, 0, 0
163, 0, 0, 0
164, 0, 0, 0
