# TOPAS Version: 3.3.p1
# Parameter File: Simple_Pattern.txt
# Results for scorer MLIC_Scorer
# Scored in component: MLIC
# X in 180 bins of 0.222222 cm
# Y in 1 bin  of 10 cm
# Z in 1 bin  of 10 cm
# EnergyDeposit ( MeV ) : Sum   
0, 0, 0, 38.55241012573242
1, 0, 0, 40.80899047851562
2, 0, 0, 38.36836242675781
3, 0, 0, 38.7127685546875
4, 0, 0, 41.25863265991211
5, 0, 0, 39.09384155273438
6, 0, 0, 39.84842300415039
7, 0, 0, 42.08199310302734
8, 0, 0, 40.83597564697266
9, 0, 0, 40.7346076965332
10, 0, 0, 40.63619613647461
11, 0, 0, 42.68165969848633
12, 0, 0, 41.09622192382812
13, 0, 0, 40.88088607788086
14, 0, 0, 41.68058395385742
15, 0, 0, 41.33229446411133
16, 0, 0, 42.1157341003418
17, 0, 0, 43.57775497436523
18, 0, 0, 41.12968063354492
19, 0, 0, 41.05589294433594
20, 0, 0, 44.52763366699219
21, 0, 0, 42.02480316162109
22, 0, 0, 44.37834930419922
23, 0, 0, 42.50925827026367
24, 0, 0, 43.83700180053711
25, 0, 0, 44.98702239990234
26, 0, 0, 43.74649810791016
27, 0, 0, 43.74932098388672
28, 0, 0, 45.74187088012695
29, 0, 0, 44.00795364379883
30, 0, 0, 45.63845825195312
31, 0, 0, 45.06459045410156
32, 0, 0, 45.6580924987793
33, 0, 0, 46.63369750976562
34, 0, 0, 46.31367874145508
35, 0, 0, 46.72829818725586
36, 0, 0, 46.22193145751953
37, 0, 0, 47.39025497436523
38, 0, 0, 47.95815277099609
39, 0, 0, 48.0756950378418
40, 0, 0, 48.33451461791992
41, 0, 0, 49.25885391235352
42, 0, 0, 50.19858932495117
43, 0, 0, 48.84384155273438
44, 0, 0, 49.66852569580078
45, 0, 0, 51.06990051269531
46, 0, 0, 50.60394668579102
47, 0, 0, 52.24079513549805
48, 0, 0, 51.68751525878906
49, 0, 0, 53.44440078735352
50, 0, 0, 52.48263549804688
51, 0, 0, 53.29248809814453
52, 0, 0, 53.87050628662109
53, 0, 0, 54.6143684387207
54, 0, 0, 54.30730438232422
55, 0, 0, 56.64064788818359
56, 0, 0, 57.46106338500977
57, 0, 0, 56.15079879760742
58, 0, 0, 59.71142959594727
59, 0, 0, 59.14640808105469
60, 0, 0, 59.92290496826172
61, 0, 0, 61.35781478881836
62, 0, 0, 60.54774475097656
63, 0, 0, 60.34146881103516
64, 0, 0, 62.514404296875
65, 0, 0, 66.14652252197266
66, 0, 0, 65.94096374511719
67, 0, 0, 67.34937286376953
68, 0, 0, 66.98133850097656
69, 0, 0, 67.76921844482422
70, 0, 0, 69.83083343505859
71, 0, 0, 70.37324523925781
72, 0, 0, 70.42766571044922
73, 0, 0, 73.59790802001953
74, 0, 0, 75.89017486572266
75, 0, 0, 76.59620666503906
76, 0, 0, 79.13291931152344
77, 0, 0, 80.48063659667969
78, 0, 0, 82.64547729492188
79, 0, 0, 86.95932006835938
80, 0, 0, 91.11965179443359
81, 0, 0, 91.91743469238281
82, 0, 0, 96.98291015625
83, 0, 0, 99.88059234619141
84, 0, 0, 107.1034469604492
85, 0, 0, 112.4300689697266
86, 0, 0, 119.6978759765625
87, 0, 0, 128.6565856933594
88, 0, 0, 138.8800354003906
89, 0, 0, 159.34619140625
90, 0, 0, 186.4357299804688
91, 0, 0, 213.9883422851562
92, 0, 0, 263.0575256347656
93, 0, 0, 186.9768218994141
94, 0, 0, 104.4926834106445
95, 0, 0, 8.069841384887695
96, 0, 0, 0
97, 0, 0, 0
98, 0, 0, 0
99, 0, 0, 0
100, 0, 0, 0
101, 0, 0, 0
102, 0, 0, 0
103, 0, 0, 0
104, 0, 0, 0
105, 0, 0, 0
106, 0, 0, 0
107, 0, 0, 0
108, 0, 0, 0
109, 0, 0, 0
110, 0, 0, 0
111, 0, 0, 0
112, 0, 0, 0
113, 0, 0, 0
114, 0, 0, 0
115, 0, 0, 0
116, 0, 0, 0
117, 0, 0, 0
118, 0, 0, 0
119, 0, 0, 0
120, 0, 0, 0
121, 0, 0, 0
122, 0, 0, 0
123, 0, 0, 0
124, 0, 0, 0
125, 0, 0, 0
126, 0, 0, 0
127, 0, 0, 0
128, 0, 0, 0
129, 0, 0, 0
130, 0, 0, 0
131, 0, 0, 0
132, 0, 0, 0
133, 0, 0, 0
134, 0, 0, 0
135, 0, 0, 0
136, 0, 0, 0
137, 0, 0, 0
138, 0, 0, 0
139, 0, 0, 0
140, 0, 0, 0
141, 0, 0, 0
142, 0, 0, 0
143, 0, 0, 0
144, 0, 0, 0
145, 0, 0, 0
146, 0, 0, 0
147, 0, 0, 0
148, 0, 0, 0
149, 0, 0, 0
150, 0, 0, 0
151, 0, 0, 0
152, 0, 0, 0
153, 0, 0, 0
154, 0, 0, 0
155, 0, 0, 0
156, 0, 0, 0
157, 0, 0, 0
158, 0, 0, 0
159, 0, 0, 0
160, 0, 0, 0
161, 0, 0, 0
162, 0, 0, 0
163, 0, 0, 0
164, 0, 0, 0
165, 0, 0, 0
166, 0, 0, 0
167, 0, 0, 0
168, 0, 0, 0
169, 0, 0, 0
170, 0, 0, 0
171, 0, 0, 0
172, 0, 0, 0
173, 0, 0, 0
174, 0, 0, 0
175, 0, 0, 0
176, 0, 0, 0
177, 0, 0, 0
178, 0, 0, 0
179, 0, 0, 0
