# TOPAS Version: 3.3.p1
# Parameter File: Simple_Pattern.txt
# Results for scorer MLIC_Scorer
# Scored in component: MLIC
# X in 180 bins of 0.222222 cm
# Y in 1 bin  of 10 cm
# Z in 1 bin  of 10 cm
# EnergyDeposit ( MeV ) : Sum   
0, 0, 0, 1079.544555664062
1, 0, 0, 1094.104614257812
2, 0, 0, 1091.774536132812
3, 0, 0, 1097.935424804688
4, 0, 0, 1110.9990234375
5, 0, 0, 1121.06689453125
6, 0, 0, 1121.550048828125
7, 0, 0, 1128.728881835938
8, 0, 0, 1132.388549804688
9, 0, 0, 1129.472290039062
10, 0, 0, 1140.582397460938
11, 0, 0, 1139.936279296875
12, 0, 0, 1155.504516601562
13, 0, 0, 1151.623657226562
14, 0, 0, 1158.228515625
15, 0, 0, 1158.33642578125
16, 0, 0, 1163.968383789062
17, 0, 0, 1179.155151367188
18, 0, 0, 1182.166748046875
19, 0, 0, 1193.571899414062
20, 0, 0, 1196.69287109375
21, 0, 0, 1193.11572265625
22, 0, 0, 1202.150024414062
23, 0, 0, 1216.237915039062
24, 0, 0, 1218.07080078125
25, 0, 0, 1227.322998046875
26, 0, 0, 1233.080200195312
27, 0, 0, 1239.665405273438
28, 0, 0, 1250.918212890625
29, 0, 0, 1255.984497070312
30, 0, 0, 1272.959838867188
31, 0, 0, 1280.146240234375
32, 0, 0, 1285.154296875
33, 0, 0, 1292.739379882812
34, 0, 0, 1296.516967773438
35, 0, 0, 1304.466796875
36, 0, 0, 1314.703979492188
37, 0, 0, 1329.345336914062
38, 0, 0, 1339.70068359375
39, 0, 0, 1346.598510742188
40, 0, 0, 1353.51513671875
41, 0, 0, 1365.447387695312
42, 0, 0, 1371.194213867188
43, 0, 0, 1387.375366210938
44, 0, 0, 1404.099975585938
45, 0, 0, 1416.83447265625
46, 0, 0, 1436.97314453125
47, 0, 0, 1433.235473632812
48, 0, 0, 1449.128662109375
49, 0, 0, 1463.15966796875
50, 0, 0, 1493.389038085938
51, 0, 0, 1492.945068359375
52, 0, 0, 1504.6220703125
53, 0, 0, 1523.600341796875
54, 0, 0, 1540.019897460938
55, 0, 0, 1559.19189453125
56, 0, 0, 1581.269409179688
57, 0, 0, 1601.215209960938
58, 0, 0, 1615.208618164062
59, 0, 0, 1635.034790039062
60, 0, 0, 1655.76708984375
61, 0, 0, 1676.950805664062
62, 0, 0, 1713.149658203125
63, 0, 0, 1724.778076171875
64, 0, 0, 1758.225219726562
65, 0, 0, 1780.702026367188
66, 0, 0, 1812.663452148438
67, 0, 0, 1832.602294921875
68, 0, 0, 1863.410888671875
69, 0, 0, 1899.466796875
70, 0, 0, 1934.961303710938
71, 0, 0, 1976.7255859375
72, 0, 0, 2023.698364257812
73, 0, 0, 2066.53271484375
74, 0, 0, 2110.579833984375
75, 0, 0, 2159.1767578125
76, 0, 0, 2221.28076171875
77, 0, 0, 2271.1220703125
78, 0, 0, 2341.3232421875
79, 0, 0, 2421.91015625
80, 0, 0, 2496.468505859375
81, 0, 0, 2586.57275390625
82, 0, 0, 2703.59423828125
83, 0, 0, 2827.720703125
84, 0, 0, 2974.906005859375
85, 0, 0, 3157.6943359375
86, 0, 0, 3367.401611328125
87, 0, 0, 3659.95849609375
88, 0, 0, 4068.880859375
89, 0, 0, 4693.08544921875
90, 0, 0, 5605.8271484375
91, 0, 0, 6215.43701171875
92, 0, 0, 5868.072265625
93, 0, 0, 4163.50732421875
94, 0, 0, 2264.34814453125
95, 0, 0, 817.527099609375
96, 0, 0, 208.5340423583984
97, 0, 0, 36.03275680541992
98, 0, 0, 0
99, 0, 0, 0
100, 0, 0, 0
101, 0, 0, 0
102, 0, 0, 0
103, 0, 0, 0
104, 0, 0, 0
105, 0, 0, 0
106, 0, 0, 0
107, 0, 0, 0
108, 0, 0, 0.02280095219612122
109, 0, 0, 0
110, 0, 0, 0
111, 0, 0, 0
112, 0, 0, 0
113, 0, 0, 0
114, 0, 0, 0
115, 0, 0, 0
116, 0, 0, 0
117, 0, 0, 0
118, 0, 0, 0
119, 0, 0, 0
120, 0, 0, 0
121, 0, 0, 0
122, 0, 0, 0
123, 0, 0, 0
124, 0, 0, 0
125, 0, 0, 0
126, 0, 0, 0
127, 0, 0, 0
128, 0, 0, 0
129, 0, 0, 0
130, 0, 0, 0
131, 0, 0, 0
132, 0, 0, 0
133, 0, 0, 0
134, 0, 0, 0
135, 0, 0, 0
136, 0, 0, 0
137, 0, 0, 0
138, 0, 0, 0.04574219137430191
139, 0, 0, 0
140, 0, 0, 0
141, 0, 0, 0
142, 0, 0, 0
143, 0, 0, 0
144, 0, 0, 0
145, 0, 0, 0
146, 0, 0, 0
147, 0, 0, 0
148, 0, 0, 0
149, 0, 0, 0
150, 0, 0, 0
151, 0, 0, 0
152, 0, 0, 0
153, 0, 0, 0
154, 0, 0, 0
155, 0, 0, 0
156, 0, 0, 0
157, 0, 0, 0
158, 0, 0, 0
159, 0, 0, 0
160, 0, 0, 0
161, 0, 0, 0
162, 0, 0, 0
163, 0, 0, 0
164, 0, 0, 0
165, 0, 0, 0
166, 0, 0, 0
167, 0, 0, 0
168, 0, 0, 0
169, 0, 0, 0
170, 0, 0, 0
171, 0, 0, 0
172, 0, 0, 0
173, 0, 0, 0
174, 0, 0, 0
175, 0, 0, 0
176, 0, 0, 0
177, 0, 0, 0
178, 0, 0, 0
179, 0, 0, 0
