# TOPAS Version: 3.3.p1
# Parameter File: Simple_Pattern.txt
# Results for scorer MLIC_Scorer
# Scored in component: MLIC
# X in 180 bins of 0.222222 cm
# Y in 1 bin  of 10 cm
# Z in 1 bin  of 10 cm
# EnergyDeposit ( MeV ) : Sum   
0, 0, 0, 24.80694580078125
1, 0, 0, 23.82819938659668
2, 0, 0, 25.95192909240723
3, 0, 0, 23.4453296661377
4, 0, 0, 24.89871597290039
5, 0, 0, 27.0507984161377
6, 0, 0, 25.72543525695801
7, 0, 0, 25.25899314880371
8, 0, 0, 26.15704345703125
9, 0, 0, 26.23722457885742
10, 0, 0, 25.52672386169434
11, 0, 0, 26.58059692382812
12, 0, 0, 26.10673141479492
13, 0, 0, 25.59926414489746
14, 0, 0, 27.06376266479492
15, 0, 0, 26.11271667480469
16, 0, 0, 24.41732788085938
17, 0, 0, 25.55128479003906
18, 0, 0, 25.52412223815918
19, 0, 0, 27.30700874328613
20, 0, 0, 25.12424087524414
21, 0, 0, 25.97056770324707
22, 0, 0, 26.31322860717773
23, 0, 0, 25.45438957214355
24, 0, 0, 26.72217750549316
25, 0, 0, 27.30880737304688
26, 0, 0, 26.95191192626953
27, 0, 0, 26.38293838500977
28, 0, 0, 26.63789749145508
29, 0, 0, 27.70267868041992
30, 0, 0, 27.3794059753418
31, 0, 0, 29.14397430419922
32, 0, 0, 28.53255653381348
33, 0, 0, 28.55109596252441
34, 0, 0, 28.68079376220703
35, 0, 0, 27.67445755004883
36, 0, 0, 29.90526390075684
37, 0, 0, 29.65111541748047
38, 0, 0, 29.54817008972168
39, 0, 0, 29.86972045898438
40, 0, 0, 30.02032089233398
41, 0, 0, 31.89272499084473
42, 0, 0, 30.53607559204102
43, 0, 0, 30.90797805786133
44, 0, 0, 29.90576553344727
45, 0, 0, 30.31649017333984
46, 0, 0, 31.34530067443848
47, 0, 0, 30.79289817810059
48, 0, 0, 32.70791625976562
49, 0, 0, 31.84084892272949
50, 0, 0, 31.41156005859375
51, 0, 0, 31.10100364685059
52, 0, 0, 31.3868236541748
53, 0, 0, 30.88802528381348
54, 0, 0, 32.6667366027832
55, 0, 0, 32.94404983520508
56, 0, 0, 33.07064437866211
57, 0, 0, 31.69223022460938
58, 0, 0, 31.02101898193359
59, 0, 0, 31.22638511657715
60, 0, 0, 31.97799873352051
61, 0, 0, 31.29570770263672
62, 0, 0, 32.042724609375
63, 0, 0, 33.00161743164062
64, 0, 0, 31.62905693054199
65, 0, 0, 32.94504547119141
66, 0, 0, 32.19971466064453
67, 0, 0, 32.70236968994141
68, 0, 0, 31.21019744873047
69, 0, 0, 31.61462783813477
70, 0, 0, 31.50896263122559
71, 0, 0, 31.43550682067871
72, 0, 0, 30.21940231323242
73, 0, 0, 30.97542762756348
74, 0, 0, 31.56214714050293
75, 0, 0, 32.47903060913086
76, 0, 0, 32.41516494750977
77, 0, 0, 34.15214920043945
78, 0, 0, 35.30820083618164
79, 0, 0, 36.03029251098633
80, 0, 0, 34.47676086425781
81, 0, 0, 36.98124313354492
82, 0, 0, 37.6214599609375
83, 0, 0, 38.79126739501953
84, 0, 0, 41.81029510498047
85, 0, 0, 42.70893478393555
86, 0, 0, 47.58292770385742
87, 0, 0, 50.35526657104492
88, 0, 0, 54.4673957824707
89, 0, 0, 63.49161911010742
90, 0, 0, 78.07799530029297
91, 0, 0, 89.6490478515625
92, 0, 0, 84.07515716552734
93, 0, 0, 54.59121322631836
94, 0, 0, 41.89229202270508
95, 0, 0, 3.040086984634399
96, 0, 0, 0
97, 0, 0, 0
98, 0, 0, 0
99, 0, 0, 0
100, 0, 0, 0
101, 0, 0, 0
102, 0, 0, 0
103, 0, 0, 0
104, 0, 0, 0
105, 0, 0, 0
106, 0, 0, 0
107, 0, 0, 0
108, 0, 0, 0
109, 0, 0, 0
110, 0, 0, 0
111, 0, 0, 0
112, 0, 0, 0
113, 0, 0, 0.002976664807647467
114, 0, 0, 0
115, 0, 0, 0
116, 0, 0, 0
117, 0, 0, 0
118, 0, 0, 0
119, 0, 0, 0
120, 0, 0, 0
121, 0, 0, 0
122, 0, 0, 0
123, 0, 0, 0.0159848015755415
124, 0, 0, 0
125, 0, 0, 0
126, 0, 0, 0
127, 0, 0, 0
128, 0, 0, 0
129, 0, 0, 0
130, 0, 0, 0
131, 0, 0, 0
132, 0, 0, 0
133, 0, 0, 0
134, 0, 0, 0
135, 0, 0, 0
136, 0, 0, 0
137, 0, 0, 0
138, 0, 0, 0
139, 0, 0, 0
140, 0, 0, 0
141, 0, 0, 0
142, 0, 0, 0
143, 0, 0, 0
144, 0, 0, 0
145, 0, 0, 0
146, 0, 0, 0
147, 0, 0, 0
148, 0, 0, 0
149, 0, 0, 0
150, 0, 0, 0
151, 0, 0, 0
152, 0, 0, 0
153, 0, 0, 0
154, 0, 0, 0
155, 0, 0, 0
156, 0, 0, 0
157, 0, 0, 0
158, 0, 0, 0
159, 0, 0, 0
160, 0, 0, 0
161, 0, 0, 0
162, 0, 0, 0
163, 0, 0, 0
164, 0, 0, 0
165, 0, 0, 0
166, 0, 0, 0
167, 0, 0, 0
168, 0, 0, 0
169, 0, 0, 0
170, 0, 0, 0
171, 0, 0, 0
172, 0, 0, 0
173, 0, 0, 0
174, 0, 0, 0
175, 0, 0, 0
176, 0, 0, 0
177, 0, 0, 0
178, 0, 0, 0
179, 0, 0, 0
