# TOPAS Version: 3.3.p1
# Parameter File: Simple_Pattern.txt
# Results for scorer MLIC_Scorer
# Scored in component: MLIC
# X in 165 bins of 0.2 cm
# Y in 1 bin  of 10 cm
# Z in 1 bin  of 10 cm
# EnergyDeposit ( MeV ) : Sum   
0, 0, 0, 948.0452270507812
1, 0, 0, 946.937255859375
2, 0, 0, 940.169921875
3, 0, 0, 938.1754760742188
4, 0, 0, 938.3106689453125
5, 0, 0, 956.7433471679688
6, 0, 0, 957.52880859375
7, 0, 0, 966.5390625
8, 0, 0, 962.30615234375
9, 0, 0, 962.2947998046875
10, 0, 0, 972.6732788085938
11, 0, 0, 972.7095336914062
12, 0, 0, 969.3885498046875
13, 0, 0, 975.4476928710938
14, 0, 0, 977.9215087890625
15, 0, 0, 982.611083984375
16, 0, 0, 978.3656005859375
17, 0, 0, 986.1235961914062
18, 0, 0, 987.5890502929688
19, 0, 0, 985.6390380859375
20, 0, 0, 995.5940551757812
21, 0, 0, 993.92578125
22, 0, 0, 998.3563842773438
23, 0, 0, 1001.4794921875
24, 0, 0, 999.0765991210938
25, 0, 0, 998.6571655273438
26, 0, 0, 1010.053955078125
27, 0, 0, 1011.343078613281
28, 0, 0, 1004.658874511719
29, 0, 0, 1005.874572753906
30, 0, 0, 1020.283813476562
31, 0, 0, 1011.565734863281
32, 0, 0, 1020.41796875
33, 0, 0, 1024.84033203125
34, 0, 0, 1026.880126953125
35, 0, 0, 1027.04736328125
36, 0, 0, 1027.83837890625
37, 0, 0, 1027.5546875
38, 0, 0, 1043.656005859375
39, 0, 0, 1036.807006835938
40, 0, 0, 1043.308959960938
41, 0, 0, 1043.701538085938
42, 0, 0, 1043.72802734375
43, 0, 0, 1048.971557617188
44, 0, 0, 1049.641357421875
45, 0, 0, 1059.401245117188
46, 0, 0, 1055.599731445312
47, 0, 0, 1054.748901367188
48, 0, 0, 1061.5791015625
49, 0, 0, 1067.356201171875
50, 0, 0, 1075.930786132812
51, 0, 0, 1080.11767578125
52, 0, 0, 1077.645385742188
53, 0, 0, 1077.737182617188
54, 0, 0, 1087.552612304688
55, 0, 0, 1091.691162109375
56, 0, 0, 1091.232177734375
57, 0, 0, 1103.978637695312
58, 0, 0, 1110.23681640625
59, 0, 0, 1111.479370117188
60, 0, 0, 1115.286499023438
61, 0, 0, 1116.799194335938
62, 0, 0, 1120.37548828125
63, 0, 0, 1130.04833984375
64, 0, 0, 1131.592895507812
65, 0, 0, 1133.8837890625
66, 0, 0, 1134.816528320312
67, 0, 0, 1155.0087890625
68, 0, 0, 1160.424560546875
69, 0, 0, 1155.990234375
70, 0, 0, 1161.74560546875
71, 0, 0, 1162.182983398438
72, 0, 0, 1171.784057617188
73, 0, 0, 1185.029663085938
74, 0, 0, 1187.744873046875
75, 0, 0, 1203.126220703125
76, 0, 0, 1207.7880859375
77, 0, 0, 1207.185180664062
78, 0, 0, 1225.374267578125
79, 0, 0, 1242.22705078125
80, 0, 0, 1241.688232421875
81, 0, 0, 1245.513427734375
82, 0, 0, 1264.109008789062
83, 0, 0, 1277.4658203125
84, 0, 0, 1282.561401367188
85, 0, 0, 1294.325805664062
86, 0, 0, 1309.7451171875
87, 0, 0, 1324.648193359375
88, 0, 0, 1338.822387695312
89, 0, 0, 1357.026123046875
90, 0, 0, 1373.739013671875
91, 0, 0, 1391.50537109375
92, 0, 0, 1402.98388671875
93, 0, 0, 1424.342163085938
94, 0, 0, 1449.240112304688
95, 0, 0, 1466.103881835938
96, 0, 0, 1500.281372070312
97, 0, 0, 1528.001708984375
98, 0, 0, 1555.968627929688
99, 0, 0, 1587.185424804688
100, 0, 0, 1627.112426757812
101, 0, 0, 1661.802734375
102, 0, 0, 1712.87841796875
103, 0, 0, 1770.336059570312
104, 0, 0, 1833.843383789062
105, 0, 0, 1918.308959960938
106, 0, 0, 2005.554321289062
107, 0, 0, 2110.7666015625
108, 0, 0, 2246.430419921875
109, 0, 0, 2431.6318359375
110, 0, 0, 2667.7587890625
111, 0, 0, 3031.709716796875
112, 0, 0, 3487.31494140625
113, 0, 0, 3738.718017578125
114, 0, 0, 3748.5869140625
115, 0, 0, 2951.142333984375
116, 0, 0, 1916.136962890625
117, 0, 0, 810.6835327148438
118, 0, 0, 301.9652709960938
119, 0, 0, 55.34528732299805
120, 0, 0, 0
121, 0, 0, 0.05203457549214363
122, 0, 0, 0
123, 0, 0, 0
124, 0, 0, 0.2164045572280884
125, 0, 0, 0.01601376943290234
126, 0, 0, 0.02836587280035019
127, 0, 0, 0.01287327893078327
128, 0, 0, 0
129, 0, 0, 0.006380794104188681
130, 0, 0, 0
131, 0, 0, 0.08549273759126663
132, 0, 0, 0.02218917571008205
133, 0, 0, 0
134, 0, 0, 0
135, 0, 0, 0.002296470105648041
136, 0, 0, 0
137, 0, 0, 0.03947221115231514
138, 0, 0, 0
139, 0, 0, 0
140, 0, 0, 0
141, 0, 0, 0.001991844270378351
142, 0, 0, 0.02379652857780457
143, 0, 0, 0
144, 0, 0, 0
145, 0, 0, 0.07657221704721451
146, 0, 0, 0
147, 0, 0, 0.004049374256283045
148, 0, 0, 0.001072989660315216
149, 0, 0, 0.004093030001968145
150, 0, 0, 0
151, 0, 0, 0
152, 0, 0, 0
153, 0, 0, 0
154, 0, 0, 0.1678799092769623
155, 0, 0, 0
156, 0, 0, 0.02454784698784351
157, 0, 0, 0
158, 0, 0, 0
159, 0, 0, 0.01600121520459652
160, 0, 0, 0
161, 0, 0, 0.03138606995344162
162, 0, 0, 0
163, 0, 0, 0
164, 0, 0, 0
