# TOPAS Version: 3.3.p1
# Parameter File: Simple_Pattern.txt
# Results for scorer MLIC_Scorer
# Scored in component: MLIC
# X in 180 bins of 0.222222 cm
# Y in 1 bin  of 10 cm
# Z in 1 bin  of 10 cm
# EnergyDeposit ( MeV ) : Sum   
0, 0, 0, 1084.4521484375
1, 0, 0, 1091.753295898438
2, 0, 0, 1098.086181640625
3, 0, 0, 1103.421508789062
4, 0, 0, 1104.29541015625
5, 0, 0, 1109.795532226562
6, 0, 0, 1110.183837890625
7, 0, 0, 1117.271728515625
8, 0, 0, 1134.935180664062
9, 0, 0, 1135.44775390625
10, 0, 0, 1146.964599609375
11, 0, 0, 1144.269287109375
12, 0, 0, 1145.75244140625
13, 0, 0, 1157.671752929688
14, 0, 0, 1166.073120117188
15, 0, 0, 1168.994384765625
16, 0, 0, 1166.578002929688
17, 0, 0, 1181.427612304688
18, 0, 0, 1180.354125976562
19, 0, 0, 1198.088989257812
20, 0, 0, 1200.533813476562
21, 0, 0, 1204.393432617188
22, 0, 0, 1206.559692382812
23, 0, 0, 1202.29638671875
24, 0, 0, 1226.168212890625
25, 0, 0, 1233.678833007812
26, 0, 0, 1240.467163085938
27, 0, 0, 1241.785522460938
28, 0, 0, 1251.090209960938
29, 0, 0, 1261.138549804688
30, 0, 0, 1276.246826171875
31, 0, 0, 1273.59716796875
32, 0, 0, 1281.06982421875
33, 0, 0, 1294.6142578125
34, 0, 0, 1294.968017578125
35, 0, 0, 1311.507080078125
36, 0, 0, 1324.763061523438
37, 0, 0, 1327.3642578125
38, 0, 0, 1343.324829101562
39, 0, 0, 1364.943603515625
40, 0, 0, 1365.004150390625
41, 0, 0, 1373.857666015625
42, 0, 0, 1385.957397460938
43, 0, 0, 1383.875
44, 0, 0, 1408.949462890625
45, 0, 0, 1418.178344726562
46, 0, 0, 1428.835205078125
47, 0, 0, 1447.129150390625
48, 0, 0, 1450.784545898438
49, 0, 0, 1464.509765625
50, 0, 0, 1484.1455078125
51, 0, 0, 1499.19921875
52, 0, 0, 1512.400756835938
53, 0, 0, 1536.826049804688
54, 0, 0, 1549.62890625
55, 0, 0, 1561.56982421875
56, 0, 0, 1585.143920898438
57, 0, 0, 1600.61474609375
58, 0, 0, 1623.327758789062
59, 0, 0, 1637.361450195312
60, 0, 0, 1662.133178710938
61, 0, 0, 1677.103149414062
62, 0, 0, 1700.892578125
63, 0, 0, 1730.53857421875
64, 0, 0, 1755.904907226562
65, 0, 0, 1779.03125
66, 0, 0, 1806.639770507812
67, 0, 0, 1838.568603515625
68, 0, 0, 1867.237548828125
69, 0, 0, 1906.706420898438
70, 0, 0, 1931.003051757812
71, 0, 0, 1971.772094726562
72, 0, 0, 2015.610107421875
73, 0, 0, 2055.580078125
74, 0, 0, 2113.52587890625
75, 0, 0, 2157.0146484375
76, 0, 0, 2214.5498046875
77, 0, 0, 2271.648193359375
78, 0, 0, 2337.165771484375
79, 0, 0, 2415.249267578125
80, 0, 0, 2498.74365234375
81, 0, 0, 2591.55224609375
82, 0, 0, 2707.357666015625
83, 0, 0, 2817.0390625
84, 0, 0, 2975.818603515625
85, 0, 0, 3152.463134765625
86, 0, 0, 3375.044677734375
87, 0, 0, 3662.46142578125
88, 0, 0, 4060.310546875
89, 0, 0, 4702.8544921875
90, 0, 0, 5534.21826171875
91, 0, 0, 6359.576171875
92, 0, 0, 5847.0478515625
93, 0, 0, 4256.94970703125
94, 0, 0, 1989.369873046875
95, 0, 0, 654.8310546875
96, 0, 0, 160.9432525634766
97, 0, 0, 3.790087938308716
98, 0, 0, 0
99, 0, 0, 0
100, 0, 0, 0
101, 0, 0, 0
102, 0, 0, 0
103, 0, 0, 0
104, 0, 0, 0.004039826337248087
105, 0, 0, 0.06081613525748253
106, 0, 0, 0
107, 0, 0, 0
108, 0, 0, 0
109, 0, 0, 0
110, 0, 0, 0
111, 0, 0, 0.007052872329950333
112, 0, 0, 0
113, 0, 0, 0
114, 0, 0, 0.03421755507588387
115, 0, 0, 0
116, 0, 0, 0
117, 0, 0, 0
118, 0, 0, 0
119, 0, 0, 0
120, 0, 0, 0
121, 0, 0, 0
122, 0, 0, 0
123, 0, 0, 0
124, 0, 0, 0
125, 0, 0, 0
126, 0, 0, 0
127, 0, 0, 0
128, 0, 0, 0
129, 0, 0, 0.05559731647372246
130, 0, 0, 0
131, 0, 0, 0
132, 0, 0, 0
133, 0, 0, 0
134, 0, 0, 0
135, 0, 0, 0
136, 0, 0, 0
137, 0, 0, 0
138, 0, 0, 0
139, 0, 0, 0
140, 0, 0, 0
141, 0, 0, 0
142, 0, 0, 0
143, 0, 0, 0
144, 0, 0, 0
145, 0, 0, 0
146, 0, 0, 0
147, 0, 0, 0
148, 0, 0, 0
149, 0, 0, 0
150, 0, 0, 0
151, 0, 0, 0
152, 0, 0, 0
153, 0, 0, 0
154, 0, 0, 0
155, 0, 0, 0
156, 0, 0, 0
157, 0, 0, 0
158, 0, 0, 0
159, 0, 0, 0
160, 0, 0, 0
161, 0, 0, 0
162, 0, 0, 0
163, 0, 0, 0
164, 0, 0, 0
165, 0, 0, 0
166, 0, 0, 0
167, 0, 0, 0
168, 0, 0, 0
169, 0, 0, 0
170, 0, 0, 0
171, 0, 0, 0
172, 0, 0, 0
173, 0, 0, 0
174, 0, 0, 0
175, 0, 0, 0
176, 0, 0, 0
177, 0, 0, 0
178, 0, 0, 0
179, 0, 0, 0
