# TOPAS Version: 3.3.p1
# Parameter File: Simple_Pattern.txt
# Results for scorer MLIC_Scorer
# Scored in component: MLIC
# X in 180 bins of 0.222222 cm
# Y in 1 bin  of 10 cm
# Z in 1 bin  of 10 cm
# EnergyDeposit ( MeV ) : Sum   
0, 0, 0, 19.07439994812012
1, 0, 0, 20.10529327392578
2, 0, 0, 19.11380195617676
3, 0, 0, 20.5552806854248
4, 0, 0, 19.90989303588867
5, 0, 0, 18.93625068664551
6, 0, 0, 20.91609764099121
7, 0, 0, 20.78401565551758
8, 0, 0, 20.96685218811035
9, 0, 0, 21.40254020690918
10, 0, 0, 20.49293327331543
11, 0, 0, 21.36924171447754
12, 0, 0, 20.00263214111328
13, 0, 0, 20.95791816711426
14, 0, 0, 22.15951347351074
15, 0, 0, 20.58645820617676
16, 0, 0, 21.10719871520996
17, 0, 0, 20.80945205688477
18, 0, 0, 20.2614631652832
19, 0, 0, 20.95015907287598
20, 0, 0, 21.26173782348633
21, 0, 0, 22.47241592407227
22, 0, 0, 20.6398983001709
23, 0, 0, 22.15179443359375
24, 0, 0, 22.68584060668945
25, 0, 0, 23.13539886474609
26, 0, 0, 22.04556274414062
27, 0, 0, 22.31468772888184
28, 0, 0, 21.76893043518066
29, 0, 0, 22.57817077636719
30, 0, 0, 22.90688323974609
31, 0, 0, 21.57618713378906
32, 0, 0, 22.54911994934082
33, 0, 0, 23.62356567382812
34, 0, 0, 23.59267234802246
35, 0, 0, 23.91235542297363
36, 0, 0, 25.33262252807617
37, 0, 0, 23.60470008850098
38, 0, 0, 22.64222526550293
39, 0, 0, 24.2526969909668
40, 0, 0, 23.95703125
41, 0, 0, 25.06206130981445
42, 0, 0, 25.42713165283203
43, 0, 0, 25.21686744689941
44, 0, 0, 25.47962760925293
45, 0, 0, 25.34468841552734
46, 0, 0, 25.7479419708252
47, 0, 0, 25.7044734954834
48, 0, 0, 25.92978858947754
49, 0, 0, 27.43865394592285
50, 0, 0, 26.6655330657959
51, 0, 0, 27.49774742126465
52, 0, 0, 26.50957489013672
53, 0, 0, 27.19963264465332
54, 0, 0, 26.96955871582031
55, 0, 0, 28.04610824584961
56, 0, 0, 28.99247741699219
57, 0, 0, 29.28753471374512
58, 0, 0, 29.0264720916748
59, 0, 0, 30.79348564147949
60, 0, 0, 29.69520378112793
61, 0, 0, 30.40983390808105
62, 0, 0, 30.20545196533203
63, 0, 0, 31.0562744140625
64, 0, 0, 31.53731155395508
65, 0, 0, 31.44528770446777
66, 0, 0, 31.08335876464844
67, 0, 0, 32.64988327026367
68, 0, 0, 32.82371139526367
69, 0, 0, 34.9529914855957
70, 0, 0, 35.83874893188477
71, 0, 0, 36.25984954833984
72, 0, 0, 36.30581283569336
73, 0, 0, 37.72911071777344
74, 0, 0, 38.16528701782227
75, 0, 0, 39.07341766357422
76, 0, 0, 40.52258682250977
77, 0, 0, 41.68423843383789
78, 0, 0, 42.21916961669922
79, 0, 0, 43.98528671264648
80, 0, 0, 46.35371017456055
81, 0, 0, 47.16909408569336
82, 0, 0, 48.80385208129883
83, 0, 0, 51.52460861206055
84, 0, 0, 53.83046340942383
85, 0, 0, 57.65786743164062
86, 0, 0, 60.41105270385742
87, 0, 0, 66.8909912109375
88, 0, 0, 73.62786865234375
89, 0, 0, 83.22679901123047
90, 0, 0, 105.3346710205078
91, 0, 0, 131.5304260253906
92, 0, 0, 116.3645324707031
93, 0, 0, 44.9399299621582
94, 0, 0, 33.84207153320312
95, 0, 0, 13.09168720245361
96, 0, 0, 0
97, 0, 0, 0
98, 0, 0, 0
99, 0, 0, 0
100, 0, 0, 0
101, 0, 0, 0
102, 0, 0, 0
103, 0, 0, 0
104, 0, 0, 0
105, 0, 0, 0
106, 0, 0, 0
107, 0, 0, 0
108, 0, 0, 0
109, 0, 0, 0
110, 0, 0, 0
111, 0, 0, 0
112, 0, 0, 0
113, 0, 0, 0
114, 0, 0, 0
115, 0, 0, 0
116, 0, 0, 0
117, 0, 0, 0
118, 0, 0, 0
119, 0, 0, 0
120, 0, 0, 0
121, 0, 0, 0
122, 0, 0, 0
123, 0, 0, 0
124, 0, 0, 0
125, 0, 0, 0
126, 0, 0, 0
127, 0, 0, 0
128, 0, 0, 0
129, 0, 0, 0
130, 0, 0, 0
131, 0, 0, 0
132, 0, 0, 0
133, 0, 0, 0
134, 0, 0, 0
135, 0, 0, 0
136, 0, 0, 0
137, 0, 0, 0
138, 0, 0, 0
139, 0, 0, 0
140, 0, 0, 0
141, 0, 0, 0
142, 0, 0, 0
143, 0, 0, 0
144, 0, 0, 0
145, 0, 0, 0
146, 0, 0, 0
147, 0, 0, 0
148, 0, 0, 0
149, 0, 0, 0
150, 0, 0, 0
151, 0, 0, 0
152, 0, 0, 0
153, 0, 0, 0
154, 0, 0, 0
155, 0, 0, 0
156, 0, 0, 0
157, 0, 0, 0
158, 0, 0, 0
159, 0, 0, 0
160, 0, 0, 0
161, 0, 0, 0
162, 0, 0, 0
163, 0, 0, 0
164, 0, 0, 0
165, 0, 0, 0
166, 0, 0, 0
167, 0, 0, 0
168, 0, 0, 0
169, 0, 0, 0
170, 0, 0, 0
171, 0, 0, 0
172, 0, 0, 0
173, 0, 0, 0
174, 0, 0, 0
175, 0, 0, 0
176, 0, 0, 0
177, 0, 0, 0
178, 0, 0, 0
179, 0, 0, 0
