# TOPAS Version: 3.3.p1
# Parameter File: Simple_Pattern.txt
# Results for scorer MLIC_Scorer
# Scored in component: MLIC
# X in 180 bins of 0.222222 cm
# Y in 1 bin  of 10 cm
# Z in 1 bin  of 10 cm
# EnergyDeposit ( MeV ) : Sum   
0, 0, 0, 35.26687622070312
1, 0, 0, 37.97919845581055
2, 0, 0, 35.7274284362793
3, 0, 0, 36.084228515625
4, 0, 0, 35.91940689086914
5, 0, 0, 37.15298461914062
6, 0, 0, 36.1561393737793
7, 0, 0, 35.43167495727539
8, 0, 0, 37.06209564208984
9, 0, 0, 36.6728515625
10, 0, 0, 38.55132675170898
11, 0, 0, 37.29123306274414
12, 0, 0, 36.56700897216797
13, 0, 0, 36.38515090942383
14, 0, 0, 38.25978469848633
15, 0, 0, 37.80076217651367
16, 0, 0, 38.36543273925781
17, 0, 0, 39.67466735839844
18, 0, 0, 39.59149169921875
19, 0, 0, 40.49114227294922
20, 0, 0, 41.50764083862305
21, 0, 0, 39.30266571044922
22, 0, 0, 39.52767944335938
23, 0, 0, 40.84658432006836
24, 0, 0, 40.09598541259766
25, 0, 0, 40.59712219238281
26, 0, 0, 40.9181022644043
27, 0, 0, 41.43704223632812
28, 0, 0, 41.95159912109375
29, 0, 0, 39.96805953979492
30, 0, 0, 42.23159408569336
31, 0, 0, 41.96786499023438
32, 0, 0, 43.84139251708984
33, 0, 0, 43.00282669067383
34, 0, 0, 43.18178939819336
35, 0, 0, 43.50748443603516
36, 0, 0, 43.71867370605469
37, 0, 0, 44.53720092773438
38, 0, 0, 44.32429885864258
39, 0, 0, 44.67378616333008
40, 0, 0, 44.71757507324219
41, 0, 0, 45.59211730957031
42, 0, 0, 43.37045288085938
43, 0, 0, 46.35953521728516
44, 0, 0, 45.8118782043457
45, 0, 0, 46.02028656005859
46, 0, 0, 47.07442092895508
47, 0, 0, 48.83915328979492
48, 0, 0, 47.06695556640625
49, 0, 0, 48.13986206054688
50, 0, 0, 48.74626159667969
51, 0, 0, 47.94964218139648
52, 0, 0, 49.0713996887207
53, 0, 0, 50.94416427612305
54, 0, 0, 50.46737289428711
55, 0, 0, 50.65802001953125
56, 0, 0, 50.94518661499023
57, 0, 0, 53.31388473510742
58, 0, 0, 53.93435668945312
59, 0, 0, 52.33634567260742
60, 0, 0, 55.24859619140625
61, 0, 0, 54.38883590698242
62, 0, 0, 56.31902694702148
63, 0, 0, 57.40041351318359
64, 0, 0, 57.38018417358398
65, 0, 0, 58.72252655029297
66, 0, 0, 61.3447265625
67, 0, 0, 60.30096054077148
68, 0, 0, 60.26741409301758
69, 0, 0, 61.97339248657227
70, 0, 0, 64.28719329833984
71, 0, 0, 65.04555511474609
72, 0, 0, 65.90576934814453
73, 0, 0, 68.66078948974609
74, 0, 0, 69.70551300048828
75, 0, 0, 69.45919036865234
76, 0, 0, 72.18363952636719
77, 0, 0, 76.63788604736328
78, 0, 0, 77.22606658935547
79, 0, 0, 78.66327667236328
80, 0, 0, 83.26113128662109
81, 0, 0, 83.90608215332031
82, 0, 0, 88.02745056152344
83, 0, 0, 93.77588653564453
84, 0, 0, 97.52656555175781
85, 0, 0, 103.5853118896484
86, 0, 0, 107.8101577758789
87, 0, 0, 119.6020278930664
88, 0, 0, 131.1695709228516
89, 0, 0, 153.0836334228516
90, 0, 0, 179.6118316650391
91, 0, 0, 204.1216888427734
92, 0, 0, 188.5073394775391
93, 0, 0, 160.5715789794922
94, 0, 0, 82.80735015869141
95, 0, 0, 36.27699279785156
96, 0, 0, 12.13622760772705
97, 0, 0, 0
98, 0, 0, 0
99, 0, 0, 0
100, 0, 0, 0
101, 0, 0, 0
102, 0, 0, 0
103, 0, 0, 0
104, 0, 0, 0
105, 0, 0, 0
106, 0, 0, 0
107, 0, 0, 0
108, 0, 0, 0
109, 0, 0, 0
110, 0, 0, 0
111, 0, 0, 0
112, 0, 0, 0
113, 0, 0, 0
114, 0, 0, 0
115, 0, 0, 0
116, 0, 0, 0
117, 0, 0, 0
118, 0, 0, 0
119, 0, 0, 0
120, 0, 0, 0
121, 0, 0, 0
122, 0, 0, 0
123, 0, 0, 0
124, 0, 0, 0
125, 0, 0, 0
126, 0, 0, 0
127, 0, 0, 0
128, 0, 0, 0
129, 0, 0, 0
130, 0, 0, 0
131, 0, 0, 0
132, 0, 0, 0
133, 0, 0, 0
134, 0, 0, 0
135, 0, 0, 0
136, 0, 0, 0
137, 0, 0, 0
138, 0, 0, 0
139, 0, 0, 0
140, 0, 0, 0
141, 0, 0, 0
142, 0, 0, 0
143, 0, 0, 0
144, 0, 0, 0
145, 0, 0, 0
146, 0, 0, 0
147, 0, 0, 0
148, 0, 0, 0
149, 0, 0, 0
150, 0, 0, 0
151, 0, 0, 0
152, 0, 0, 0
153, 0, 0, 0
154, 0, 0, 0
155, 0, 0, 0
156, 0, 0, 0
157, 0, 0, 0
158, 0, 0, 0
159, 0, 0, 0
160, 0, 0, 0
161, 0, 0, 0
162, 0, 0, 0
163, 0, 0, 0
164, 0, 0, 0
165, 0, 0, 0
166, 0, 0, 0
167, 0, 0, 0
168, 0, 0, 0
169, 0, 0, 0
170, 0, 0, 0
171, 0, 0, 0
172, 0, 0, 0
173, 0, 0, 0
174, 0, 0, 0
175, 0, 0, 0
176, 0, 0, 0
177, 0, 0, 0
178, 0, 0, 0
179, 0, 0, 0
