# TOPAS Version: 3.3.p1
# Parameter File: Simple_Pattern.txt
# Results for scorer MLIC_Scorer
# Scored in component: MLIC
# X in 180 bins of 0.222222 cm
# Y in 1 bin  of 10 cm
# Z in 1 bin  of 10 cm
# EnergyDeposit ( MeV ) : Sum   
0, 0, 0, 39.60408782958984
1, 0, 0, 38.8687858581543
2, 0, 0, 39.66774749755859
3, 0, 0, 40.98685455322266
4, 0, 0, 39.97787475585938
5, 0, 0, 38.88981628417969
6, 0, 0, 40.39252090454102
7, 0, 0, 40.57253265380859
8, 0, 0, 38.62640380859375
9, 0, 0, 41.47610473632812
10, 0, 0, 41.21049118041992
11, 0, 0, 40.21629333496094
12, 0, 0, 40.96718215942383
13, 0, 0, 40.47629165649414
14, 0, 0, 42.23268890380859
15, 0, 0, 41.11423873901367
16, 0, 0, 41.28395080566406
17, 0, 0, 42.19395065307617
18, 0, 0, 42.1404914855957
19, 0, 0, 41.18574523925781
20, 0, 0, 44.04928970336914
21, 0, 0, 42.87583160400391
22, 0, 0, 44.44788360595703
23, 0, 0, 43.6341552734375
24, 0, 0, 44.26359176635742
25, 0, 0, 44.43170547485352
26, 0, 0, 44.83301162719727
27, 0, 0, 44.71426773071289
28, 0, 0, 43.12947082519531
29, 0, 0, 45.93590927124023
30, 0, 0, 45.27431869506836
31, 0, 0, 46.13004302978516
32, 0, 0, 46.1783332824707
33, 0, 0, 47.35475158691406
34, 0, 0, 46.06572723388672
35, 0, 0, 46.16988372802734
36, 0, 0, 45.95869827270508
37, 0, 0, 47.37179565429688
38, 0, 0, 48.6810302734375
39, 0, 0, 49.1065788269043
40, 0, 0, 49.58493423461914
41, 0, 0, 49.52710342407227
42, 0, 0, 49.40817260742188
43, 0, 0, 52.82545471191406
44, 0, 0, 50.50043869018555
45, 0, 0, 51.16991424560547
46, 0, 0, 51.11700439453125
47, 0, 0, 52.73456573486328
48, 0, 0, 51.35332870483398
49, 0, 0, 52.91706085205078
50, 0, 0, 52.33554458618164
51, 0, 0, 55.14409637451172
52, 0, 0, 55.04162216186523
53, 0, 0, 54.83321380615234
54, 0, 0, 55.59400939941406
55, 0, 0, 55.8396110534668
56, 0, 0, 56.98373031616211
57, 0, 0, 56.78406524658203
58, 0, 0, 58.44788360595703
59, 0, 0, 59.60339736938477
60, 0, 0, 60.02704238891602
61, 0, 0, 61.66816329956055
62, 0, 0, 61.75041961669922
63, 0, 0, 63.48730087280273
64, 0, 0, 63.80302810668945
65, 0, 0, 64.01547241210938
66, 0, 0, 64.22666168212891
67, 0, 0, 65.47457122802734
68, 0, 0, 66.92543029785156
69, 0, 0, 70.05509185791016
70, 0, 0, 68.65705871582031
71, 0, 0, 71.40282440185547
72, 0, 0, 72.60440826416016
73, 0, 0, 74.68446350097656
74, 0, 0, 75.35971069335938
75, 0, 0, 76.88105773925781
76, 0, 0, 78.81266021728516
77, 0, 0, 81.66245269775391
78, 0, 0, 84.01390075683594
79, 0, 0, 87.24201965332031
80, 0, 0, 90.53681945800781
81, 0, 0, 93.11442565917969
82, 0, 0, 98.85115814208984
83, 0, 0, 101.2936859130859
84, 0, 0, 106.4008560180664
85, 0, 0, 113.3923645019531
86, 0, 0, 120.4410858154297
87, 0, 0, 130.280517578125
88, 0, 0, 142.9774627685547
89, 0, 0, 163.6092224121094
90, 0, 0, 200.9030609130859
91, 0, 0, 235.1898956298828
92, 0, 0, 216.1447143554688
93, 0, 0, 196.8890838623047
94, 0, 0, 60.04970932006836
95, 0, 0, 26.69494819641113
96, 0, 0, 0
97, 0, 0, 0
98, 0, 0, 0
99, 0, 0, 0
100, 0, 0, 0
101, 0, 0, 0
102, 0, 0, 0
103, 0, 0, 0
104, 0, 0, 0
105, 0, 0, 0
106, 0, 0, 0
107, 0, 0, 0
108, 0, 0, 0
109, 0, 0, 0
110, 0, 0, 0
111, 0, 0, 0
112, 0, 0, 0
113, 0, 0, 0
114, 0, 0, 0
115, 0, 0, 0
116, 0, 0, 0
117, 0, 0, 0
118, 0, 0, 0
119, 0, 0, 0
120, 0, 0, 0
121, 0, 0, 0
122, 0, 0, 0
123, 0, 0, 0
124, 0, 0, 0
125, 0, 0, 0
126, 0, 0, 0
127, 0, 0, 0
128, 0, 0, 0
129, 0, 0, 0
130, 0, 0, 0
131, 0, 0, 0
132, 0, 0, 0
133, 0, 0, 0
134, 0, 0, 0
135, 0, 0, 0
136, 0, 0, 0
137, 0, 0, 0
138, 0, 0, 0
139, 0, 0, 0
140, 0, 0, 0
141, 0, 0, 0
142, 0, 0, 0
143, 0, 0, 0
144, 0, 0, 0
145, 0, 0, 0
146, 0, 0, 0
147, 0, 0, 0
148, 0, 0, 0
149, 0, 0, 0
150, 0, 0, 0
151, 0, 0, 0
152, 0, 0, 0
153, 0, 0, 0
154, 0, 0, 0
155, 0, 0, 0
156, 0, 0, 0
157, 0, 0, 0
158, 0, 0, 0
159, 0, 0, 0
160, 0, 0, 0
161, 0, 0, 0
162, 0, 0, 0
163, 0, 0, 0
164, 0, 0, 0
165, 0, 0, 0
166, 0, 0, 0
167, 0, 0, 0
168, 0, 0, 0
169, 0, 0, 0
170, 0, 0, 0
171, 0, 0, 0
172, 0, 0, 0
173, 0, 0, 0
174, 0, 0, 0
175, 0, 0, 0
176, 0, 0, 0
177, 0, 0, 0
178, 0, 0, 0
179, 0, 0, 0
