# TOPAS Version: 3.3.p1
# Parameter File: Simple_Pattern.txt
# Results for scorer MLIC_Scorer
# Scored in component: MLIC
# X in 180 bins of 0.222222 cm
# Y in 1 bin  of 10 cm
# Z in 1 bin  of 10 cm
# EnergyDeposit ( MeV ) : Sum   
0, 0, 0, 1091.837158203125
1, 0, 0, 1099.400390625
2, 0, 0, 1094.534912109375
3, 0, 0, 1100.4970703125
4, 0, 0, 1097.480224609375
5, 0, 0, 1095.666748046875
6, 0, 0, 1105.377075195312
7, 0, 0, 1117.978881835938
8, 0, 0, 1122.729125976562
9, 0, 0, 1133.512939453125
10, 0, 0, 1134.074340820312
11, 0, 0, 1143.921630859375
12, 0, 0, 1143.912109375
13, 0, 0, 1149.280639648438
14, 0, 0, 1158.955932617188
15, 0, 0, 1163.247924804688
16, 0, 0, 1176.452514648438
17, 0, 0, 1171.293334960938
18, 0, 0, 1181.242309570312
19, 0, 0, 1190.91259765625
20, 0, 0, 1207.260009765625
21, 0, 0, 1206.095825195312
22, 0, 0, 1202.432373046875
23, 0, 0, 1210.527954101562
24, 0, 0, 1221.842651367188
25, 0, 0, 1215.8046875
26, 0, 0, 1228.3232421875
27, 0, 0, 1237.274658203125
28, 0, 0, 1245.622924804688
29, 0, 0, 1259.941162109375
30, 0, 0, 1266.882934570312
31, 0, 0, 1285.063110351562
32, 0, 0, 1288.490844726562
33, 0, 0, 1286.38232421875
34, 0, 0, 1303.362060546875
35, 0, 0, 1318.6064453125
36, 0, 0, 1318.71337890625
37, 0, 0, 1334.53955078125
38, 0, 0, 1338.540161132812
39, 0, 0, 1344.258056640625
40, 0, 0, 1360.165649414062
41, 0, 0, 1365.91943359375
42, 0, 0, 1373.687255859375
43, 0, 0, 1386.419067382812
44, 0, 0, 1398.677490234375
45, 0, 0, 1419.078491210938
46, 0, 0, 1428.789428710938
47, 0, 0, 1435.15966796875
48, 0, 0, 1453.14208984375
49, 0, 0, 1462.173461914062
50, 0, 0, 1476.739501953125
51, 0, 0, 1489.16455078125
52, 0, 0, 1509.288696289062
53, 0, 0, 1523.92919921875
54, 0, 0, 1544.767700195312
55, 0, 0, 1560.16162109375
56, 0, 0, 1591.859619140625
57, 0, 0, 1598.50537109375
58, 0, 0, 1615.747192382812
59, 0, 0, 1628.045532226562
60, 0, 0, 1661.706787109375
61, 0, 0, 1684.741821289062
62, 0, 0, 1702.0400390625
63, 0, 0, 1719.561279296875
64, 0, 0, 1745.656982421875
65, 0, 0, 1773.815185546875
66, 0, 0, 1809.80908203125
67, 0, 0, 1824.376098632812
68, 0, 0, 1865.744262695312
69, 0, 0, 1900.73828125
70, 0, 0, 1936.699951171875
71, 0, 0, 1978.065307617188
72, 0, 0, 2013.898315429688
73, 0, 0, 2049.66259765625
74, 0, 0, 2104.855712890625
75, 0, 0, 2152.73388671875
76, 0, 0, 2201.870849609375
77, 0, 0, 2263.654052734375
78, 0, 0, 2332.757568359375
79, 0, 0, 2406.17578125
80, 0, 0, 2493.673095703125
81, 0, 0, 2572.72509765625
82, 0, 0, 2682.100341796875
83, 0, 0, 2807.8154296875
84, 0, 0, 2968.79296875
85, 0, 0, 3117.931884765625
86, 0, 0, 3329.53369140625
87, 0, 0, 3617.997802734375
88, 0, 0, 4022.688720703125
89, 0, 0, 4552.71533203125
90, 0, 0, 5266.46923828125
91, 0, 0, 6154.80859375
92, 0, 0, 5930.923828125
93, 0, 0, 4253.47607421875
94, 0, 0, 2158.669189453125
95, 0, 0, 693.2885131835938
96, 0, 0, 212.3450775146484
97, 0, 0, 17.39735221862793
98, 0, 0, 0
99, 0, 0, 0
100, 0, 0, 0
101, 0, 0, 0.03435960412025452
102, 0, 0, 0
103, 0, 0, 0
104, 0, 0, 0
105, 0, 0, 0
106, 0, 0, 0
107, 0, 0, 0
108, 0, 0, 0
109, 0, 0, 0
110, 0, 0, 0.04839633777737617
111, 0, 0, 0
112, 0, 0, 0
113, 0, 0, 0
114, 0, 0, 0
115, 0, 0, 0
116, 0, 0, 0
117, 0, 0, 0
118, 0, 0, 0
119, 0, 0, 0
120, 0, 0, 0
121, 0, 0, 0
122, 0, 0, 0
123, 0, 0, 0
124, 0, 0, 0
125, 0, 0, 0
126, 0, 0, 0
127, 0, 0, 0
128, 0, 0, 0
129, 0, 0, 0.01891800574958324
130, 0, 0, 0
131, 0, 0, 0
132, 0, 0, 0
133, 0, 0, 0
134, 0, 0, 0
135, 0, 0, 0
136, 0, 0, 0
137, 0, 0, 0
138, 0, 0, 0
139, 0, 0, 0
140, 0, 0, 0
141, 0, 0, 0
142, 0, 0, 0
143, 0, 0, 0
144, 0, 0, 0
145, 0, 0, 0
146, 0, 0, 0
147, 0, 0, 0
148, 0, 0, 0.0414254441857338
149, 0, 0, 0
150, 0, 0, 0
151, 0, 0, 0
152, 0, 0, 0
153, 0, 0, 0
154, 0, 0, 0
155, 0, 0, 0
156, 0, 0, 0
157, 0, 0, 0
158, 0, 0, 0
159, 0, 0, 0
160, 0, 0, 0
161, 0, 0, 0
162, 0, 0, 0
163, 0, 0, 0
164, 0, 0, 0
165, 0, 0, 0
166, 0, 0, 0
167, 0, 0, 0
168, 0, 0, 0
169, 0, 0, 0
170, 0, 0, 0
171, 0, 0, 0
172, 0, 0, 0
173, 0, 0, 0
174, 0, 0, 0
175, 0, 0, 0.04801140353083611
176, 0, 0, 0
177, 0, 0, 0
178, 0, 0, 0
179, 0, 0, 0
