# TOPAS Version: 3.3.p1
# Parameter File: Simple_Pattern.txt
# Results for scorer MLIC_Scorer
# Scored in component: MLIC
# X in 180 bins of 0.222222 cm
# Y in 1 bin  of 10 cm
# Z in 1 bin  of 10 cm
# EnergyDeposit ( MeV ) : Sum   
0, 0, 0, 1086.457153320312
1, 0, 0, 1094.603149414062
2, 0, 0, 1097.375244140625
3, 0, 0, 1099.640258789062
4, 0, 0, 1108.583129882812
5, 0, 0, 1110.4677734375
6, 0, 0, 1118.884521484375
7, 0, 0, 1118.685302734375
8, 0, 0, 1123.511962890625
9, 0, 0, 1141.586547851562
10, 0, 0, 1142.4658203125
11, 0, 0, 1143.14892578125
12, 0, 0, 1150.437255859375
13, 0, 0, 1154.973022460938
14, 0, 0, 1160.527099609375
15, 0, 0, 1158.233520507812
16, 0, 0, 1177.98388671875
17, 0, 0, 1186.082275390625
18, 0, 0, 1183.167114257812
19, 0, 0, 1194.266967773438
20, 0, 0, 1192.8125
21, 0, 0, 1195.590698242188
22, 0, 0, 1200.067138671875
23, 0, 0, 1212.489135742188
24, 0, 0, 1212.463745117188
25, 0, 0, 1231.10009765625
26, 0, 0, 1232.141479492188
27, 0, 0, 1246.234619140625
28, 0, 0, 1244.760009765625
29, 0, 0, 1261.282836914062
30, 0, 0, 1263.822631835938
31, 0, 0, 1276.940795898438
32, 0, 0, 1287.939575195312
33, 0, 0, 1294.280517578125
34, 0, 0, 1302.07861328125
35, 0, 0, 1311.298706054688
36, 0, 0, 1315.915771484375
37, 0, 0, 1330.797119140625
38, 0, 0, 1338.9189453125
39, 0, 0, 1354.585693359375
40, 0, 0, 1357.574584960938
41, 0, 0, 1372.642944335938
42, 0, 0, 1383.348999023438
43, 0, 0, 1394.954467773438
44, 0, 0, 1405.475952148438
45, 0, 0, 1415.04638671875
46, 0, 0, 1428.32568359375
47, 0, 0, 1441.535278320312
48, 0, 0, 1458.135375976562
49, 0, 0, 1468.211303710938
50, 0, 0, 1486.494018554688
51, 0, 0, 1493.395141601562
52, 0, 0, 1508.222900390625
53, 0, 0, 1523.916381835938
54, 0, 0, 1541.8154296875
55, 0, 0, 1561.246948242188
56, 0, 0, 1582.341796875
57, 0, 0, 1599.251220703125
58, 0, 0, 1614.311889648438
59, 0, 0, 1630.83447265625
60, 0, 0, 1665.056030273438
61, 0, 0, 1682.453247070312
62, 0, 0, 1708.114013671875
63, 0, 0, 1720.935424804688
64, 0, 0, 1755.571655273438
65, 0, 0, 1780.612548828125
66, 0, 0, 1813.992065429688
67, 0, 0, 1836.682006835938
68, 0, 0, 1866.7099609375
69, 0, 0, 1906.549926757812
70, 0, 0, 1939.350341796875
71, 0, 0, 1970.203369140625
72, 0, 0, 2014.816650390625
73, 0, 0, 2059.734130859375
74, 0, 0, 2094.7548828125
75, 0, 0, 2147.318603515625
76, 0, 0, 2205.0185546875
77, 0, 0, 2261.10791015625
78, 0, 0, 2332.4736328125
79, 0, 0, 2401.82421875
80, 0, 0, 2484.508544921875
81, 0, 0, 2589.76611328125
82, 0, 0, 2683.000732421875
83, 0, 0, 2820.86376953125
84, 0, 0, 2953.18359375
85, 0, 0, 3125.756103515625
86, 0, 0, 3343.518798828125
87, 0, 0, 3636.440673828125
88, 0, 0, 4045.299560546875
89, 0, 0, 4624.48828125
90, 0, 0, 5335.552734375
91, 0, 0, 6120.78076171875
92, 0, 0, 5875.2958984375
93, 0, 0, 4061.33935546875
94, 0, 0, 2279.445556640625
95, 0, 0, 777.7453002929688
96, 0, 0, 124.4420318603516
97, 0, 0, 8.790932655334473
98, 0, 0, 0.03653645515441895
99, 0, 0, 0.03433280810713768
100, 0, 0, 0
101, 0, 0, 0
102, 0, 0, 0
103, 0, 0, 0.02091145515441895
104, 0, 0, 0.005612788256257772
105, 0, 0, 0
106, 0, 0, 0.008489261381328106
107, 0, 0, 0
108, 0, 0, 0
109, 0, 0, 0
110, 0, 0, 0
111, 0, 0, 0
112, 0, 0, 0
113, 0, 0, 0
114, 0, 0, 0
115, 0, 0, 0
116, 0, 0, 0.002906244480982423
117, 0, 0, 0
118, 0, 0, 0
119, 0, 0, 0.01080123335123062
120, 0, 0, 0
121, 0, 0, 0
122, 0, 0, 0
123, 0, 0, 0
124, 0, 0, 0
125, 0, 0, 0
126, 0, 0, 0
127, 0, 0, 0
128, 0, 0, 0
129, 0, 0, 0
130, 0, 0, 0
131, 0, 0, 0.003275762079283595
132, 0, 0, 0
133, 0, 0, 0
134, 0, 0, 0
135, 0, 0, 0
136, 0, 0, 0
137, 0, 0, 0
138, 0, 0, 0
139, 0, 0, 0
140, 0, 0, 0
141, 0, 0, 0
142, 0, 0, 0
143, 0, 0, 0
144, 0, 0, 0
145, 0, 0, 0
146, 0, 0, 0
147, 0, 0, 0
148, 0, 0, 0
149, 0, 0, 0
150, 0, 0, 0
151, 0, 0, 0.05321583896875381
152, 0, 0, 0
153, 0, 0, 0
154, 0, 0, 0
155, 0, 0, 0
156, 0, 0, 0
157, 0, 0, 0
158, 0, 0, 0
159, 0, 0, 0
160, 0, 0, 0
161, 0, 0, 0
162, 0, 0, 0
163, 0, 0, 0
164, 0, 0, 0
165, 0, 0, 0
166, 0, 0, 0
167, 0, 0, 0
168, 0, 0, 0
169, 0, 0, 0
170, 0, 0, 0
171, 0, 0, 0
172, 0, 0, 0
173, 0, 0, 0
174, 0, 0, 0
175, 0, 0, 0
176, 0, 0, 0
177, 0, 0, 0
178, 0, 0, 0
179, 0, 0, 0
