# TOPAS Version: 3.3.p1
# Parameter File: Simple_Pattern.txt
# Results for scorer MLIC_Scorer
# Scored in component: MLIC
# X in 180 bins of 0.222222 cm
# Y in 1 bin  of 10 cm
# Z in 1 bin  of 10 cm
# EnergyDeposit ( MeV ) : Sum   
0, 0, 0, 44.62642288208008
1, 0, 0, 43.58710479736328
2, 0, 0, 45.68854522705078
3, 0, 0, 45.21926116943359
4, 0, 0, 45.4292106628418
5, 0, 0, 46.4792366027832
6, 0, 0, 47.85165786743164
7, 0, 0, 45.64987945556641
8, 0, 0, 45.79130172729492
9, 0, 0, 45.38449096679688
10, 0, 0, 47.92072677612305
11, 0, 0, 44.78175354003906
12, 0, 0, 46.34996032714844
13, 0, 0, 47.35322570800781
14, 0, 0, 46.22283172607422
15, 0, 0, 45.97333908081055
16, 0, 0, 48.15149688720703
17, 0, 0, 49.42179107666016
18, 0, 0, 49.83797454833984
19, 0, 0, 48.09845733642578
20, 0, 0, 50.10576629638672
21, 0, 0, 49.43435287475586
22, 0, 0, 49.85135650634766
23, 0, 0, 50.32308959960938
24, 0, 0, 49.60261917114258
25, 0, 0, 50.77902984619141
26, 0, 0, 49.8530387878418
27, 0, 0, 52.71126174926758
28, 0, 0, 51.36724090576172
29, 0, 0, 50.83582305908203
30, 0, 0, 51.96025085449219
31, 0, 0, 52.79152679443359
32, 0, 0, 52.08375930786133
33, 0, 0, 52.42684936523438
34, 0, 0, 52.67766571044922
35, 0, 0, 52.9997444152832
36, 0, 0, 53.78095626831055
37, 0, 0, 53.97040939331055
38, 0, 0, 55.38767242431641
39, 0, 0, 52.71955108642578
40, 0, 0, 54.2868766784668
41, 0, 0, 58.24168014526367
42, 0, 0, 57.07657623291016
43, 0, 0, 58.21049499511719
44, 0, 0, 57.67301940917969
45, 0, 0, 58.17547225952148
46, 0, 0, 59.26782989501953
47, 0, 0, 58.42081832885742
48, 0, 0, 60.28741455078125
49, 0, 0, 61.08448028564453
50, 0, 0, 59.49372482299805
51, 0, 0, 59.86302185058594
52, 0, 0, 61.39176940917969
53, 0, 0, 62.56364059448242
54, 0, 0, 63.1577262878418
55, 0, 0, 64.22225952148438
56, 0, 0, 64.65139007568359
57, 0, 0, 66.29252624511719
58, 0, 0, 65.09366607666016
59, 0, 0, 67.89675140380859
60, 0, 0, 69.17656707763672
61, 0, 0, 68.40798950195312
62, 0, 0, 69.51451873779297
63, 0, 0, 69.66410827636719
64, 0, 0, 72.37316131591797
65, 0, 0, 71.08238220214844
66, 0, 0, 73.01784515380859
67, 0, 0, 74.06015014648438
68, 0, 0, 77.92658233642578
69, 0, 0, 80.62409210205078
70, 0, 0, 76.97503662109375
71, 0, 0, 81.66692352294922
72, 0, 0, 81.14808654785156
73, 0, 0, 84.94319915771484
74, 0, 0, 84.37224578857422
75, 0, 0, 88.85858154296875
76, 0, 0, 91.51851654052734
77, 0, 0, 94.08806610107422
78, 0, 0, 95.85304260253906
79, 0, 0, 100.4527282714844
80, 0, 0, 102.1031341552734
81, 0, 0, 107.0371932983398
82, 0, 0, 110.1648330688477
83, 0, 0, 115.0607528686523
84, 0, 0, 121.5027389526367
85, 0, 0, 128.3630065917969
86, 0, 0, 136.591796875
87, 0, 0, 149.8272247314453
88, 0, 0, 164.471923828125
89, 0, 0, 194.3727264404297
90, 0, 0, 210.0594177246094
91, 0, 0, 260.7472534179688
92, 0, 0, 283.0986633300781
93, 0, 0, 168.0584716796875
94, 0, 0, 97.80994415283203
95, 0, 0, 27.42946815490723
96, 0, 0, 0
97, 0, 0, 0
98, 0, 0, 0
99, 0, 0, 0
100, 0, 0, 0
101, 0, 0, 0
102, 0, 0, 0
103, 0, 0, 0
104, 0, 0, 0
105, 0, 0, 0
106, 0, 0, 0
107, 0, 0, 0
108, 0, 0, 0
109, 0, 0, 0
110, 0, 0, 0
111, 0, 0, 0
112, 0, 0, 0
113, 0, 0, 0
114, 0, 0, 0
115, 0, 0, 0
116, 0, 0, 0
117, 0, 0, 0
118, 0, 0, 0
119, 0, 0, 0
120, 0, 0, 0
121, 0, 0, 0
122, 0, 0, 0
123, 0, 0, 0
124, 0, 0, 0
125, 0, 0, 0
126, 0, 0, 0
127, 0, 0, 0
128, 0, 0, 0
129, 0, 0, 0
130, 0, 0, 0
131, 0, 0, 0
132, 0, 0, 0
133, 0, 0, 0
134, 0, 0, 0
135, 0, 0, 0
136, 0, 0, 0
137, 0, 0, 0
138, 0, 0, 0
139, 0, 0, 0
140, 0, 0, 0
141, 0, 0, 0
142, 0, 0, 0
143, 0, 0, 0
144, 0, 0, 0
145, 0, 0, 0
146, 0, 0, 0
147, 0, 0, 0
148, 0, 0, 0
149, 0, 0, 0
150, 0, 0, 0
151, 0, 0, 0
152, 0, 0, 0
153, 0, 0, 0
154, 0, 0, 0
155, 0, 0, 0
156, 0, 0, 0
157, 0, 0, 0
158, 0, 0, 0
159, 0, 0, 0
160, 0, 0, 0
161, 0, 0, 0
162, 0, 0, 0
163, 0, 0, 0
164, 0, 0, 0
165, 0, 0, 0
166, 0, 0, 0
167, 0, 0, 0
168, 0, 0, 0
169, 0, 0, 0
170, 0, 0, 0
171, 0, 0, 0
172, 0, 0, 0
173, 0, 0, 0
174, 0, 0, 0
175, 0, 0, 0
176, 0, 0, 0
177, 0, 0, 0
178, 0, 0, 0
179, 0, 0, 0
