# TOPAS Version: 3.3.p1
# Parameter File: Simple_Pattern.txt
# Results for scorer MLIC_Scorer
# Scored in component: MLIC
# X in 180 bins of 0.222222 cm
# Y in 1 bin  of 10 cm
# Z in 1 bin  of 10 cm
# EnergyDeposit ( MeV ) : Sum   
0, 0, 0, 62.36817932128906
1, 0, 0, 59.75303649902344
2, 0, 0, 61.02569580078125
3, 0, 0, 62.61672973632812
4, 0, 0, 61.74566268920898
5, 0, 0, 63.57904815673828
6, 0, 0, 61.40474319458008
7, 0, 0, 61.87306594848633
8, 0, 0, 63.61925506591797
9, 0, 0, 62.76404571533203
10, 0, 0, 64.33476257324219
11, 0, 0, 62.88830184936523
12, 0, 0, 65.71786499023438
13, 0, 0, 65.05246734619141
14, 0, 0, 65.99501800537109
15, 0, 0, 65.99369049072266
16, 0, 0, 67.29521179199219
17, 0, 0, 67.9649658203125
18, 0, 0, 66.48593139648438
19, 0, 0, 68.06608581542969
20, 0, 0, 68.37030792236328
21, 0, 0, 69.23127746582031
22, 0, 0, 69.99583435058594
23, 0, 0, 72.70406341552734
24, 0, 0, 70.31549072265625
25, 0, 0, 72.55511474609375
26, 0, 0, 70.16242980957031
27, 0, 0, 71.62646484375
28, 0, 0, 72.10796356201172
29, 0, 0, 74.38105773925781
30, 0, 0, 73.30778503417969
31, 0, 0, 73.76293182373047
32, 0, 0, 76.54139709472656
33, 0, 0, 77.6815185546875
34, 0, 0, 77.08488464355469
35, 0, 0, 76.39064025878906
36, 0, 0, 77.72026062011719
37, 0, 0, 77.48530578613281
38, 0, 0, 80.26193237304688
39, 0, 0, 80.99062347412109
40, 0, 0, 80.69428253173828
41, 0, 0, 82.60240173339844
42, 0, 0, 81.73525238037109
43, 0, 0, 85.49697875976562
44, 0, 0, 83.80039215087891
45, 0, 0, 83.81251525878906
46, 0, 0, 86.27154541015625
47, 0, 0, 87.54396820068359
48, 0, 0, 87.21718597412109
49, 0, 0, 90.48182678222656
50, 0, 0, 91.21346282958984
51, 0, 0, 90.55945587158203
52, 0, 0, 92.92038726806641
53, 0, 0, 94.88785552978516
54, 0, 0, 96.95024108886719
55, 0, 0, 100.1250305175781
56, 0, 0, 99.99779510498047
57, 0, 0, 101.8164672851562
58, 0, 0, 104.3103637695312
59, 0, 0, 103.9624176025391
60, 0, 0, 109.7693710327148
61, 0, 0, 111.2998123168945
62, 0, 0, 112.9186401367188
63, 0, 0, 116.7855072021484
64, 0, 0, 121.4456329345703
65, 0, 0, 122.6484069824219
66, 0, 0, 128.5295562744141
67, 0, 0, 133.0979309082031
68, 0, 0, 137.265625
69, 0, 0, 142.0444488525391
70, 0, 0, 149.7232513427734
71, 0, 0, 157.2008666992188
72, 0, 0, 164.7484893798828
73, 0, 0, 178.3739471435547
74, 0, 0, 192.6193084716797
75, 0, 0, 215.4260101318359
76, 0, 0, 232.0534210205078
77, 0, 0, 271.3936767578125
78, 0, 0, 319.013916015625
79, 0, 0, 308.7387390136719
80, 0, 0, 235.4866638183594
81, 0, 0, 142.4830932617188
82, 0, 0, 58.35271835327148
83, 0, 0, 26.67557907104492
84, 0, 0, 10.74727153778076
85, 0, 0, 3.634312868118286
86, 0, 0, 4.105274677276611
87, 0, 0, 4.404189109802246
88, 0, 0, 5.456651210784912
89, 0, 0, 6.599957942962646
90, 0, 0, 12.87851905822754
91, 0, 0, 0
92, 0, 0, 0
93, 0, 0, 0
94, 0, 0, 0
95, 0, 0, 0
96, 0, 0, 0
97, 0, 0, 0
98, 0, 0, 0
99, 0, 0, 0
100, 0, 0, 0
101, 0, 0, 0
102, 0, 0, 0
103, 0, 0, 0
104, 0, 0, 0
105, 0, 0, 0
106, 0, 0, 0
107, 0, 0, 0
108, 0, 0, 0
109, 0, 0, 0
110, 0, 0, 0
111, 0, 0, 0
112, 0, 0, 0
113, 0, 0, 0
114, 0, 0, 0
115, 0, 0, 0
116, 0, 0, 0
117, 0, 0, 0
118, 0, 0, 0
119, 0, 0, 0
120, 0, 0, 0
121, 0, 0, 0
122, 0, 0, 0
123, 0, 0, 0
124, 0, 0, 0
125, 0, 0, 0
126, 0, 0, 0
127, 0, 0, 0
128, 0, 0, 0
129, 0, 0, 0
130, 0, 0, 0
131, 0, 0, 0
132, 0, 0, 0
133, 0, 0, 0
134, 0, 0, 0
135, 0, 0, 0
136, 0, 0, 0
137, 0, 0, 0
138, 0, 0, 0
139, 0, 0, 0
140, 0, 0, 0
141, 0, 0, 0
142, 0, 0, 0
143, 0, 0, 0
144, 0, 0, 0
145, 0, 0, 0
146, 0, 0, 0
147, 0, 0, 0
148, 0, 0, 0
149, 0, 0, 0
150, 0, 0, 0
151, 0, 0, 0
152, 0, 0, 0
153, 0, 0, 0
154, 0, 0, 0
155, 0, 0, 0
156, 0, 0, 0
157, 0, 0, 0
158, 0, 0, 0
159, 0, 0, 0
160, 0, 0, 0
161, 0, 0, 0
162, 0, 0, 0
163, 0, 0, 0
164, 0, 0, 0
165, 0, 0, 0
166, 0, 0, 0
167, 0, 0, 0
168, 0, 0, 0
169, 0, 0, 0
170, 0, 0, 0
171, 0, 0, 0
172, 0, 0, 0
173, 0, 0, 0
174, 0, 0, 0
175, 0, 0, 0
176, 0, 0, 0
177, 0, 0, 0
178, 0, 0, 0
179, 0, 0, 0
