# TOPAS Version: 3.3.p1
# Parameter File: Simple_Pattern.txt
# Results for scorer MLIC_Scorer
# Scored in component: MLIC
# X in 180 bins of 0.222222 cm
# Y in 1 bin  of 10 cm
# Z in 1 bin  of 10 cm
# EnergyDeposit ( MeV ) : Sum   
0, 0, 0, 79.71132659912109
1, 0, 0, 77.13554382324219
2, 0, 0, 80.22786712646484
3, 0, 0, 83.22490692138672
4, 0, 0, 82.72371673583984
5, 0, 0, 81.46121215820312
6, 0, 0, 83.13592529296875
7, 0, 0, 81.67089080810547
8, 0, 0, 81.29795074462891
9, 0, 0, 82.80833435058594
10, 0, 0, 81.748046875
11, 0, 0, 83.31832885742188
12, 0, 0, 82.36394500732422
13, 0, 0, 84.25243377685547
14, 0, 0, 85.08628845214844
15, 0, 0, 88.11432647705078
16, 0, 0, 85.37213134765625
17, 0, 0, 85.19132232666016
18, 0, 0, 90.32550048828125
19, 0, 0, 86.74990081787109
20, 0, 0, 90.04258728027344
21, 0, 0, 86.60031890869141
22, 0, 0, 91.68991851806641
23, 0, 0, 87.94318389892578
24, 0, 0, 89.86268615722656
25, 0, 0, 89.45482635498047
26, 0, 0, 90.66950225830078
27, 0, 0, 91.63313293457031
28, 0, 0, 92.05422973632812
29, 0, 0, 90.97870635986328
30, 0, 0, 93.68943023681641
31, 0, 0, 95.10272216796875
32, 0, 0, 93.27342224121094
33, 0, 0, 94.26885223388672
34, 0, 0, 96.31420135498047
35, 0, 0, 99.28476715087891
36, 0, 0, 97.7420654296875
37, 0, 0, 100.0340576171875
38, 0, 0, 98.67240142822266
39, 0, 0, 100.533088684082
40, 0, 0, 102.8007278442383
41, 0, 0, 99.98749542236328
42, 0, 0, 101.5664749145508
43, 0, 0, 104.3046035766602
44, 0, 0, 104.2029266357422
45, 0, 0, 104.5188980102539
46, 0, 0, 106.79150390625
47, 0, 0, 107.880973815918
48, 0, 0, 108.4874114990234
49, 0, 0, 108.2074508666992
50, 0, 0, 108.970832824707
51, 0, 0, 111.9934310913086
52, 0, 0, 109.6188507080078
53, 0, 0, 115.2588577270508
54, 0, 0, 114.7643432617188
55, 0, 0, 115.2929458618164
56, 0, 0, 117.1458435058594
57, 0, 0, 118.9728088378906
58, 0, 0, 119.8265762329102
59, 0, 0, 123.1954650878906
60, 0, 0, 122.9827499389648
61, 0, 0, 123.1677017211914
62, 0, 0, 126.4717483520508
63, 0, 0, 130.5674591064453
64, 0, 0, 131.426513671875
65, 0, 0, 132.2480621337891
66, 0, 0, 135.5503540039062
67, 0, 0, 135.4996490478516
68, 0, 0, 141.2098083496094
69, 0, 0, 141.0755615234375
70, 0, 0, 143.4775695800781
71, 0, 0, 145.2320251464844
72, 0, 0, 148.8456726074219
73, 0, 0, 154.5479125976562
74, 0, 0, 155.2755737304688
75, 0, 0, 161.9110565185547
76, 0, 0, 162.251953125
77, 0, 0, 170.5786590576172
78, 0, 0, 173.6850280761719
79, 0, 0, 179.4117126464844
80, 0, 0, 183.5644683837891
81, 0, 0, 194.3447570800781
82, 0, 0, 200.9108123779297
83, 0, 0, 210.5674438476562
84, 0, 0, 221.1614685058594
85, 0, 0, 235.8284149169922
86, 0, 0, 250.7503204345703
87, 0, 0, 273.9807739257812
88, 0, 0, 308.5795593261719
89, 0, 0, 350.5421447753906
90, 0, 0, 422.2001037597656
91, 0, 0, 423.7445373535156
92, 0, 0, 396.6080322265625
93, 0, 0, 295.9501647949219
94, 0, 0, 196.7425537109375
95, 0, 0, 71.4798583984375
96, 0, 0, 4.768555641174316
97, 0, 0, 0
98, 0, 0, 0
99, 0, 0, 0
100, 0, 0, 0
101, 0, 0, 0
102, 0, 0, 0
103, 0, 0, 0
104, 0, 0, 0
105, 0, 0, 0
106, 0, 0, 0
107, 0, 0, 0
108, 0, 0, 0
109, 0, 0, 0
110, 0, 0, 0
111, 0, 0, 0
112, 0, 0, 0
113, 0, 0, 0
114, 0, 0, 0
115, 0, 0, 0
116, 0, 0, 0
117, 0, 0, 0
118, 0, 0, 0
119, 0, 0, 0
120, 0, 0, 0
121, 0, 0, 0
122, 0, 0, 0
123, 0, 0, 0
124, 0, 0, 0
125, 0, 0, 0
126, 0, 0, 0
127, 0, 0, 0
128, 0, 0, 0
129, 0, 0, 0
130, 0, 0, 0
131, 0, 0, 0
132, 0, 0, 0
133, 0, 0, 0
134, 0, 0, 0
135, 0, 0, 0
136, 0, 0, 0
137, 0, 0, 0
138, 0, 0, 0
139, 0, 0, 0
140, 0, 0, 0
141, 0, 0, 0
142, 0, 0, 0
143, 0, 0, 0
144, 0, 0, 0
145, 0, 0, 0
146, 0, 0, 0
147, 0, 0, 0
148, 0, 0, 0
149, 0, 0, 0
150, 0, 0, 0
151, 0, 0, 0
152, 0, 0, 0
153, 0, 0, 0
154, 0, 0, 0
155, 0, 0, 0
156, 0, 0, 0
157, 0, 0, 0
158, 0, 0, 0
159, 0, 0, 0
160, 0, 0, 0
161, 0, 0, 0
162, 0, 0, 0
163, 0, 0, 0
164, 0, 0, 0
165, 0, 0, 0
166, 0, 0, 0
167, 0, 0, 0
168, 0, 0, 0
169, 0, 0, 0
170, 0, 0, 0
171, 0, 0, 0
172, 0, 0, 0
173, 0, 0, 0
174, 0, 0, 0
175, 0, 0, 0
176, 0, 0, 0
177, 0, 0, 0
178, 0, 0, 0
179, 0, 0, 0
