# TOPAS Version: 3.3.p1
# Parameter File: Simple_Pattern.txt
# Results for scorer MLIC_Scorer
# Scored in component: MLIC
# X in 180 bins of 0.222222 cm
# Y in 1 bin  of 10 cm
# Z in 1 bin  of 10 cm
# EnergyDeposit ( MeV ) : Sum   
0, 0, 0, 37.20388031005859
1, 0, 0, 38.29898834228516
2, 0, 0, 39.45089340209961
3, 0, 0, 37.35102844238281
4, 0, 0, 39.78830718994141
5, 0, 0, 38.82016372680664
6, 0, 0, 38.08902740478516
7, 0, 0, 40.94806671142578
8, 0, 0, 38.47465896606445
9, 0, 0, 40.70157623291016
10, 0, 0, 40.31105804443359
11, 0, 0, 38.73196792602539
12, 0, 0, 39.40618133544922
13, 0, 0, 40.47284317016602
14, 0, 0, 40.42094421386719
15, 0, 0, 41.98823928833008
16, 0, 0, 40.89191436767578
17, 0, 0, 39.80001831054688
18, 0, 0, 40.49914932250977
19, 0, 0, 41.60720443725586
20, 0, 0, 42.44711303710938
21, 0, 0, 43.80350875854492
22, 0, 0, 42.5540657043457
23, 0, 0, 43.283447265625
24, 0, 0, 40.49428176879883
25, 0, 0, 42.6650390625
26, 0, 0, 43.22447204589844
27, 0, 0, 44.46157073974609
28, 0, 0, 44.55307769775391
29, 0, 0, 43.59279632568359
30, 0, 0, 44.33201599121094
31, 0, 0, 43.15226745605469
32, 0, 0, 44.52029418945312
33, 0, 0, 45.2490119934082
34, 0, 0, 45.85182189941406
35, 0, 0, 45.04665374755859
36, 0, 0, 45.69937515258789
37, 0, 0, 46.84850311279297
38, 0, 0, 48.39956283569336
39, 0, 0, 47.70653533935547
40, 0, 0, 47.31969451904297
41, 0, 0, 47.41494369506836
42, 0, 0, 49.7547721862793
43, 0, 0, 47.90415954589844
44, 0, 0, 50.34713745117188
45, 0, 0, 49.1600456237793
46, 0, 0, 49.68985748291016
47, 0, 0, 48.85345840454102
48, 0, 0, 51.40918350219727
49, 0, 0, 51.07918167114258
50, 0, 0, 51.79629516601562
51, 0, 0, 54.4022331237793
52, 0, 0, 51.32795333862305
53, 0, 0, 52.94601058959961
54, 0, 0, 53.21883392333984
55, 0, 0, 55.48540496826172
56, 0, 0, 56.25165939331055
57, 0, 0, 56.30071258544922
58, 0, 0, 55.59803771972656
59, 0, 0, 55.95047760009766
60, 0, 0, 57.95798873901367
61, 0, 0, 57.33245468139648
62, 0, 0, 58.18654632568359
63, 0, 0, 61.87295913696289
64, 0, 0, 62.38132858276367
65, 0, 0, 62.40668106079102
66, 0, 0, 64.34580993652344
67, 0, 0, 64.859619140625
68, 0, 0, 65.93132019042969
69, 0, 0, 65.77942657470703
70, 0, 0, 66.7418212890625
71, 0, 0, 69.04627227783203
72, 0, 0, 69.87236785888672
73, 0, 0, 71.16875457763672
74, 0, 0, 73.24667358398438
75, 0, 0, 74.50001525878906
76, 0, 0, 78.88957977294922
77, 0, 0, 79.55846405029297
78, 0, 0, 80.91119384765625
79, 0, 0, 83.22332763671875
80, 0, 0, 86.59642028808594
81, 0, 0, 90.46300506591797
82, 0, 0, 93.33563995361328
83, 0, 0, 97.91397857666016
84, 0, 0, 102.3813781738281
85, 0, 0, 108.8709182739258
86, 0, 0, 116.4416198730469
87, 0, 0, 126.087760925293
88, 0, 0, 138.0887451171875
89, 0, 0, 159.6263732910156
90, 0, 0, 180.8805999755859
91, 0, 0, 214.5592651367188
92, 0, 0, 252.1393432617188
93, 0, 0, 147.0301666259766
94, 0, 0, 91.85662078857422
95, 0, 0, 25.38676452636719
96, 0, 0, 7.736003875732422
97, 0, 0, 0
98, 0, 0, 0
99, 0, 0, 0
100, 0, 0, 0
101, 0, 0, 0
102, 0, 0, 0
103, 0, 0, 0
104, 0, 0, 0
105, 0, 0, 0
106, 0, 0, 0
107, 0, 0, 0
108, 0, 0, 0
109, 0, 0, 0
110, 0, 0, 0
111, 0, 0, 0
112, 0, 0, 0
113, 0, 0, 0
114, 0, 0, 0
115, 0, 0, 0
116, 0, 0, 0
117, 0, 0, 0
118, 0, 0, 0
119, 0, 0, 0
120, 0, 0, 0
121, 0, 0, 0
122, 0, 0, 0
123, 0, 0, 0
124, 0, 0, 0
125, 0, 0, 0
126, 0, 0, 0
127, 0, 0, 0
128, 0, 0, 0
129, 0, 0, 0
130, 0, 0, 0
131, 0, 0, 0
132, 0, 0, 0
133, 0, 0, 0
134, 0, 0, 0
135, 0, 0, 0
136, 0, 0, 0
137, 0, 0, 0
138, 0, 0, 0
139, 0, 0, 0
140, 0, 0, 0
141, 0, 0, 0
142, 0, 0, 0
143, 0, 0, 0
144, 0, 0, 0
145, 0, 0, 0
146, 0, 0, 0
147, 0, 0, 0
148, 0, 0, 0
149, 0, 0, 0
150, 0, 0, 0
151, 0, 0, 0
152, 0, 0, 0
153, 0, 0, 0
154, 0, 0, 0
155, 0, 0, 0
156, 0, 0, 0
157, 0, 0, 0
158, 0, 0, 0
159, 0, 0, 0
160, 0, 0, 0
161, 0, 0, 0
162, 0, 0, 0
163, 0, 0, 0
164, 0, 0, 0
165, 0, 0, 0
166, 0, 0, 0
167, 0, 0, 0
168, 0, 0, 0
169, 0, 0, 0
170, 0, 0, 0
171, 0, 0, 0
172, 0, 0, 0
173, 0, 0, 0
174, 0, 0, 0
175, 0, 0, 0
176, 0, 0, 0
177, 0, 0, 0
178, 0, 0, 0
179, 0, 0, 0
