# TOPAS Version: 3.3.p1
# Parameter File: Simple_Pattern.txt
# Results for scorer MLIC_Scorer
# Scored in component: MLIC
# X in 180 bins of 0.222222 cm
# Y in 1 bin  of 10 cm
# Z in 1 bin  of 10 cm
# EnergyDeposit ( MeV ) : Sum   
0, 0, 0, 1087.6572265625
1, 0, 0, 1085.54443359375
2, 0, 0, 1099.354858398438
3, 0, 0, 1101.771484375
4, 0, 0, 1107.647827148438
5, 0, 0, 1110.038208007812
6, 0, 0, 1124.077392578125
7, 0, 0, 1120.500366210938
8, 0, 0, 1125.660522460938
9, 0, 0, 1129.660278320312
10, 0, 0, 1133.501831054688
11, 0, 0, 1133.5517578125
12, 0, 0, 1147.199829101562
13, 0, 0, 1149.77294921875
14, 0, 0, 1159.092895507812
15, 0, 0, 1167.387329101562
16, 0, 0, 1167.492919921875
17, 0, 0, 1182.919921875
18, 0, 0, 1194.648803710938
19, 0, 0, 1183.318359375
20, 0, 0, 1192.556640625
21, 0, 0, 1204.692749023438
22, 0, 0, 1208.255981445312
23, 0, 0, 1223.79931640625
24, 0, 0, 1224.065063476562
25, 0, 0, 1224.861450195312
26, 0, 0, 1238.001342773438
27, 0, 0, 1244.855590820312
28, 0, 0, 1241.140991210938
29, 0, 0, 1257.60498046875
30, 0, 0, 1268.965454101562
31, 0, 0, 1276.050048828125
32, 0, 0, 1287.070922851562
33, 0, 0, 1299.4619140625
34, 0, 0, 1303.178100585938
35, 0, 0, 1313.144409179688
36, 0, 0, 1322.798095703125
37, 0, 0, 1332.440551757812
38, 0, 0, 1345.379516601562
39, 0, 0, 1347.557495117188
40, 0, 0, 1359.358642578125
41, 0, 0, 1368.057250976562
42, 0, 0, 1377.839477539062
43, 0, 0, 1394.343383789062
44, 0, 0, 1404.18603515625
45, 0, 0, 1416.858764648438
46, 0, 0, 1425.403564453125
47, 0, 0, 1447.416137695312
48, 0, 0, 1458.201416015625
49, 0, 0, 1475.628295898438
50, 0, 0, 1481.383178710938
51, 0, 0, 1495.29833984375
52, 0, 0, 1513.148803710938
53, 0, 0, 1525.258544921875
54, 0, 0, 1542.560302734375
55, 0, 0, 1558.708984375
56, 0, 0, 1578.331298828125
57, 0, 0, 1595.277465820312
58, 0, 0, 1616.805786132812
59, 0, 0, 1638.966064453125
60, 0, 0, 1650.353393554688
61, 0, 0, 1677.953369140625
62, 0, 0, 1696.347900390625
63, 0, 0, 1714.094604492188
64, 0, 0, 1759.150390625
65, 0, 0, 1779.171508789062
66, 0, 0, 1804.306640625
67, 0, 0, 1830.541259765625
68, 0, 0, 1858.409423828125
69, 0, 0, 1905.458862304688
70, 0, 0, 1933.047607421875
71, 0, 0, 1979.532592773438
72, 0, 0, 2003.305908203125
73, 0, 0, 2054.6689453125
74, 0, 0, 2100.874755859375
75, 0, 0, 2147.28857421875
76, 0, 0, 2204.493896484375
77, 0, 0, 2269.875
78, 0, 0, 2332.840576171875
79, 0, 0, 2397.054931640625
80, 0, 0, 2487.337890625
81, 0, 0, 2582.21142578125
82, 0, 0, 2696.9462890625
83, 0, 0, 2812.781005859375
84, 0, 0, 2957.150146484375
85, 0, 0, 3130.812744140625
86, 0, 0, 3353.007568359375
87, 0, 0, 3636.148193359375
88, 0, 0, 4037.130615234375
89, 0, 0, 4609.83984375
90, 0, 0, 5567.6103515625
91, 0, 0, 6179.787109375
92, 0, 0, 5813.1748046875
93, 0, 0, 4453.29150390625
94, 0, 0, 2003.9794921875
95, 0, 0, 735.9369506835938
96, 0, 0, 77.84295654296875
97, 0, 0, 0.02251415327191353
98, 0, 0, 0
99, 0, 0, 0
100, 0, 0, 0
101, 0, 0, 0
102, 0, 0, 0
103, 0, 0, 0
104, 0, 0, 0
105, 0, 0, 0
106, 0, 0, 0
107, 0, 0, 0
108, 0, 0, 0
109, 0, 0, 0
110, 0, 0, 0
111, 0, 0, 0
112, 0, 0, 0
113, 0, 0, 0
114, 0, 0, 0
115, 0, 0, 0
116, 0, 0, 0
117, 0, 0, 0
118, 0, 0, 0
119, 0, 0, 0
120, 0, 0, 0
121, 0, 0, 0
122, 0, 0, 0
123, 0, 0, 0
124, 0, 0, 0
125, 0, 0, 0
126, 0, 0, 0
127, 0, 0, 0
128, 0, 0, 0
129, 0, 0, 0
130, 0, 0, 0
131, 0, 0, 0
132, 0, 0, 0.03451461344957352
133, 0, 0, 0
134, 0, 0, 0
135, 0, 0, 0
136, 0, 0, 0
137, 0, 0, 0
138, 0, 0, 0
139, 0, 0, 0
140, 0, 0, 0.004341913387179375
141, 0, 0, 0
142, 0, 0, 0
143, 0, 0, 0
144, 0, 0, 0
145, 0, 0, 0
146, 0, 0, 0
147, 0, 0, 0
148, 0, 0, 0
149, 0, 0, 0
150, 0, 0, 0
151, 0, 0, 0
152, 0, 0, 0
153, 0, 0, 0
154, 0, 0, 0
155, 0, 0, 0
156, 0, 0, 0
157, 0, 0, 0
158, 0, 0, 0
159, 0, 0, 0
160, 0, 0, 0
161, 0, 0, 0
162, 0, 0, 0
163, 0, 0, 0
164, 0, 0, 0
165, 0, 0, 0
166, 0, 0, 0
167, 0, 0, 0
168, 0, 0, 0
169, 0, 0, 0
170, 0, 0, 0
171, 0, 0, 0
172, 0, 0, 0
173, 0, 0, 0
174, 0, 0, 0
175, 0, 0, 0
176, 0, 0, 0
177, 0, 0, 0
178, 0, 0, 0
179, 0, 0, 0
