# TOPAS Version: 3.3.p1
# Parameter File: Simple_Pattern.txt
# Results for scorer MLIC_Scorer
# Scored in component: MLIC
# X in 180 bins of 0.222222 cm
# Y in 1 bin  of 10 cm
# Z in 1 bin  of 10 cm
# EnergyDeposit ( MeV ) : Sum   
0, 0, 0, 46.97649383544922
1, 0, 0, 47.95845031738281
2, 0, 0, 46.61192321777344
3, 0, 0, 47.13827133178711
4, 0, 0, 47.480224609375
5, 0, 0, 47.53133010864258
6, 0, 0, 47.68671417236328
7, 0, 0, 48.50827026367188
8, 0, 0, 48.71323394775391
9, 0, 0, 47.7681999206543
10, 0, 0, 50.56649398803711
11, 0, 0, 49.43277359008789
12, 0, 0, 50.7529411315918
13, 0, 0, 49.78567504882812
14, 0, 0, 49.89682769775391
15, 0, 0, 48.680908203125
16, 0, 0, 49.38962173461914
17, 0, 0, 50.76128387451172
18, 0, 0, 51.3964729309082
19, 0, 0, 52.60950088500977
20, 0, 0, 51.29372406005859
21, 0, 0, 51.59273529052734
22, 0, 0, 50.63502883911133
23, 0, 0, 50.93521118164062
24, 0, 0, 51.58174896240234
25, 0, 0, 52.24205017089844
26, 0, 0, 52.05467224121094
27, 0, 0, 54.39658737182617
28, 0, 0, 52.37527465820312
29, 0, 0, 53.16503143310547
30, 0, 0, 54.22389984130859
31, 0, 0, 55.31448364257812
32, 0, 0, 55.34174728393555
33, 0, 0, 55.97776794433594
34, 0, 0, 55.07424926757812
35, 0, 0, 55.22275161743164
36, 0, 0, 56.70451354980469
37, 0, 0, 56.31702423095703
38, 0, 0, 57.26472854614258
39, 0, 0, 58.07126235961914
40, 0, 0, 56.98590469360352
41, 0, 0, 59.73513412475586
42, 0, 0, 59.34495162963867
43, 0, 0, 61.36268997192383
44, 0, 0, 59.8484992980957
45, 0, 0, 63.42860412597656
46, 0, 0, 62.42517471313477
47, 0, 0, 63.32166290283203
48, 0, 0, 62.40206146240234
49, 0, 0, 62.94863128662109
50, 0, 0, 66.06620788574219
51, 0, 0, 66.31626892089844
52, 0, 0, 63.80495834350586
53, 0, 0, 65.84324645996094
54, 0, 0, 65.61652374267578
55, 0, 0, 67.68385314941406
56, 0, 0, 67.63739013671875
57, 0, 0, 70.48579406738281
58, 0, 0, 70.76229095458984
59, 0, 0, 71.28562927246094
60, 0, 0, 72.46060180664062
61, 0, 0, 72.15898895263672
62, 0, 0, 72.06450653076172
63, 0, 0, 75.27626800537109
64, 0, 0, 75.2158203125
65, 0, 0, 78.73345184326172
66, 0, 0, 77.58468627929688
67, 0, 0, 79.76988220214844
68, 0, 0, 79.18179321289062
69, 0, 0, 82.76657104492188
70, 0, 0, 82.47901153564453
71, 0, 0, 85.96198272705078
72, 0, 0, 86.43083190917969
73, 0, 0, 90.23897552490234
74, 0, 0, 91.29705810546875
75, 0, 0, 94.52393341064453
76, 0, 0, 95.724609375
77, 0, 0, 99.54917144775391
78, 0, 0, 101.2391052246094
79, 0, 0, 105.8959045410156
80, 0, 0, 109.4381561279297
81, 0, 0, 113.0175476074219
82, 0, 0, 118.0003128051758
83, 0, 0, 122.5766067504883
84, 0, 0, 129.5850067138672
85, 0, 0, 135.6298980712891
86, 0, 0, 147.3700866699219
87, 0, 0, 160.3497161865234
88, 0, 0, 178.5976715087891
89, 0, 0, 206.2294769287109
90, 0, 0, 233.9997863769531
91, 0, 0, 256.3106384277344
92, 0, 0, 231.1492767333984
93, 0, 0, 150.0119476318359
94, 0, 0, 92.03710174560547
95, 0, 0, 48.83544158935547
96, 0, 0, 3.266437530517578
97, 0, 0, 0
98, 0, 0, 0
99, 0, 0, 0
100, 0, 0, 0
101, 0, 0, 0
102, 0, 0, 0
103, 0, 0, 0
104, 0, 0, 0
105, 0, 0, 0
106, 0, 0, 0
107, 0, 0, 0
108, 0, 0, 0
109, 0, 0, 0
110, 0, 0, 0
111, 0, 0, 0
112, 0, 0, 0
113, 0, 0, 0
114, 0, 0, 0
115, 0, 0, 0
116, 0, 0, 0
117, 0, 0, 0
118, 0, 0, 0
119, 0, 0, 0
120, 0, 0, 0
121, 0, 0, 0
122, 0, 0, 0
123, 0, 0, 0
124, 0, 0, 0
125, 0, 0, 0
126, 0, 0, 0
127, 0, 0, 0
128, 0, 0, 0
129, 0, 0, 0
130, 0, 0, 0
131, 0, 0, 0
132, 0, 0, 0
133, 0, 0, 0
134, 0, 0, 0
135, 0, 0, 0
136, 0, 0, 0
137, 0, 0, 0
138, 0, 0, 0
139, 0, 0, 0
140, 0, 0, 0
141, 0, 0, 0
142, 0, 0, 0
143, 0, 0, 0
144, 0, 0, 0
145, 0, 0, 0
146, 0, 0, 0
147, 0, 0, 0
148, 0, 0, 0
149, 0, 0, 0
150, 0, 0, 0
151, 0, 0, 0
152, 0, 0, 0
153, 0, 0, 0
154, 0, 0, 0
155, 0, 0, 0
156, 0, 0, 0
157, 0, 0, 0
158, 0, 0, 0
159, 0, 0, 0
160, 0, 0, 0
161, 0, 0, 0
162, 0, 0, 0
163, 0, 0, 0
164, 0, 0, 0
165, 0, 0, 0
166, 0, 0, 0
167, 0, 0, 0
168, 0, 0, 0
169, 0, 0, 0
170, 0, 0, 0
171, 0, 0, 0
172, 0, 0, 0
173, 0, 0, 0
174, 0, 0, 0
175, 0, 0, 0
176, 0, 0, 0
177, 0, 0, 0
178, 0, 0, 0
179, 0, 0, 0
