# TOPAS Version: 3.3.p1
# Parameter File: Simple_Pattern.txt
# Results for scorer MLIC_Scorer
# Scored in component: MLIC
# X in 180 bins of 0.222222 cm
# Y in 1 bin  of 10 cm
# Z in 1 bin  of 10 cm
# EnergyDeposit ( MeV ) : Sum   
0, 0, 0, 1152.022705078125
1, 0, 0, 1156.02099609375
2, 0, 0, 1171.080688476562
3, 0, 0, 1176.871948242188
4, 0, 0, 1177.640869140625
5, 0, 0, 1193.316650390625
6, 0, 0, 1187.297973632812
7, 0, 0, 1192.742065429688
8, 0, 0, 1204.0244140625
9, 0, 0, 1214.218872070312
10, 0, 0, 1220.986206054688
11, 0, 0, 1225.878295898438
12, 0, 0, 1230.579956054688
13, 0, 0, 1233.34033203125
14, 0, 0, 1239.72705078125
15, 0, 0, 1255.716674804688
16, 0, 0, 1256.719848632812
17, 0, 0, 1269.197387695312
18, 0, 0, 1273.696411132812
19, 0, 0, 1280.2548828125
20, 0, 0, 1293.1640625
21, 0, 0, 1296.852416992188
22, 0, 0, 1307.389770507812
23, 0, 0, 1312.094604492188
24, 0, 0, 1319.891235351562
25, 0, 0, 1333.257446289062
26, 0, 0, 1351.057983398438
27, 0, 0, 1359.492553710938
28, 0, 0, 1373.255493164062
29, 0, 0, 1374.966430664062
30, 0, 0, 1390.770263671875
31, 0, 0, 1409.296997070312
32, 0, 0, 1421.248168945312
33, 0, 0, 1430.349975585938
34, 0, 0, 1439.944580078125
35, 0, 0, 1462.048461914062
36, 0, 0, 1466.35107421875
37, 0, 0, 1478.025756835938
38, 0, 0, 1499.633422851562
39, 0, 0, 1513.070434570312
40, 0, 0, 1518.799682617188
41, 0, 0, 1539.625366210938
42, 0, 0, 1558.806762695312
43, 0, 0, 1581.230102539062
44, 0, 0, 1598.74853515625
45, 0, 0, 1618.316284179688
46, 0, 0, 1640.871215820312
47, 0, 0, 1657.058349609375
48, 0, 0, 1677.204345703125
49, 0, 0, 1695.173461914062
50, 0, 0, 1730.758666992188
51, 0, 0, 1746.873779296875
52, 0, 0, 1775.172485351562
53, 0, 0, 1798.8671875
54, 0, 0, 1840.301147460938
55, 0, 0, 1867.632202148438
56, 0, 0, 1908.213500976562
57, 0, 0, 1936.194580078125
58, 0, 0, 1977.155395507812
59, 0, 0, 2016.545776367188
60, 0, 0, 2061.55419921875
61, 0, 0, 2107.574951171875
62, 0, 0, 2151.292236328125
63, 0, 0, 2209.46435546875
64, 0, 0, 2274.361083984375
65, 0, 0, 2346.523193359375
66, 0, 0, 2410.893798828125
67, 0, 0, 2503.5556640625
68, 0, 0, 2588.663330078125
69, 0, 0, 2696.625732421875
70, 0, 0, 2818.614501953125
71, 0, 0, 2958.237548828125
72, 0, 0, 3142.385009765625
73, 0, 0, 3362.175048828125
74, 0, 0, 3634.990966796875
75, 0, 0, 4040.583740234375
76, 0, 0, 4666.31494140625
77, 0, 0, 5427.64208984375
78, 0, 0, 6144.59521484375
79, 0, 0, 5794.3310546875
80, 0, 0, 4391.88720703125
81, 0, 0, 2496.744140625
82, 0, 0, 859.4024047851562
83, 0, 0, 238.4647369384766
84, 0, 0, 128.1770935058594
85, 0, 0, 80.23197937011719
86, 0, 0, 73.53913116455078
87, 0, 0, 76.47733306884766
88, 0, 0, 59.16412353515625
89, 0, 0, 35.20625305175781
90, 0, 0, 23.63936614990234
91, 0, 0, 14.23348903656006
92, 0, 0, 6.978282928466797
93, 0, 0, 12.94305419921875
94, 0, 0, 0
95, 0, 0, 0
96, 0, 0, 0
97, 0, 0, 0
98, 0, 0, 0
99, 0, 0, 0
100, 0, 0, 0
101, 0, 0, 0
102, 0, 0, 0
103, 0, 0, 0
104, 0, 0, 0
105, 0, 0, 0
106, 0, 0, 0
107, 0, 0, 0
108, 0, 0, 0
109, 0, 0, 0
110, 0, 0, 0
111, 0, 0, 0
112, 0, 0, 0
113, 0, 0, 0
114, 0, 0, 0
115, 0, 0, 0
116, 0, 0, 0
117, 0, 0, 0
118, 0, 0, 0
119, 0, 0, 0
120, 0, 0, 0
121, 0, 0, 0
122, 0, 0, 0
123, 0, 0, 0
124, 0, 0, 0
125, 0, 0, 0
126, 0, 0, 0
127, 0, 0, 0
128, 0, 0, 0
129, 0, 0, 0
130, 0, 0, 0
131, 0, 0, 0
132, 0, 0, 0
133, 0, 0, 0
134, 0, 0, 0
135, 0, 0, 0
136, 0, 0, 0
137, 0, 0, 0
138, 0, 0, 0
139, 0, 0, 0
140, 0, 0, 0
141, 0, 0, 0
142, 0, 0, 0
143, 0, 0, 0
144, 0, 0, 0
145, 0, 0, 0
146, 0, 0, 0
147, 0, 0, 0
148, 0, 0, 0
149, 0, 0, 0
150, 0, 0, 0
151, 0, 0, 0
152, 0, 0, 0
153, 0, 0, 0
154, 0, 0, 0
155, 0, 0, 0
156, 0, 0, 0
157, 0, 0, 0
158, 0, 0, 0
159, 0, 0, 0
160, 0, 0, 0
161, 0, 0, 0
162, 0, 0, 0
163, 0, 0, 0
164, 0, 0, 0
165, 0, 0, 0
166, 0, 0, 0
167, 0, 0, 0
168, 0, 0, 0
169, 0, 0, 0
170, 0, 0, 0
171, 0, 0, 0
172, 0, 0, 0
173, 0, 0, 0
174, 0, 0, 0
175, 0, 0, 0
176, 0, 0, 0
177, 0, 0, 0
178, 0, 0, 0
179, 0, 0, 0
