# TOPAS Version: 3.3.p1
# Parameter File: Simple_Pattern.txt
# Results for scorer MLIC_Scorer
# Scored in component: MLIC
# X in 180 bins of 0.222222 cm
# Y in 1 bin  of 10 cm
# Z in 1 bin  of 10 cm
# EnergyDeposit ( MeV ) : Sum   
0, 0, 0, 41.94754028320312
1, 0, 0, 43.61453247070312
2, 0, 0, 42.132080078125
3, 0, 0, 42.60151672363281
4, 0, 0, 42.19738006591797
5, 0, 0, 41.52682876586914
6, 0, 0, 41.49208068847656
7, 0, 0, 42.89123916625977
8, 0, 0, 43.14138412475586
9, 0, 0, 43.6050910949707
10, 0, 0, 43.73451614379883
11, 0, 0, 43.65916061401367
12, 0, 0, 45.56376266479492
13, 0, 0, 44.68045806884766
14, 0, 0, 44.76975250244141
15, 0, 0, 45.53759002685547
16, 0, 0, 45.30021667480469
17, 0, 0, 45.54730224609375
18, 0, 0, 45.30521392822266
19, 0, 0, 46.22434997558594
20, 0, 0, 47.15974044799805
21, 0, 0, 49.05276870727539
22, 0, 0, 47.50126647949219
23, 0, 0, 47.95184707641602
24, 0, 0, 47.90054702758789
25, 0, 0, 48.24211883544922
26, 0, 0, 47.80226516723633
27, 0, 0, 49.04516983032227
28, 0, 0, 49.34419631958008
29, 0, 0, 49.34278869628906
30, 0, 0, 49.68302536010742
31, 0, 0, 48.65958404541016
32, 0, 0, 49.84169006347656
33, 0, 0, 49.84308242797852
34, 0, 0, 51.66051483154297
35, 0, 0, 51.04059982299805
36, 0, 0, 52.06775665283203
37, 0, 0, 51.53944778442383
38, 0, 0, 52.03269195556641
39, 0, 0, 53.01794815063477
40, 0, 0, 53.11977386474609
41, 0, 0, 53.20314025878906
42, 0, 0, 53.68791580200195
43, 0, 0, 54.46484756469727
44, 0, 0, 54.6818962097168
45, 0, 0, 55.4204216003418
46, 0, 0, 54.65464782714844
47, 0, 0, 56.30302810668945
48, 0, 0, 56.03216552734375
49, 0, 0, 57.47411346435547
50, 0, 0, 58.0323600769043
51, 0, 0, 58.92826843261719
52, 0, 0, 58.21414947509766
53, 0, 0, 58.99066543579102
54, 0, 0, 61.39638519287109
55, 0, 0, 59.3776969909668
56, 0, 0, 62.2332649230957
57, 0, 0, 62.77392959594727
58, 0, 0, 63.26375579833984
59, 0, 0, 65.45877838134766
60, 0, 0, 66.50715637207031
61, 0, 0, 67.6092529296875
62, 0, 0, 66.68894195556641
63, 0, 0, 67.97092437744141
64, 0, 0, 68.07606506347656
65, 0, 0, 69.60030364990234
66, 0, 0, 69.91861724853516
67, 0, 0, 71.47675323486328
68, 0, 0, 70.5440673828125
69, 0, 0, 73.45825958251953
70, 0, 0, 75.71504974365234
71, 0, 0, 76.54720306396484
72, 0, 0, 78.44870758056641
73, 0, 0, 80.31085205078125
74, 0, 0, 82.11087036132812
75, 0, 0, 81.52243804931641
76, 0, 0, 84.06674957275391
77, 0, 0, 89.89602661132812
78, 0, 0, 89.95572662353516
79, 0, 0, 93.63352966308594
80, 0, 0, 96.14698791503906
81, 0, 0, 99.44052124023438
82, 0, 0, 104.2475738525391
83, 0, 0, 110.794319152832
84, 0, 0, 115.1074066162109
85, 0, 0, 122.3241958618164
86, 0, 0, 130.1735534667969
87, 0, 0, 140.0227813720703
88, 0, 0, 153.6548156738281
89, 0, 0, 176.0897369384766
90, 0, 0, 227.4552459716797
91, 0, 0, 231.3656311035156
92, 0, 0, 237.2308197021484
93, 0, 0, 183.9781494140625
94, 0, 0, 92.05200958251953
95, 0, 0, 31.25654792785645
96, 0, 0, 18.57987785339355
97, 0, 0, 4.676066398620605
98, 0, 0, 0
99, 0, 0, 0
100, 0, 0, 0
101, 0, 0, 0
102, 0, 0, 0
103, 0, 0, 0
104, 0, 0, 0
105, 0, 0, 0
106, 0, 0, 0
107, 0, 0, 0
108, 0, 0, 0
109, 0, 0, 0
110, 0, 0, 0
111, 0, 0, 0
112, 0, 0, 0
113, 0, 0, 0
114, 0, 0, 0
115, 0, 0, 0
116, 0, 0, 0
117, 0, 0, 0
118, 0, 0, 0
119, 0, 0, 0
120, 0, 0, 0
121, 0, 0, 0
122, 0, 0, 0
123, 0, 0, 0
124, 0, 0, 0
125, 0, 0, 0
126, 0, 0, 0
127, 0, 0, 0
128, 0, 0, 0
129, 0, 0, 0
130, 0, 0, 0
131, 0, 0, 0
132, 0, 0, 0
133, 0, 0, 0
134, 0, 0, 0
135, 0, 0, 0
136, 0, 0, 0
137, 0, 0, 0
138, 0, 0, 0
139, 0, 0, 0
140, 0, 0, 0
141, 0, 0, 0
142, 0, 0, 0
143, 0, 0, 0
144, 0, 0, 0
145, 0, 0, 0
146, 0, 0, 0
147, 0, 0, 0
148, 0, 0, 0
149, 0, 0, 0
150, 0, 0, 0
151, 0, 0, 0
152, 0, 0, 0
153, 0, 0, 0
154, 0, 0, 0
155, 0, 0, 0
156, 0, 0, 0
157, 0, 0, 0
158, 0, 0, 0
159, 0, 0, 0
160, 0, 0, 0
161, 0, 0, 0
162, 0, 0, 0
163, 0, 0, 0
164, 0, 0, 0
165, 0, 0, 0
166, 0, 0, 0
167, 0, 0, 0
168, 0, 0, 0
169, 0, 0, 0
170, 0, 0, 0
171, 0, 0, 0
172, 0, 0, 0
173, 0, 0, 0
174, 0, 0, 0
175, 0, 0, 0
176, 0, 0, 0
177, 0, 0, 0
178, 0, 0, 0
179, 0, 0, 0
