# TOPAS Version: 3.3.p1
# Parameter File: Simple_Pattern.txt
# Results for scorer MLIC_Scorer
# Scored in component: MLIC
# X in 180 bins of 0.222222 cm
# Y in 1 bin  of 10 cm
# Z in 1 bin  of 10 cm
# EnergyDeposit ( MeV ) : Sum   
0, 0, 0, 38.02811431884766
1, 0, 0, 39.66071701049805
2, 0, 0, 39.90724563598633
3, 0, 0, 38.25094223022461
4, 0, 0, 40.23046493530273
5, 0, 0, 40.92311096191406
6, 0, 0, 40.32376861572266
7, 0, 0, 41.33156204223633
8, 0, 0, 41.00568008422852
9, 0, 0, 41.54814910888672
10, 0, 0, 41.43043518066406
11, 0, 0, 41.18550872802734
12, 0, 0, 41.00559234619141
13, 0, 0, 39.46414566040039
14, 0, 0, 41.95953369140625
15, 0, 0, 42.72520065307617
16, 0, 0, 41.93106079101562
17, 0, 0, 41.90618896484375
18, 0, 0, 43.47903060913086
19, 0, 0, 42.53828811645508
20, 0, 0, 43.16256332397461
21, 0, 0, 43.35789108276367
22, 0, 0, 45.2784423828125
23, 0, 0, 43.82194519042969
24, 0, 0, 45.72713088989258
25, 0, 0, 45.90045928955078
26, 0, 0, 45.86288833618164
27, 0, 0, 44.04177093505859
28, 0, 0, 46.18928909301758
29, 0, 0, 45.97682571411133
30, 0, 0, 46.52633285522461
31, 0, 0, 47.44263076782227
32, 0, 0, 47.576171875
33, 0, 0, 46.40032196044922
34, 0, 0, 47.04841995239258
35, 0, 0, 49.23427200317383
36, 0, 0, 48.73253631591797
37, 0, 0, 51.15730667114258
38, 0, 0, 50.38946914672852
39, 0, 0, 48.6691780090332
40, 0, 0, 51.64535522460938
41, 0, 0, 50.7629508972168
42, 0, 0, 52.46812438964844
43, 0, 0, 52.99732971191406
44, 0, 0, 51.17780685424805
45, 0, 0, 51.81804656982422
46, 0, 0, 54.28313827514648
47, 0, 0, 52.91329956054688
48, 0, 0, 55.65481948852539
49, 0, 0, 55.92079544067383
50, 0, 0, 56.60258102416992
51, 0, 0, 57.41485977172852
52, 0, 0, 58.09500885009766
53, 0, 0, 57.52036666870117
54, 0, 0, 58.55673599243164
55, 0, 0, 60.13506698608398
56, 0, 0, 60.17278671264648
57, 0, 0, 60.50832748413086
58, 0, 0, 63.01666259765625
59, 0, 0, 63.44286727905273
60, 0, 0, 64.66252136230469
61, 0, 0, 66.41476440429688
62, 0, 0, 68.43582916259766
63, 0, 0, 69.30979919433594
64, 0, 0, 69.48747253417969
65, 0, 0, 70.33762359619141
66, 0, 0, 73.49066925048828
67, 0, 0, 75.53810119628906
68, 0, 0, 78.22927856445312
69, 0, 0, 79.94951629638672
70, 0, 0, 82.54122161865234
71, 0, 0, 85.13027954101562
72, 0, 0, 87.76887512207031
73, 0, 0, 94.23267364501953
74, 0, 0, 98.90049743652344
75, 0, 0, 105.1105728149414
76, 0, 0, 117.0966796875
77, 0, 0, 131.2148590087891
78, 0, 0, 127.2019653320312
79, 0, 0, 164.6986846923828
80, 0, 0, 126.2548065185547
81, 0, 0, 88.42858123779297
82, 0, 0, 62.90933227539062
83, 0, 0, 63.67028427124023
84, 0, 0, 71.93151092529297
85, 0, 0, 80.74427795410156
86, 0, 0, 77.57696533203125
87, 0, 0, 81.81591033935547
88, 0, 0, 78.62522888183594
89, 0, 0, 64.95020294189453
90, 0, 0, 71.53659820556641
91, 0, 0, 88.50468444824219
92, 0, 0, 79.94706726074219
93, 0, 0, 91.19425201416016
94, 0, 0, 39.92764663696289
95, 0, 0, 19.63344383239746
96, 0, 0, 5.198630809783936
97, 0, 0, 0
98, 0, 0, 0
99, 0, 0, 0
100, 0, 0, 0
101, 0, 0, 0
102, 0, 0, 0
103, 0, 0, 0
104, 0, 0, 0
105, 0, 0, 0
106, 0, 0, 0
107, 0, 0, 0
108, 0, 0, 0
109, 0, 0, 0
110, 0, 0, 0
111, 0, 0, 0
112, 0, 0, 0
113, 0, 0, 0
114, 0, 0, 0
115, 0, 0, 0
116, 0, 0, 0
117, 0, 0, 0
118, 0, 0, 0
119, 0, 0, 0
120, 0, 0, 0
121, 0, 0, 0
122, 0, 0, 0
123, 0, 0, 0
124, 0, 0, 0
125, 0, 0, 0
126, 0, 0, 0
127, 0, 0, 0
128, 0, 0, 0
129, 0, 0, 0
130, 0, 0, 0
131, 0, 0, 0
132, 0, 0, 0
133, 0, 0, 0
134, 0, 0, 0
135, 0, 0, 0
136, 0, 0, 0
137, 0, 0, 0
138, 0, 0, 0
139, 0, 0, 0
140, 0, 0, 0
141, 0, 0, 0
142, 0, 0, 0
143, 0, 0, 0
144, 0, 0, 0
145, 0, 0, 0
146, 0, 0, 0
147, 0, 0, 0
148, 0, 0, 0
149, 0, 0, 0
150, 0, 0, 0
151, 0, 0, 0
152, 0, 0, 0
153, 0, 0, 0
154, 0, 0, 0
155, 0, 0, 0
156, 0, 0, 0
157, 0, 0, 0
158, 0, 0, 0
159, 0, 0, 0
160, 0, 0, 0
161, 0, 0, 0
162, 0, 0, 0
163, 0, 0, 0
164, 0, 0, 0
165, 0, 0, 0
166, 0, 0, 0
167, 0, 0, 0
168, 0, 0, 0
169, 0, 0, 0
170, 0, 0, 0
171, 0, 0, 0
172, 0, 0, 0
173, 0, 0, 0
174, 0, 0, 0
175, 0, 0, 0
176, 0, 0, 0
177, 0, 0, 0
178, 0, 0, 0
179, 0, 0, 0
