# TOPAS Version: 3.3.p1
# Parameter File: Simple_Pattern.txt
# Results for scorer MLIC_Scorer
# Scored in component: MLIC
# X in 165 bins of 0.2 cm
# Y in 1 bin  of 10 cm
# Z in 1 bin  of 10 cm
# EnergyDeposit ( MeV ) : Sum   
0, 0, 0, 936.9373168945312
1, 0, 0, 945.4779052734375
2, 0, 0, 935.68701171875
3, 0, 0, 940.7283935546875
4, 0, 0, 946.3173828125
5, 0, 0, 952.16162109375
6, 0, 0, 957.8643188476562
7, 0, 0, 957.419921875
8, 0, 0, 965.5186157226562
9, 0, 0, 968.369873046875
10, 0, 0, 966.752197265625
11, 0, 0, 977.5215454101562
12, 0, 0, 973.7921752929688
13, 0, 0, 974.9808349609375
14, 0, 0, 981.0398559570312
15, 0, 0, 989.05322265625
16, 0, 0, 997.6102905273438
17, 0, 0, 1001.363037109375
18, 0, 0, 1000.130920410156
19, 0, 0, 1002.716491699219
20, 0, 0, 1014.559997558594
21, 0, 0, 1012.878112792969
22, 0, 0, 1022.465698242188
23, 0, 0, 1027.542724609375
24, 0, 0, 1027.671508789062
25, 0, 0, 1015.3310546875
26, 0, 0, 1034.046875
27, 0, 0, 1037.44775390625
28, 0, 0, 1039.25439453125
29, 0, 0, 1059.183837890625
30, 0, 0, 1057.673950195312
31, 0, 0, 1051.334228515625
32, 0, 0, 1059.190063476562
33, 0, 0, 1068.525512695312
34, 0, 0, 1068.491577148438
35, 0, 0, 1076.565551757812
36, 0, 0, 1088.128173828125
37, 0, 0, 1095.372192382812
38, 0, 0, 1097.353637695312
39, 0, 0, 1107.814208984375
40, 0, 0, 1099.121215820312
41, 0, 0, 1107.833984375
42, 0, 0, 1119.148681640625
43, 0, 0, 1129.898071289062
44, 0, 0, 1130.797119140625
45, 0, 0, 1142.402099609375
46, 0, 0, 1157.058471679688
47, 0, 0, 1147.617797851562
48, 0, 0, 1149.297485351562
49, 0, 0, 1162.379150390625
50, 0, 0, 1168.304809570312
51, 0, 0, 1168.531372070312
52, 0, 0, 1192.23291015625
53, 0, 0, 1195.995849609375
54, 0, 0, 1197.640258789062
55, 0, 0, 1203.851928710938
56, 0, 0, 1215.649291992188
57, 0, 0, 1230.51171875
58, 0, 0, 1238.544677734375
59, 0, 0, 1242.95751953125
60, 0, 0, 1247.1044921875
61, 0, 0, 1258.752319335938
62, 0, 0, 1273.229736328125
63, 0, 0, 1285.238525390625
64, 0, 0, 1296.103637695312
65, 0, 0, 1310.859985351562
66, 0, 0, 1324.03515625
67, 0, 0, 1326.349487304688
68, 0, 0, 1346.4580078125
69, 0, 0, 1346.100341796875
70, 0, 0, 1362.92041015625
71, 0, 0, 1377.74462890625
72, 0, 0, 1402.527587890625
73, 0, 0, 1400.523681640625
74, 0, 0, 1403.924072265625
75, 0, 0, 1425.52001953125
76, 0, 0, 1447.744018554688
77, 0, 0, 1459.409912109375
78, 0, 0, 1477.67919921875
79, 0, 0, 1495.998901367188
80, 0, 0, 1516.825805664062
81, 0, 0, 1531.527954101562
82, 0, 0, 1560.088012695312
83, 0, 0, 1571.484252929688
84, 0, 0, 1590.935668945312
85, 0, 0, 1607.371826171875
86, 0, 0, 1643.020874023438
87, 0, 0, 1655.998779296875
88, 0, 0, 1692.364013671875
89, 0, 0, 1720.504760742188
90, 0, 0, 1744.368896484375
91, 0, 0, 1780.02880859375
92, 0, 0, 1814.520263671875
93, 0, 0, 1840.244018554688
94, 0, 0, 1883.6240234375
95, 0, 0, 1929.493041992188
96, 0, 0, 1968.710571289062
97, 0, 0, 2019.060424804688
98, 0, 0, 2065.232177734375
99, 0, 0, 2114.549072265625
100, 0, 0, 2184.19970703125
101, 0, 0, 2251.482666015625
102, 0, 0, 2326.780029296875
103, 0, 0, 2416.5537109375
104, 0, 0, 2512.051025390625
105, 0, 0, 2628.561767578125
106, 0, 0, 2748.551025390625
107, 0, 0, 2915.89990234375
108, 0, 0, 3116.77587890625
109, 0, 0, 3383.310791015625
110, 0, 0, 3762.8427734375
111, 0, 0, 4259.57861328125
112, 0, 0, 4845.1181640625
113, 0, 0, 5272.01025390625
114, 0, 0, 5369.18115234375
115, 0, 0, 4592.9833984375
116, 0, 0, 2898.8662109375
117, 0, 0, 1445.452392578125
118, 0, 0, 557.2807006835938
119, 0, 0, 106.9856338500977
120, 0, 0, 8.003049850463867
121, 0, 0, 0
122, 0, 0, 0
123, 0, 0, 0
124, 0, 0, 0
125, 0, 0, 0
126, 0, 0, 0
127, 0, 0, 0
128, 0, 0, 0
129, 0, 0, 0
130, 0, 0, 0
131, 0, 0, 0
132, 0, 0, 0
133, 0, 0, 0
134, 0, 0, 0
135, 0, 0, 0
136, 0, 0, 0
137, 0, 0, 0
138, 0, 0, 0
139, 0, 0, 0
140, 0, 0, 0
141, 0, 0, 0
142, 0, 0, 0
143, 0, 0, 0
144, 0, 0, 0
145, 0, 0, 0
146, 0, 0, 0
147, 0, 0, 0
148, 0, 0, 0
149, 0, 0, 0
150, 0, 0, 0
151, 0, 0, 0
152, 0, 0, 0
153, 0, 0, 0
154, 0, 0, 0
155, 0, 0, 0
156, 0, 0, 0
157, 0, 0, 0
158, 0, 0, 0
159, 0, 0, 0
160, 0, 0, 0
161, 0, 0, 0
162, 0, 0, 0
163, 0, 0, 0
164, 0, 0, 0
