# TOPAS Version: 3.3.p1
# Parameter File: Simple_Pattern.txt
# Results for scorer MLIC_Scorer
# Scored in component: MLIC
# X in 180 bins of 0.222222 cm
# Y in 1 bin  of 10 cm
# Z in 1 bin  of 10 cm
# EnergyDeposit ( MeV ) : Sum   
0, 0, 0, 82.57373809814453
1, 0, 0, 81.81845092773438
2, 0, 0, 82.92881011962891
3, 0, 0, 83.22495269775391
4, 0, 0, 84.45153045654297
5, 0, 0, 81.92082977294922
6, 0, 0, 84.16011047363281
7, 0, 0, 83.08964538574219
8, 0, 0, 84.50489807128906
9, 0, 0, 85.21501922607422
10, 0, 0, 83.30991363525391
11, 0, 0, 85.37024688720703
12, 0, 0, 88.47032165527344
13, 0, 0, 88.03981781005859
14, 0, 0, 87.457763671875
15, 0, 0, 88.12583923339844
16, 0, 0, 88.89795684814453
17, 0, 0, 90.87893676757812
18, 0, 0, 87.35615539550781
19, 0, 0, 90.14768981933594
20, 0, 0, 90.40008544921875
21, 0, 0, 92.04341125488281
22, 0, 0, 91.36261749267578
23, 0, 0, 93.68193817138672
24, 0, 0, 94.02730560302734
25, 0, 0, 92.38706970214844
26, 0, 0, 96.56239318847656
27, 0, 0, 97.07389831542969
28, 0, 0, 94.32479095458984
29, 0, 0, 97.59461975097656
30, 0, 0, 97.05892944335938
31, 0, 0, 97.64148712158203
32, 0, 0, 97.34474182128906
33, 0, 0, 97.94490814208984
34, 0, 0, 98.08382415771484
35, 0, 0, 97.88222503662109
36, 0, 0, 98.66600036621094
37, 0, 0, 99.37370300292969
38, 0, 0, 100.4929122924805
39, 0, 0, 103.3661804199219
40, 0, 0, 101.3756332397461
41, 0, 0, 104.15869140625
42, 0, 0, 103.6756820678711
43, 0, 0, 104.5137023925781
44, 0, 0, 107.12841796875
45, 0, 0, 108.0604553222656
46, 0, 0, 106.388313293457
47, 0, 0, 109.0068969726562
48, 0, 0, 109.6737899780273
49, 0, 0, 108.2558135986328
50, 0, 0, 111.6746215820312
51, 0, 0, 115.0337219238281
52, 0, 0, 115.0496597290039
53, 0, 0, 115.619743347168
54, 0, 0, 116.4518432617188
55, 0, 0, 119.2413330078125
56, 0, 0, 119.8118133544922
57, 0, 0, 121.3656768798828
58, 0, 0, 124.9661331176758
59, 0, 0, 125.4801712036133
60, 0, 0, 128.1068115234375
61, 0, 0, 127.4740905761719
62, 0, 0, 128.8089904785156
63, 0, 0, 129.1417541503906
64, 0, 0, 131.4541320800781
65, 0, 0, 135.7969512939453
66, 0, 0, 137.5908050537109
67, 0, 0, 139.6680755615234
68, 0, 0, 140.0903778076172
69, 0, 0, 144.7404327392578
70, 0, 0, 148.0321655273438
71, 0, 0, 150.6197509765625
72, 0, 0, 152.4229125976562
73, 0, 0, 156.0364074707031
74, 0, 0, 159.7021179199219
75, 0, 0, 162.4847106933594
76, 0, 0, 167.8335571289062
77, 0, 0, 171.8973388671875
78, 0, 0, 175.5756683349609
79, 0, 0, 185.2093200683594
80, 0, 0, 188.9931182861328
81, 0, 0, 196.2845001220703
82, 0, 0, 204.1491241455078
83, 0, 0, 214.2189331054688
84, 0, 0, 226.9060668945312
85, 0, 0, 240.0314636230469
86, 0, 0, 255.1476135253906
87, 0, 0, 276.5983276367188
88, 0, 0, 300.8236083984375
89, 0, 0, 354.5914916992188
90, 0, 0, 403.1764221191406
91, 0, 0, 447.0639953613281
92, 0, 0, 470.9636840820312
93, 0, 0, 385.6093139648438
94, 0, 0, 222.3519744873047
95, 0, 0, 42.86005020141602
96, 0, 0, 6.802497386932373
97, 0, 0, 0
98, 0, 0, 0
99, 0, 0, 0
100, 0, 0, 0
101, 0, 0, 0
102, 0, 0, 0
103, 0, 0, 0
104, 0, 0, 0
105, 0, 0, 0
106, 0, 0, 0
107, 0, 0, 0
108, 0, 0, 0
109, 0, 0, 0
110, 0, 0, 0
111, 0, 0, 0
112, 0, 0, 0
113, 0, 0, 0
114, 0, 0, 0
115, 0, 0, 0
116, 0, 0, 0
117, 0, 0, 0
118, 0, 0, 0
119, 0, 0, 0
120, 0, 0, 0
121, 0, 0, 0
122, 0, 0, 0
123, 0, 0, 0
124, 0, 0, 0
125, 0, 0, 0
126, 0, 0, 0
127, 0, 0, 0
128, 0, 0, 0
129, 0, 0, 0
130, 0, 0, 0
131, 0, 0, 0
132, 0, 0, 0
133, 0, 0, 0
134, 0, 0, 0
135, 0, 0, 0
136, 0, 0, 0
137, 0, 0, 0
138, 0, 0, 0
139, 0, 0, 0
140, 0, 0, 0
141, 0, 0, 0
142, 0, 0, 0
143, 0, 0, 0
144, 0, 0, 0
145, 0, 0, 0
146, 0, 0, 0
147, 0, 0, 0
148, 0, 0, 0
149, 0, 0, 0
150, 0, 0, 0
151, 0, 0, 0
152, 0, 0, 0
153, 0, 0, 0
154, 0, 0, 0
155, 0, 0, 0
156, 0, 0, 0
157, 0, 0, 0
158, 0, 0, 0
159, 0, 0, 0
160, 0, 0, 0
161, 0, 0, 0
162, 0, 0, 0
163, 0, 0, 0
164, 0, 0, 0
165, 0, 0, 0
166, 0, 0, 0
167, 0, 0, 0
168, 0, 0, 0
169, 0, 0, 0
170, 0, 0, 0
171, 0, 0, 0
172, 0, 0, 0
173, 0, 0, 0
174, 0, 0, 0
175, 0, 0, 0
176, 0, 0, 0
177, 0, 0, 0
178, 0, 0, 0
179, 0, 0, 0
