# TOPAS Version: 3.3.p1
# Parameter File: Simple_Pattern.txt
# Results for scorer MLIC_Scorer
# Scored in component: MLIC
# X in 180 bins of 0.222222 cm
# Y in 1 bin  of 10 cm
# Z in 1 bin  of 10 cm
# EnergyDeposit ( MeV ) : Sum   
0, 0, 0, 54.6481819152832
1, 0, 0, 57.7761116027832
2, 0, 0, 55.86581039428711
3, 0, 0, 56.48540878295898
4, 0, 0, 58.2161750793457
5, 0, 0, 56.14454650878906
6, 0, 0, 59.19287109375
7, 0, 0, 58.26977157592773
8, 0, 0, 59.1833610534668
9, 0, 0, 60.4744873046875
10, 0, 0, 59.64602661132812
11, 0, 0, 58.68149185180664
12, 0, 0, 62.4008903503418
13, 0, 0, 59.22214889526367
14, 0, 0, 60.3488883972168
15, 0, 0, 60.20083618164062
16, 0, 0, 63.88136672973633
17, 0, 0, 61.50665664672852
18, 0, 0, 63.15449523925781
19, 0, 0, 63.55249404907227
20, 0, 0, 65.0440673828125
21, 0, 0, 63.99302291870117
22, 0, 0, 62.64012908935547
23, 0, 0, 64.675048828125
24, 0, 0, 65.03485107421875
25, 0, 0, 66.66572570800781
26, 0, 0, 67.73098754882812
27, 0, 0, 65.52146911621094
28, 0, 0, 66.11604309082031
29, 0, 0, 68.32479095458984
30, 0, 0, 66.65597534179688
31, 0, 0, 67.99453735351562
32, 0, 0, 68.20721435546875
33, 0, 0, 69.17250823974609
34, 0, 0, 69.43964385986328
35, 0, 0, 70.98057556152344
36, 0, 0, 71.93033599853516
37, 0, 0, 71.69815826416016
38, 0, 0, 71.52864837646484
39, 0, 0, 74.22337341308594
40, 0, 0, 75.62947082519531
41, 0, 0, 74.26512908935547
42, 0, 0, 76.7547607421875
43, 0, 0, 75.57501220703125
44, 0, 0, 78.26895141601562
45, 0, 0, 79.58225250244141
46, 0, 0, 79.422119140625
47, 0, 0, 81.93663787841797
48, 0, 0, 81.75707244873047
49, 0, 0, 82.48797607421875
50, 0, 0, 84.84494781494141
51, 0, 0, 85.79229736328125
52, 0, 0, 86.52957153320312
53, 0, 0, 89.65058898925781
54, 0, 0, 90.58165740966797
55, 0, 0, 90.43585205078125
56, 0, 0, 92.26628112792969
57, 0, 0, 94.46897125244141
58, 0, 0, 97.48125457763672
59, 0, 0, 99.99181365966797
60, 0, 0, 102.1450042724609
61, 0, 0, 103.4974746704102
62, 0, 0, 102.8468246459961
63, 0, 0, 107.8972702026367
64, 0, 0, 109.1163024902344
65, 0, 0, 112.4090805053711
66, 0, 0, 116.1102905273438
67, 0, 0, 121.40625
68, 0, 0, 126.3543090820312
69, 0, 0, 131.5117034912109
70, 0, 0, 137.3031616210938
71, 0, 0, 144.1065521240234
72, 0, 0, 150.8175811767578
73, 0, 0, 162.2500762939453
74, 0, 0, 172.9622650146484
75, 0, 0, 192.4089508056641
76, 0, 0, 222.8272399902344
77, 0, 0, 263.3194580078125
78, 0, 0, 301.96142578125
79, 0, 0, 288.8449096679688
80, 0, 0, 220.2568664550781
81, 0, 0, 145.8732757568359
82, 0, 0, 77.32729339599609
83, 0, 0, 11.57173728942871
84, 0, 0, 2.749568700790405
85, 0, 0, 0
86, 0, 0, 0
87, 0, 0, 0
88, 0, 0, 0
89, 0, 0, 0
90, 0, 0, 0
91, 0, 0, 0
92, 0, 0, 0
93, 0, 0, 0
94, 0, 0, 0
95, 0, 0, 0
96, 0, 0, 0
97, 0, 0, 0
98, 0, 0, 0
99, 0, 0, 0
100, 0, 0, 0
101, 0, 0, 0
102, 0, 0, 0
103, 0, 0, 0
104, 0, 0, 0
105, 0, 0, 0
106, 0, 0, 0
107, 0, 0, 0
108, 0, 0, 0
109, 0, 0, 0
110, 0, 0, 0
111, 0, 0, 0
112, 0, 0, 0
113, 0, 0, 0
114, 0, 0, 0
115, 0, 0, 0
116, 0, 0, 0
117, 0, 0, 0
118, 0, 0, 0
119, 0, 0, 0
120, 0, 0, 0
121, 0, 0, 0
122, 0, 0, 0
123, 0, 0, 0
124, 0, 0, 0
125, 0, 0, 0
126, 0, 0, 0
127, 0, 0, 0
128, 0, 0, 0
129, 0, 0, 0
130, 0, 0, 0
131, 0, 0, 0
132, 0, 0, 0
133, 0, 0, 0
134, 0, 0, 0
135, 0, 0, 0
136, 0, 0, 0
137, 0, 0, 0
138, 0, 0, 0
139, 0, 0, 0
140, 0, 0, 0
141, 0, 0, 0
142, 0, 0, 0
143, 0, 0, 0
144, 0, 0, 0
145, 0, 0, 0
146, 0, 0, 0
147, 0, 0, 0
148, 0, 0, 0
149, 0, 0, 0
150, 0, 0, 0
151, 0, 0, 0
152, 0, 0, 0
153, 0, 0, 0
154, 0, 0, 0
155, 0, 0, 0
156, 0, 0, 0
157, 0, 0, 0
158, 0, 0, 0
159, 0, 0, 0
160, 0, 0, 0
161, 0, 0, 0
162, 0, 0, 0
163, 0, 0, 0
164, 0, 0, 0
165, 0, 0, 0
166, 0, 0, 0
167, 0, 0, 0
168, 0, 0, 0
169, 0, 0, 0
170, 0, 0, 0
171, 0, 0, 0
172, 0, 0, 0
173, 0, 0, 0
174, 0, 0, 0
175, 0, 0, 0
176, 0, 0, 0
177, 0, 0, 0
178, 0, 0, 0
179, 0, 0, 0
