# TOPAS Version: 3.3.p1
# Parameter File: Simple_Pattern.txt
# Results for scorer MLIC_Scorer
# Scored in component: MLIC
# X in 180 bins of 0.222222 cm
# Y in 1 bin  of 10 cm
# Z in 1 bin  of 10 cm
# EnergyDeposit ( MeV ) : Sum   
0, 0, 0, 1090.086547851562
1, 0, 0, 1092.672241210938
2, 0, 0, 1094.571044921875
3, 0, 0, 1103.464111328125
4, 0, 0, 1102.893676757812
5, 0, 0, 1111.628051757812
6, 0, 0, 1122.186279296875
7, 0, 0, 1129.438842773438
8, 0, 0, 1132.667236328125
9, 0, 0, 1124.78515625
10, 0, 0, 1124.662353515625
11, 0, 0, 1135.173461914062
12, 0, 0, 1134.771118164062
13, 0, 0, 1148.28173828125
14, 0, 0, 1155.694091796875
15, 0, 0, 1150.935668945312
16, 0, 0, 1142.573852539062
17, 0, 0, 1159.30712890625
18, 0, 0, 1155.395263671875
19, 0, 0, 1172.039306640625
20, 0, 0, 1168.57421875
21, 0, 0, 1172.866577148438
22, 0, 0, 1180.074096679688
23, 0, 0, 1178.636352539062
24, 0, 0, 1195.3486328125
25, 0, 0, 1186.186645507812
26, 0, 0, 1188.591918945312
27, 0, 0, 1206.120361328125
28, 0, 0, 1200.827270507812
29, 0, 0, 1211.787231445312
30, 0, 0, 1208.503051757812
31, 0, 0, 1209.370239257812
32, 0, 0, 1220.532348632812
33, 0, 0, 1217.395385742188
34, 0, 0, 1219.60595703125
35, 0, 0, 1227.10888671875
36, 0, 0, 1237.785278320312
37, 0, 0, 1237.81591796875
38, 0, 0, 1234.996215820312
39, 0, 0, 1243.25146484375
40, 0, 0, 1248.572143554688
41, 0, 0, 1244.35302734375
42, 0, 0, 1259.056518554688
43, 0, 0, 1263.0400390625
44, 0, 0, 1280.911254882812
45, 0, 0, 1283.6865234375
46, 0, 0, 1285.526245117188
47, 0, 0, 1293.448486328125
48, 0, 0, 1310.178466796875
49, 0, 0, 1310.759765625
50, 0, 0, 1321.076416015625
51, 0, 0, 1329.984130859375
52, 0, 0, 1337.012329101562
53, 0, 0, 1352.614013671875
54, 0, 0, 1365.860595703125
55, 0, 0, 1372.797119140625
56, 0, 0, 1379.580200195312
57, 0, 0, 1395.571411132812
58, 0, 0, 1408.915405273438
59, 0, 0, 1413.52685546875
60, 0, 0, 1424.313842773438
61, 0, 0, 1435.945068359375
62, 0, 0, 1446.506591796875
63, 0, 0, 1466.102294921875
64, 0, 0, 1470.053344726562
65, 0, 0, 1495.158569335938
66, 0, 0, 1493.348999023438
67, 0, 0, 1509.762939453125
68, 0, 0, 1546.983764648438
69, 0, 0, 1562.648193359375
70, 0, 0, 1582.888916015625
71, 0, 0, 1594.175903320312
72, 0, 0, 1629.341552734375
73, 0, 0, 1656.779052734375
74, 0, 0, 1686.0009765625
75, 0, 0, 1719.801879882812
76, 0, 0, 1747.343139648438
77, 0, 0, 1795.073852539062
78, 0, 0, 1840.916870117188
79, 0, 0, 1881.589477539062
80, 0, 0, 1945.754638671875
81, 0, 0, 2014.06640625
82, 0, 0, 2084.902099609375
83, 0, 0, 2177.169921875
84, 0, 0, 2281.9228515625
85, 0, 0, 2411.017822265625
86, 0, 0, 2568.96826171875
87, 0, 0, 2783.572509765625
88, 0, 0, 3045.183349609375
89, 0, 0, 3530.389404296875
90, 0, 0, 4058.72900390625
91, 0, 0, 4533.7900390625
92, 0, 0, 4304.396484375
93, 0, 0, 3152.51171875
94, 0, 0, 1448.609130859375
95, 0, 0, 465.7772521972656
96, 0, 0, 58.61313247680664
97, 0, 0, 12.76650333404541
98, 0, 0, 0
99, 0, 0, 0
100, 0, 0, 0.1996016651391983
101, 0, 0, 0.02583195082843304
102, 0, 0, 0.06096804887056351
103, 0, 0, 0.00548910116776824
104, 0, 0, 0
105, 0, 0, 0
106, 0, 0, 0.0255638025701046
107, 0, 0, 0.06162869930267334
108, 0, 0, 0.08955032378435135
109, 0, 0, 0.3149961829185486
110, 0, 0, 0
111, 0, 0, 0.01441901922225952
112, 0, 0, 0.05428069084882736
113, 0, 0, 0.01228173915296793
114, 0, 0, 0
115, 0, 0, 0
116, 0, 0, 0.04156303778290749
117, 0, 0, 0
118, 0, 0, 0
119, 0, 0, 0.07178844511508942
120, 0, 0, 0.0733371376991272
121, 0, 0, 0.005637252237647772
122, 0, 0, 0.008932340890169144
123, 0, 0, 0
124, 0, 0, 0
125, 0, 0, 0.0106506897136569
126, 0, 0, 0
127, 0, 0, 0
128, 0, 0, 0
129, 0, 0, 0.1296102702617645
130, 0, 0, 0
131, 0, 0, 0
132, 0, 0, 0
133, 0, 0, 0.06697568297386169
134, 0, 0, 0
135, 0, 0, 0
136, 0, 0, 0.08949080854654312
137, 0, 0, 0
138, 0, 0, 0.02397719025611877
139, 0, 0, 0.00860371720045805
140, 0, 0, 0.005067314486950636
141, 0, 0, 0
142, 0, 0, 0
143, 0, 0, 0
144, 0, 0, 0.08255434036254883
145, 0, 0, 0
146, 0, 0, 0
147, 0, 0, 0
148, 0, 0, 0.06671745330095291
149, 0, 0, 0
150, 0, 0, 0
151, 0, 0, 0
152, 0, 0, 0
153, 0, 0, 0
154, 0, 0, 0
155, 0, 0, 0
156, 0, 0, 0.01202127151191235
157, 0, 0, 0
158, 0, 0, 0
159, 0, 0, 0.003579486627131701
160, 0, 0, 0.0246512982994318
161, 0, 0, 0.03971026092767715
162, 0, 0, 0
163, 0, 0, 0
164, 0, 0, 0.02940841019153595
165, 0, 0, 0.03221699595451355
166, 0, 0, 0
167, 0, 0, 0
168, 0, 0, 0.02796017751097679
169, 0, 0, 0
170, 0, 0, 0
171, 0, 0, 0
172, 0, 0, 0
173, 0, 0, 0
174, 0, 0, 0.01142105553299189
175, 0, 0, 0.001825974322855473
176, 0, 0, 0
177, 0, 0, 0.04760629683732986
178, 0, 0, 0
179, 0, 0, 0
