# TOPAS Version: 3.3.p1
# Parameter File: Simple_Pattern.txt
# Results for scorer MLIC_Scorer
# Scored in component: MLIC
# X in 180 bins of 0.222222 cm
# Y in 1 bin  of 10 cm
# Z in 1 bin  of 10 cm
# EnergyDeposit ( MeV ) : Sum   
0, 0, 0, 1078.646850585938
1, 0, 0, 1094.695678710938
2, 0, 0, 1089.694091796875
3, 0, 0, 1104.413452148438
4, 0, 0, 1098.9296875
5, 0, 0, 1101.311157226562
6, 0, 0, 1117.128784179688
7, 0, 0, 1125.19677734375
8, 0, 0, 1127.0048828125
9, 0, 0, 1134.132934570312
10, 0, 0, 1123.577392578125
11, 0, 0, 1143.065063476562
12, 0, 0, 1148.665649414062
13, 0, 0, 1152.462646484375
14, 0, 0, 1161.025756835938
15, 0, 0, 1160.307739257812
16, 0, 0, 1166.25439453125
17, 0, 0, 1171.031372070312
18, 0, 0, 1190.605590820312
19, 0, 0, 1192.390380859375
20, 0, 0, 1196.884521484375
21, 0, 0, 1202.529663085938
22, 0, 0, 1207.134155273438
23, 0, 0, 1218.682983398438
24, 0, 0, 1220.25732421875
25, 0, 0, 1228.296875
26, 0, 0, 1229.264526367188
27, 0, 0, 1242.001220703125
28, 0, 0, 1248.75390625
29, 0, 0, 1255.36767578125
30, 0, 0, 1265.706176757812
31, 0, 0, 1266.436401367188
32, 0, 0, 1283.991821289062
33, 0, 0, 1289.994750976562
34, 0, 0, 1298.384887695312
35, 0, 0, 1310.6591796875
36, 0, 0, 1318.8994140625
37, 0, 0, 1321.530029296875
38, 0, 0, 1343.999755859375
39, 0, 0, 1346.194946289062
40, 0, 0, 1354.169067382812
41, 0, 0, 1366.067504882812
42, 0, 0, 1377.396606445312
43, 0, 0, 1398.48876953125
44, 0, 0, 1403.9150390625
45, 0, 0, 1418.025512695312
46, 0, 0, 1425.298217773438
47, 0, 0, 1441.682739257812
48, 0, 0, 1463.11328125
49, 0, 0, 1469.389892578125
50, 0, 0, 1482.9580078125
51, 0, 0, 1494.310302734375
52, 0, 0, 1516.24951171875
53, 0, 0, 1515.664428710938
54, 0, 0, 1546.385375976562
55, 0, 0, 1561.53271484375
56, 0, 0, 1588.108764648438
57, 0, 0, 1591.547485351562
58, 0, 0, 1612.089233398438
59, 0, 0, 1637.279418945312
60, 0, 0, 1661.282592773438
61, 0, 0, 1687.482666015625
62, 0, 0, 1704.347412109375
63, 0, 0, 1718.418579101562
64, 0, 0, 1757.299072265625
65, 0, 0, 1779.705322265625
66, 0, 0, 1795.665405273438
67, 0, 0, 1825.372680664062
68, 0, 0, 1873.288452148438
69, 0, 0, 1903.775268554688
70, 0, 0, 1945.03271484375
71, 0, 0, 1970.507080078125
72, 0, 0, 2016.466552734375
73, 0, 0, 2060.693603515625
74, 0, 0, 2101.080810546875
75, 0, 0, 2159.758056640625
76, 0, 0, 2217.494140625
77, 0, 0, 2274.69775390625
78, 0, 0, 2340.43896484375
79, 0, 0, 2417.82666015625
80, 0, 0, 2500.5224609375
81, 0, 0, 2598.790283203125
82, 0, 0, 2708.505859375
83, 0, 0, 2827.828857421875
84, 0, 0, 2977.4267578125
85, 0, 0, 3156.79931640625
86, 0, 0, 3369.087646484375
87, 0, 0, 3661.424072265625
88, 0, 0, 4070.747314453125
89, 0, 0, 4691.28564453125
90, 0, 0, 5372.0625
91, 0, 0, 6078.0791015625
92, 0, 0, 5976.6923828125
93, 0, 0, 4576.8134765625
94, 0, 0, 2391.058837890625
95, 0, 0, 889.1668090820312
96, 0, 0, 175.6067047119141
97, 0, 0, 42.71913146972656
98, 0, 0, 0.03133440390229225
99, 0, 0, 0.003477981081232429
100, 0, 0, 0
101, 0, 0, 0
102, 0, 0, 0
103, 0, 0, 0
104, 0, 0, 0
105, 0, 0, 0.003387720556929708
106, 0, 0, 0
107, 0, 0, 0
108, 0, 0, 0
109, 0, 0, 0
110, 0, 0, 0
111, 0, 0, 0
112, 0, 0, 0
113, 0, 0, 0
114, 0, 0, 0
115, 0, 0, 0
116, 0, 0, 0.007109145168215036
117, 0, 0, 0
118, 0, 0, 0
119, 0, 0, 0
120, 0, 0, 0
121, 0, 0, 0
122, 0, 0, 0
123, 0, 0, 0
124, 0, 0, 0
125, 0, 0, 0
126, 0, 0, 0
127, 0, 0, 0
128, 0, 0, 0
129, 0, 0, 0
130, 0, 0, 0
131, 0, 0, 0
132, 0, 0, 0
133, 0, 0, 0
134, 0, 0, 0
135, 0, 0, 0
136, 0, 0, 0
137, 0, 0, 0
138, 0, 0, 0
139, 0, 0, 0
140, 0, 0, 0
141, 0, 0, 0
142, 0, 0, 0
143, 0, 0, 0
144, 0, 0, 0
145, 0, 0, 0
146, 0, 0, 0
147, 0, 0, 0
148, 0, 0, 0
149, 0, 0, 0
150, 0, 0, 0
151, 0, 0, 0
152, 0, 0, 0
153, 0, 0, 0
154, 0, 0, 0
155, 0, 0, 0
156, 0, 0, 0
157, 0, 0, 0
158, 0, 0, 0
159, 0, 0, 0
160, 0, 0, 0
161, 0, 0, 0
162, 0, 0, 0
163, 0, 0, 0
164, 0, 0, 0
165, 0, 0, 0
166, 0, 0, 0
167, 0, 0, 0
168, 0, 0, 0
169, 0, 0, 0
170, 0, 0, 0
171, 0, 0, 0
172, 0, 0, 0
173, 0, 0, 0
174, 0, 0, 0
175, 0, 0, 0
176, 0, 0, 0
177, 0, 0, 0
178, 0, 0, 0
179, 0, 0, 0
