# TOPAS Version: 3.3.p1
# Parameter File: Simple_Pattern.txt
# Results for scorer MLIC_Scorer
# Scored in component: MLIC
# X in 180 bins of 0.222222 cm
# Y in 1 bin  of 10 cm
# Z in 1 bin  of 10 cm
# EnergyDeposit ( MeV ) : Sum   
0, 0, 0, 83.39611053466797
1, 0, 0, 84.56740570068359
2, 0, 0, 83.00885009765625
3, 0, 0, 87.26620483398438
4, 0, 0, 88.08351135253906
5, 0, 0, 85.44259643554688
6, 0, 0, 86.48179626464844
7, 0, 0, 84.66354370117188
8, 0, 0, 86.53327941894531
9, 0, 0, 87.38165283203125
10, 0, 0, 85.18431854248047
11, 0, 0, 89.45532989501953
12, 0, 0, 88.01702117919922
13, 0, 0, 88.25106811523438
14, 0, 0, 87.6146240234375
15, 0, 0, 87.38706207275391
16, 0, 0, 87.06926727294922
17, 0, 0, 89.98690032958984
18, 0, 0, 87.84314727783203
19, 0, 0, 86.37934112548828
20, 0, 0, 88.06093597412109
21, 0, 0, 90.46485900878906
22, 0, 0, 91.13547515869141
23, 0, 0, 89.59053802490234
24, 0, 0, 90.47083282470703
25, 0, 0, 93.74385070800781
26, 0, 0, 91.56817626953125
27, 0, 0, 92.62643432617188
28, 0, 0, 91.38253784179688
29, 0, 0, 95.48916625976562
30, 0, 0, 92.69056701660156
31, 0, 0, 94.79518890380859
32, 0, 0, 93.46705627441406
33, 0, 0, 97.34513092041016
34, 0, 0, 96.6795654296875
35, 0, 0, 96.18873596191406
36, 0, 0, 97.78507232666016
37, 0, 0, 99.94980621337891
38, 0, 0, 99.67434692382812
39, 0, 0, 98.89041900634766
40, 0, 0, 100.7762756347656
41, 0, 0, 102.0636749267578
42, 0, 0, 97.81770324707031
43, 0, 0, 103.1055068969727
44, 0, 0, 100.722900390625
45, 0, 0, 102.0848693847656
46, 0, 0, 103.9674453735352
47, 0, 0, 102.0069961547852
48, 0, 0, 104.942626953125
49, 0, 0, 103.1132202148438
50, 0, 0, 102.1051712036133
51, 0, 0, 107.1940002441406
52, 0, 0, 108.4893264770508
53, 0, 0, 109.4587249755859
54, 0, 0, 111.9960021972656
55, 0, 0, 110.7845306396484
56, 0, 0, 111.7646408081055
57, 0, 0, 115.5102310180664
58, 0, 0, 111.2165222167969
59, 0, 0, 115.3721771240234
60, 0, 0, 115.6060943603516
61, 0, 0, 114.6820907592773
62, 0, 0, 115.47216796875
63, 0, 0, 118.3057022094727
64, 0, 0, 119.353630065918
65, 0, 0, 120.6103057861328
66, 0, 0, 124.467170715332
67, 0, 0, 124.9335098266602
68, 0, 0, 127.4108657836914
69, 0, 0, 126.5589218139648
70, 0, 0, 130.5568237304688
71, 0, 0, 131.1421966552734
72, 0, 0, 135.2791442871094
73, 0, 0, 137.0018615722656
74, 0, 0, 139.1727752685547
75, 0, 0, 137.0654449462891
76, 0, 0, 143.3915252685547
77, 0, 0, 146.2738800048828
78, 0, 0, 151.9790954589844
79, 0, 0, 154.1700897216797
80, 0, 0, 158.3966522216797
81, 0, 0, 163.91748046875
82, 0, 0, 168.7026519775391
83, 0, 0, 180.2318572998047
84, 0, 0, 187.6590728759766
85, 0, 0, 195.7728729248047
86, 0, 0, 210.1082611083984
87, 0, 0, 227.212890625
88, 0, 0, 257.713623046875
89, 0, 0, 271.1814575195312
90, 0, 0, 328.1508483886719
91, 0, 0, 361.4249267578125
92, 0, 0, 368.1672058105469
93, 0, 0, 289.6786804199219
94, 0, 0, 157.9002838134766
95, 0, 0, 10.64064502716064
96, 0, 0, 0
97, 0, 0, 0
98, 0, 0, 0
99, 0, 0, 0
100, 0, 0, 0
101, 0, 0, 0
102, 0, 0, 0
103, 0, 0, 0
104, 0, 0, 0
105, 0, 0, 0
106, 0, 0, 0
107, 0, 0, 0
108, 0, 0, 0
109, 0, 0, 0
110, 0, 0, 0
111, 0, 0, 0
112, 0, 0, 0
113, 0, 0, 0
114, 0, 0, 0
115, 0, 0, 0
116, 0, 0, 0
117, 0, 0, 0
118, 0, 0, 0
119, 0, 0, 0
120, 0, 0, 0
121, 0, 0, 0
122, 0, 0, 0
123, 0, 0, 0
124, 0, 0, 0
125, 0, 0, 0
126, 0, 0, 0
127, 0, 0, 0
128, 0, 0, 0
129, 0, 0, 0
130, 0, 0, 0
131, 0, 0, 0
132, 0, 0, 0
133, 0, 0, 0
134, 0, 0, 0
135, 0, 0, 0
136, 0, 0, 0
137, 0, 0, 0
138, 0, 0, 0
139, 0, 0, 0
140, 0, 0, 0
141, 0, 0, 0
142, 0, 0, 0
143, 0, 0, 0
144, 0, 0, 0
145, 0, 0, 0
146, 0, 0, 0
147, 0, 0, 0
148, 0, 0, 0
149, 0, 0, 0
150, 0, 0, 0
151, 0, 0, 0
152, 0, 0, 0
153, 0, 0, 0
154, 0, 0, 0
155, 0, 0, 0
156, 0, 0, 0
157, 0, 0, 0
158, 0, 0, 0
159, 0, 0, 0
160, 0, 0, 0
161, 0, 0, 0
162, 0, 0, 0
163, 0, 0, 0
164, 0, 0, 0
165, 0, 0, 0
166, 0, 0, 0
167, 0, 0, 0
168, 0, 0, 0
169, 0, 0, 0
170, 0, 0, 0
171, 0, 0, 0
172, 0, 0, 0
173, 0, 0, 0
174, 0, 0, 0
175, 0, 0, 0
176, 0, 0, 0
177, 0, 0, 0
178, 0, 0, 0
179, 0, 0, 0
