# TOPAS Version: 3.3.p1
# Parameter File: Simple_Pattern.txt
# Results for scorer MLIC_Scorer
# Scored in component: MLIC
# X in 180 bins of 0.222222 cm
# Y in 1 bin  of 10 cm
# Z in 1 bin  of 10 cm
# EnergyDeposit ( MeV ) : Sum   
0, 0, 0, 38.61947631835938
1, 0, 0, 39.70516967773438
2, 0, 0, 38.66567230224609
3, 0, 0, 40.08050918579102
4, 0, 0, 39.42758560180664
5, 0, 0, 41.07925796508789
6, 0, 0, 40.44143295288086
7, 0, 0, 41.11313247680664
8, 0, 0, 41.39111709594727
9, 0, 0, 39.79548645019531
10, 0, 0, 40.83482360839844
11, 0, 0, 41.23738861083984
12, 0, 0, 40.53994750976562
13, 0, 0, 40.74151992797852
14, 0, 0, 39.78571701049805
15, 0, 0, 41.32532119750977
16, 0, 0, 40.09316635131836
17, 0, 0, 39.8060417175293
18, 0, 0, 40.00667572021484
19, 0, 0, 39.95519256591797
20, 0, 0, 40.91341400146484
21, 0, 0, 40.40662384033203
22, 0, 0, 41.67869567871094
23, 0, 0, 40.05825042724609
24, 0, 0, 41.52107238769531
25, 0, 0, 39.37018585205078
26, 0, 0, 40.01032257080078
27, 0, 0, 41.57408905029297
28, 0, 0, 41.71810150146484
29, 0, 0, 42.41437530517578
30, 0, 0, 40.88381576538086
31, 0, 0, 42.50105285644531
32, 0, 0, 43.20943069458008
33, 0, 0, 42.35635757446289
34, 0, 0, 44.27141571044922
35, 0, 0, 42.69770812988281
36, 0, 0, 43.86594772338867
37, 0, 0, 43.01394653320312
38, 0, 0, 44.81763076782227
39, 0, 0, 44.00004196166992
40, 0, 0, 43.68609619140625
41, 0, 0, 45.64651870727539
42, 0, 0, 47.66687774658203
43, 0, 0, 46.16696166992188
44, 0, 0, 48.74945068359375
45, 0, 0, 45.54820251464844
46, 0, 0, 46.7522087097168
47, 0, 0, 47.25951385498047
48, 0, 0, 47.47603225708008
49, 0, 0, 48.86064910888672
50, 0, 0, 47.97858810424805
51, 0, 0, 47.43008041381836
52, 0, 0, 48.38545227050781
53, 0, 0, 48.07695007324219
54, 0, 0, 49.80370712280273
55, 0, 0, 48.79697799682617
56, 0, 0, 48.45355987548828
57, 0, 0, 48.89934158325195
58, 0, 0, 48.6312370300293
59, 0, 0, 49.854736328125
60, 0, 0, 48.20489501953125
61, 0, 0, 47.83492279052734
62, 0, 0, 50.68098068237305
63, 0, 0, 50.16690826416016
64, 0, 0, 50.71473693847656
65, 0, 0, 52.6219482421875
66, 0, 0, 52.20378112792969
67, 0, 0, 53.41111373901367
68, 0, 0, 54.27890777587891
69, 0, 0, 53.69742965698242
70, 0, 0, 54.81024169921875
71, 0, 0, 56.28620529174805
72, 0, 0, 53.4384765625
73, 0, 0, 55.54278945922852
74, 0, 0, 58.20024490356445
75, 0, 0, 59.20058059692383
76, 0, 0, 60.33976364135742
77, 0, 0, 60.23853302001953
78, 0, 0, 60.29631805419922
79, 0, 0, 63.80014038085938
80, 0, 0, 66.57137298583984
81, 0, 0, 69.21379089355469
82, 0, 0, 71.22210693359375
83, 0, 0, 73.20281219482422
84, 0, 0, 75.74676513671875
85, 0, 0, 79.60214996337891
86, 0, 0, 86.29141235351562
87, 0, 0, 94.16511535644531
88, 0, 0, 103.0571746826172
89, 0, 0, 121.6628036499023
90, 0, 0, 151.2833404541016
91, 0, 0, 172.1165466308594
92, 0, 0, 122.6415176391602
93, 0, 0, 67.59815979003906
94, 0, 0, 63.42658996582031
95, 0, 0, 22.63463020324707
96, 0, 0, 0
97, 0, 0, 0
98, 0, 0, 0
99, 0, 0, 0
100, 0, 0, 0.1423007547855377
101, 0, 0, 0
102, 0, 0, 0
103, 0, 0, 0
104, 0, 0, 0
105, 0, 0, 0.02654580399394035
106, 0, 0, 0
107, 0, 0, 0
108, 0, 0, 0
109, 0, 0, 0
110, 0, 0, 0
111, 0, 0, 0
112, 0, 0, 0
113, 0, 0, 0
114, 0, 0, 0
115, 0, 0, 0
116, 0, 0, 0
117, 0, 0, 0
118, 0, 0, 0
119, 0, 0, 0
120, 0, 0, 0
121, 0, 0, 0
122, 0, 0, 0
123, 0, 0, 0
124, 0, 0, 0
125, 0, 0, 0
126, 0, 0, 0
127, 0, 0, 0
128, 0, 0, 0
129, 0, 0, 0
130, 0, 0, 0
131, 0, 0, 0
132, 0, 0, 0
133, 0, 0, 0
134, 0, 0, 0
135, 0, 0, 0
136, 0, 0, 0
137, 0, 0, 0
138, 0, 0, 0
139, 0, 0, 0
140, 0, 0, 0
141, 0, 0, 0
142, 0, 0, 0
143, 0, 0, 0
144, 0, 0, 0
145, 0, 0, 0
146, 0, 0, 0
147, 0, 0, 0
148, 0, 0, 0
149, 0, 0, 0
150, 0, 0, 0
151, 0, 0, 0
152, 0, 0, 0
153, 0, 0, 0
154, 0, 0, 0
155, 0, 0, 0
156, 0, 0, 0
157, 0, 0, 0
158, 0, 0, 0
159, 0, 0, 0
160, 0, 0, 0
161, 0, 0, 0
162, 0, 0, 0
163, 0, 0, 0
164, 0, 0, 0
165, 0, 0, 0
166, 0, 0, 0
167, 0, 0, 0
168, 0, 0, 0
169, 0, 0, 0
170, 0, 0, 0
171, 0, 0, 0
172, 0, 0, 0
173, 0, 0, 0
174, 0, 0, 0
175, 0, 0, 0
176, 0, 0, 0
177, 0, 0, 0
178, 0, 0, 0
179, 0, 0, 0
