# TOPAS Version: 3.3.p1
# Parameter File: Simple_Pattern.txt
# Results for scorer MLIC_Scorer
# Scored in component: MLIC
# X in 180 bins of 0.222222 cm
# Y in 1 bin  of 10 cm
# Z in 1 bin  of 10 cm
# EnergyDeposit ( MeV ) : Sum   
0, 0, 0, 1075.795043945312
1, 0, 0, 1083.25146484375
2, 0, 0, 1089.849365234375
3, 0, 0, 1098.875
4, 0, 0, 1102.063598632812
5, 0, 0, 1108.720703125
6, 0, 0, 1119.1767578125
7, 0, 0, 1120.151000976562
8, 0, 0, 1120.203491210938
9, 0, 0, 1126.771484375
10, 0, 0, 1139.800537109375
11, 0, 0, 1135.6142578125
12, 0, 0, 1135.4228515625
13, 0, 0, 1143.93408203125
14, 0, 0, 1147.580200195312
15, 0, 0, 1154.4560546875
16, 0, 0, 1166.014892578125
17, 0, 0, 1171.2109375
18, 0, 0, 1175.132202148438
19, 0, 0, 1173.971923828125
20, 0, 0, 1177.99072265625
21, 0, 0, 1172.679931640625
22, 0, 0, 1186.76611328125
23, 0, 0, 1191.481567382812
24, 0, 0, 1204.423706054688
25, 0, 0, 1204.329467773438
26, 0, 0, 1206.3681640625
27, 0, 0, 1211.356567382812
28, 0, 0, 1208.99951171875
29, 0, 0, 1215.266235351562
30, 0, 0, 1227.788696289062
31, 0, 0, 1227.873168945312
32, 0, 0, 1229.356567382812
33, 0, 0, 1231.471313476562
34, 0, 0, 1240.986938476562
35, 0, 0, 1235.091064453125
36, 0, 0, 1239.317749023438
37, 0, 0, 1240.229248046875
38, 0, 0, 1246.195434570312
39, 0, 0, 1246.844482421875
40, 0, 0, 1258.249877929688
41, 0, 0, 1264.530029296875
42, 0, 0, 1251.350463867188
43, 0, 0, 1259.5517578125
44, 0, 0, 1256.79443359375
45, 0, 0, 1274.371826171875
46, 0, 0, 1266.894653320312
47, 0, 0, 1276.25244140625
48, 0, 0, 1284.079711914062
49, 0, 0, 1280.065673828125
50, 0, 0, 1295.446044921875
51, 0, 0, 1293.177124023438
52, 0, 0, 1311.481079101562
53, 0, 0, 1314.907348632812
54, 0, 0, 1317.780517578125
55, 0, 0, 1324.992309570312
56, 0, 0, 1330.742553710938
57, 0, 0, 1353.557495117188
58, 0, 0, 1354.85546875
59, 0, 0, 1373.212036132812
60, 0, 0, 1385.332397460938
61, 0, 0, 1401.653076171875
62, 0, 0, 1418.27783203125
63, 0, 0, 1431.08203125
64, 0, 0, 1441.021362304688
65, 0, 0, 1460.022705078125
66, 0, 0, 1472.052490234375
67, 0, 0, 1494.873657226562
68, 0, 0, 1525.31201171875
69, 0, 0, 1541.520141601562
70, 0, 0, 1554.259765625
71, 0, 0, 1576.206909179688
72, 0, 0, 1602.524291992188
73, 0, 0, 1628.364013671875
74, 0, 0, 1655.166870117188
75, 0, 0, 1695.296875
76, 0, 0, 1730.524536132812
77, 0, 0, 1772.55126953125
78, 0, 0, 1815.923217773438
79, 0, 0, 1867.612915039062
80, 0, 0, 1932.854370117188
81, 0, 0, 1988.122436523438
82, 0, 0, 2055.28173828125
83, 0, 0, 2137.719970703125
84, 0, 0, 2237.5751953125
85, 0, 0, 2359.5322265625
86, 0, 0, 2514.192626953125
87, 0, 0, 2726.924072265625
88, 0, 0, 3008.715576171875
89, 0, 0, 3457.844970703125
90, 0, 0, 4014.607421875
91, 0, 0, 4267.9482421875
92, 0, 0, 4150.6298828125
93, 0, 0, 3117.1875
94, 0, 0, 1705.2265625
95, 0, 0, 596.6725463867188
96, 0, 0, 106.5520172119141
97, 0, 0, 11.43253707885742
98, 0, 0, 0
99, 0, 0, 0.01200187485665083
100, 0, 0, 0.03026904724538326
101, 0, 0, 0.008853854611515999
102, 0, 0, 0.06457353383302689
103, 0, 0, 0.003757425583899021
104, 0, 0, 0
105, 0, 0, 0
106, 0, 0, 0
107, 0, 0, 0
108, 0, 0, 0.05162692815065384
109, 0, 0, 0.01411391794681549
110, 0, 0, 0.01674139499664307
111, 0, 0, 0
112, 0, 0, 0.04211516305804253
113, 0, 0, 0.0224359855055809
114, 0, 0, 0
115, 0, 0, 0.06862454116344452
116, 0, 0, 0.02736161835491657
117, 0, 0, 0
118, 0, 0, 0.02245506644248962
119, 0, 0, 0.03701117262244225
120, 0, 0, 0.01482727564871311
121, 0, 0, 0.02844689041376114
122, 0, 0, 0.0240038875490427
123, 0, 0, 0
124, 0, 0, 0
125, 0, 0, 0
126, 0, 0, 0
127, 0, 0, 0
128, 0, 0, 0.05867639929056168
129, 0, 0, 0
130, 0, 0, 0
131, 0, 0, 0.08046285063028336
132, 0, 0, 0
133, 0, 0, 0
134, 0, 0, 0
135, 0, 0, 0.02722635120153427
136, 0, 0, 0.02413812279701233
137, 0, 0, 0.07368235290050507
138, 0, 0, 0.04383638873696327
139, 0, 0, 0
140, 0, 0, 0.001460376661270857
141, 0, 0, 0
142, 0, 0, 0
143, 0, 0, 0
144, 0, 0, 0
145, 0, 0, 0
146, 0, 0, 0
147, 0, 0, 0.009856880642473698
148, 0, 0, 0.04349632188677788
149, 0, 0, 0.05392884835600853
150, 0, 0, 0.1212350726127625
151, 0, 0, 0
152, 0, 0, 0.01861008629202843
153, 0, 0, 0
154, 0, 0, 0.0742170661687851
155, 0, 0, 0.05305574834346771
156, 0, 0, 0.03151296824216843
157, 0, 0, 0
158, 0, 0, 0
159, 0, 0, 0
160, 0, 0, 0
161, 0, 0, 0
162, 0, 0, 0
163, 0, 0, 0
164, 0, 0, 0
165, 0, 0, 0
166, 0, 0, 0
167, 0, 0, 0
168, 0, 0, 0
169, 0, 0, 0
170, 0, 0, 0
171, 0, 0, 0
172, 0, 0, 0
173, 0, 0, 0
174, 0, 0, 0.0172896645963192
175, 0, 0, 0.04799024760723114
176, 0, 0, 0
177, 0, 0, 0.05893881246447563
178, 0, 0, 0
179, 0, 0, 0
