# TOPAS Version: 3.3.p1
# Parameter File: Simple_Pattern.txt
# Results for scorer MLIC_Scorer
# Scored in component: MLIC
# X in 180 bins of 0.222222 cm
# Y in 1 bin  of 10 cm
# Z in 1 bin  of 10 cm
# EnergyDeposit ( MeV ) : Sum   
0, 0, 0, 1076.316528320312
1, 0, 0, 1089.316650390625
2, 0, 0, 1091.5205078125
3, 0, 0, 1097.205444335938
4, 0, 0, 1105.924926757812
5, 0, 0, 1113.80859375
6, 0, 0, 1103.80224609375
7, 0, 0, 1116.809814453125
8, 0, 0, 1121.982421875
9, 0, 0, 1138.052490234375
10, 0, 0, 1138.723999023438
11, 0, 0, 1141.2705078125
12, 0, 0, 1139.615112304688
13, 0, 0, 1148.403564453125
14, 0, 0, 1155.049560546875
15, 0, 0, 1159.886962890625
16, 0, 0, 1169.270629882812
17, 0, 0, 1175.49609375
18, 0, 0, 1185.103759765625
19, 0, 0, 1184.981323242188
20, 0, 0, 1194.672241210938
21, 0, 0, 1203.678344726562
22, 0, 0, 1202.961669921875
23, 0, 0, 1214.22314453125
24, 0, 0, 1221.128051757812
25, 0, 0, 1233.221313476562
26, 0, 0, 1240.21923828125
27, 0, 0, 1239.884887695312
28, 0, 0, 1243.615234375
29, 0, 0, 1261.078491210938
30, 0, 0, 1266.222045898438
31, 0, 0, 1280.104614257812
32, 0, 0, 1287.680419921875
33, 0, 0, 1292.766967773438
34, 0, 0, 1301.04833984375
35, 0, 0, 1314.470825195312
36, 0, 0, 1319.773803710938
37, 0, 0, 1333.766479492188
38, 0, 0, 1345.417724609375
39, 0, 0, 1354.74267578125
40, 0, 0, 1356.55810546875
41, 0, 0, 1371.26806640625
42, 0, 0, 1380.795043945312
43, 0, 0, 1384.198486328125
44, 0, 0, 1410.1591796875
45, 0, 0, 1413.682495117188
46, 0, 0, 1430.535034179688
47, 0, 0, 1443.651000976562
48, 0, 0, 1451.173461914062
49, 0, 0, 1466.3359375
50, 0, 0, 1483.97021484375
51, 0, 0, 1497.484252929688
52, 0, 0, 1508.205688476562
53, 0, 0, 1535.763427734375
54, 0, 0, 1555.862548828125
55, 0, 0, 1561.422485351562
56, 0, 0, 1579.03955078125
57, 0, 0, 1602.528076171875
58, 0, 0, 1617.286499023438
59, 0, 0, 1638.8017578125
60, 0, 0, 1655.954711914062
61, 0, 0, 1680.721435546875
62, 0, 0, 1704.314697265625
63, 0, 0, 1731.95751953125
64, 0, 0, 1749.543579101562
65, 0, 0, 1778.8564453125
66, 0, 0, 1807.990356445312
67, 0, 0, 1844.50341796875
68, 0, 0, 1869.977294921875
69, 0, 0, 1913.520629882812
70, 0, 0, 1936.70947265625
71, 0, 0, 1980.247802734375
72, 0, 0, 2018.599487304688
73, 0, 0, 2073.49072265625
74, 0, 0, 2106.512939453125
75, 0, 0, 2166.264404296875
76, 0, 0, 2229.323486328125
77, 0, 0, 2290.251220703125
78, 0, 0, 2347.79736328125
79, 0, 0, 2428.98291015625
80, 0, 0, 2499.14111328125
81, 0, 0, 2594.71630859375
82, 0, 0, 2708.64990234375
83, 0, 0, 2838.76025390625
84, 0, 0, 2982.249755859375
85, 0, 0, 3169.509521484375
86, 0, 0, 3387.179443359375
87, 0, 0, 3682.09814453125
88, 0, 0, 4073.48583984375
89, 0, 0, 4621.64599609375
90, 0, 0, 5440.2509765625
91, 0, 0, 6255.49072265625
92, 0, 0, 6166.3662109375
93, 0, 0, 4317.06640625
94, 0, 0, 2219.288818359375
95, 0, 0, 695.1361083984375
96, 0, 0, 161.0520782470703
97, 0, 0, 0
98, 0, 0, 0
99, 0, 0, 0
100, 0, 0, 0
101, 0, 0, 0
102, 0, 0, 0
103, 0, 0, 0
104, 0, 0, 0
105, 0, 0, 0
106, 0, 0, 0
107, 0, 0, 0
108, 0, 0, 0
109, 0, 0, 0
110, 0, 0, 0
111, 0, 0, 0
112, 0, 0, 0
113, 0, 0, 0
114, 0, 0, 0
115, 0, 0, 0
116, 0, 0, 0
117, 0, 0, 0
118, 0, 0, 0
119, 0, 0, 0
120, 0, 0, 0
121, 0, 0, 0
122, 0, 0, 0
123, 0, 0, 0
124, 0, 0, 0
125, 0, 0, 0
126, 0, 0, 0
127, 0, 0, 0
128, 0, 0, 0
129, 0, 0, 0
130, 0, 0, 0
131, 0, 0, 0
132, 0, 0, 0
133, 0, 0, 0
134, 0, 0, 0
135, 0, 0, 0
136, 0, 0, 0
137, 0, 0, 0
138, 0, 0, 0
139, 0, 0, 0
140, 0, 0, 0
141, 0, 0, 0
142, 0, 0, 0
143, 0, 0, 0
144, 0, 0, 0
145, 0, 0, 0
146, 0, 0, 0
147, 0, 0, 0
148, 0, 0, 0
149, 0, 0, 0
150, 0, 0, 0
151, 0, 0, 0
152, 0, 0, 0
153, 0, 0, 0
154, 0, 0, 0
155, 0, 0, 0
156, 0, 0, 0
157, 0, 0, 0
158, 0, 0, 0
159, 0, 0, 0
160, 0, 0, 0
161, 0, 0, 0
162, 0, 0, 0
163, 0, 0, 0
164, 0, 0, 0
165, 0, 0, 0
166, 0, 0, 0
167, 0, 0, 0
168, 0, 0, 0
169, 0, 0, 0
170, 0, 0, 0
171, 0, 0, 0
172, 0, 0, 0
173, 0, 0, 0
174, 0, 0, 0
175, 0, 0, 0
176, 0, 0, 0
177, 0, 0, 0
178, 0, 0, 0
179, 0, 0, 0
