# TOPAS Version: 3.3.p1
# Parameter File: Simple_Pattern.txt
# Results for scorer MLIC_Scorer
# Scored in component: MLIC
# X in 180 bins of 0.222222 cm
# Y in 1 bin  of 10 cm
# Z in 1 bin  of 10 cm
# EnergyDeposit ( MeV ) : Sum   
0, 0, 0, 1085.119995117188
1, 0, 0, 1090.319580078125
2, 0, 0, 1102.077270507812
3, 0, 0, 1099.834838867188
4, 0, 0, 1103.325073242188
5, 0, 0, 1115.647094726562
6, 0, 0, 1117.296997070312
7, 0, 0, 1115.6533203125
8, 0, 0, 1132.630004882812
9, 0, 0, 1127.647583007812
10, 0, 0, 1136.597534179688
11, 0, 0, 1137.583251953125
12, 0, 0, 1151.588134765625
13, 0, 0, 1152.964965820312
14, 0, 0, 1157.52294921875
15, 0, 0, 1168.995239257812
16, 0, 0, 1167.166748046875
17, 0, 0, 1183.226806640625
18, 0, 0, 1177.9404296875
19, 0, 0, 1192.814331054688
20, 0, 0, 1194.473388671875
21, 0, 0, 1205.274291992188
22, 0, 0, 1209.252807617188
23, 0, 0, 1220.582641601562
24, 0, 0, 1223.517578125
25, 0, 0, 1229.869995117188
26, 0, 0, 1230.3544921875
27, 0, 0, 1243.24267578125
28, 0, 0, 1253.40576171875
29, 0, 0, 1257.662231445312
30, 0, 0, 1264.26806640625
31, 0, 0, 1267.626342773438
32, 0, 0, 1284.948608398438
33, 0, 0, 1290.14404296875
34, 0, 0, 1300.6015625
35, 0, 0, 1309.809936523438
36, 0, 0, 1318.722045898438
37, 0, 0, 1323.112182617188
38, 0, 0, 1338.843017578125
39, 0, 0, 1347.682495117188
40, 0, 0, 1355.807861328125
41, 0, 0, 1370.264892578125
42, 0, 0, 1386.209594726562
43, 0, 0, 1394.511352539062
44, 0, 0, 1408.75390625
45, 0, 0, 1429.267822265625
46, 0, 0, 1432.032470703125
47, 0, 0, 1446.49609375
48, 0, 0, 1452.754760742188
49, 0, 0, 1466.329345703125
50, 0, 0, 1488.190185546875
51, 0, 0, 1495.748901367188
52, 0, 0, 1515.903198242188
53, 0, 0, 1532.273193359375
54, 0, 0, 1547.424560546875
55, 0, 0, 1563.89111328125
56, 0, 0, 1580.460571289062
57, 0, 0, 1601.634765625
58, 0, 0, 1611.092895507812
59, 0, 0, 1632.7255859375
60, 0, 0, 1656.6083984375
61, 0, 0, 1680.942993164062
62, 0, 0, 1700.164672851562
63, 0, 0, 1728.641723632812
64, 0, 0, 1749.65087890625
65, 0, 0, 1784.876831054688
66, 0, 0, 1811.60791015625
67, 0, 0, 1835.513671875
68, 0, 0, 1866.501953125
69, 0, 0, 1900.085815429688
70, 0, 0, 1941.74560546875
71, 0, 0, 1977.715087890625
72, 0, 0, 2017.661865234375
73, 0, 0, 2058.44287109375
74, 0, 0, 2111.59130859375
75, 0, 0, 2159.6015625
76, 0, 0, 2218.750732421875
77, 0, 0, 2292.280029296875
78, 0, 0, 2341.156005859375
79, 0, 0, 2416.40625
80, 0, 0, 2508.845458984375
81, 0, 0, 2594.958984375
82, 0, 0, 2712.390380859375
83, 0, 0, 2830.644287109375
84, 0, 0, 2981.967041015625
85, 0, 0, 3162.80517578125
86, 0, 0, 3376.55126953125
87, 0, 0, 3668.55859375
88, 0, 0, 4064.708984375
89, 0, 0, 4671.85107421875
90, 0, 0, 5458.21484375
91, 0, 0, 6288.08154296875
92, 0, 0, 6192.9296875
93, 0, 0, 4255.28369140625
94, 0, 0, 2230.29443359375
95, 0, 0, 645.8264770507812
96, 0, 0, 91.47982025146484
97, 0, 0, 21.29039573669434
98, 0, 0, 0
99, 0, 0, 0.001757650752551854
100, 0, 0, 0
101, 0, 0, 0
102, 0, 0, 0.02707871794700623
103, 0, 0, 0.00597513560205698
104, 0, 0, 0
105, 0, 0, 0
106, 0, 0, 0
107, 0, 0, 0
108, 0, 0, 0.005426621064543724
109, 0, 0, 0
110, 0, 0, 0
111, 0, 0, 0
112, 0, 0, 0
113, 0, 0, 0
114, 0, 0, 0
115, 0, 0, 0
116, 0, 0, 0
117, 0, 0, 0
118, 0, 0, 0
119, 0, 0, 0
120, 0, 0, 0
121, 0, 0, 0
122, 0, 0, 0
123, 0, 0, 0
124, 0, 0, 0
125, 0, 0, 0
126, 0, 0, 0
127, 0, 0, 0
128, 0, 0, 0
129, 0, 0, 0
130, 0, 0, 0
131, 0, 0, 0
132, 0, 0, 0
133, 0, 0, 0
134, 0, 0, 0
135, 0, 0, 0
136, 0, 0, 0
137, 0, 0, 0
138, 0, 0, 0
139, 0, 0, 0
140, 0, 0, 0
141, 0, 0, 0
142, 0, 0, 0
143, 0, 0, 0
144, 0, 0, 0
145, 0, 0, 0
146, 0, 0, 0
147, 0, 0, 0
148, 0, 0, 0
149, 0, 0, 0
150, 0, 0, 0
151, 0, 0, 0
152, 0, 0, 0
153, 0, 0, 0
154, 0, 0, 0
155, 0, 0, 0
156, 0, 0, 0
157, 0, 0, 0
158, 0, 0, 0
159, 0, 0, 0
160, 0, 0, 0
161, 0, 0, 0
162, 0, 0, 0
163, 0, 0, 0
164, 0, 0, 0
165, 0, 0, 0
166, 0, 0, 0
167, 0, 0, 0
168, 0, 0, 0
169, 0, 0, 0
170, 0, 0, 0
171, 0, 0, 0
172, 0, 0, 0
173, 0, 0, 0
174, 0, 0, 0
175, 0, 0, 0
176, 0, 0, 0
177, 0, 0, 0
178, 0, 0, 0
179, 0, 0, 0
