# TOPAS Version: 3.3.p1
# Parameter File: Simple_Pattern.txt
# Results for scorer MLIC_Scorer
# Scored in component: MLIC
# X in 180 bins of 0.222222 cm
# Y in 1 bin  of 10 cm
# Z in 1 bin  of 10 cm
# EnergyDeposit ( MeV ) : Sum   
0, 0, 0, 27.96950531005859
1, 0, 0, 28.41215705871582
2, 0, 0, 28.16519927978516
3, 0, 0, 30.01482200622559
4, 0, 0, 29.15756607055664
5, 0, 0, 27.09326934814453
6, 0, 0, 30.23323822021484
7, 0, 0, 28.35064888000488
8, 0, 0, 28.69881248474121
9, 0, 0, 30.18220710754395
10, 0, 0, 29.60055732727051
11, 0, 0, 29.06009483337402
12, 0, 0, 29.60482406616211
13, 0, 0, 29.29999542236328
14, 0, 0, 29.08541488647461
15, 0, 0, 29.80886840820312
16, 0, 0, 29.77975845336914
17, 0, 0, 32.44785690307617
18, 0, 0, 28.74525451660156
19, 0, 0, 29.70225143432617
20, 0, 0, 28.7791748046875
21, 0, 0, 30.67733192443848
22, 0, 0, 30.27327537536621
23, 0, 0, 30.34322547912598
24, 0, 0, 30.98143005371094
25, 0, 0, 31.25346374511719
26, 0, 0, 31.68392181396484
27, 0, 0, 32.23411560058594
28, 0, 0, 31.07097244262695
29, 0, 0, 31.68302536010742
30, 0, 0, 31.7237663269043
31, 0, 0, 29.90302848815918
32, 0, 0, 29.33514595031738
33, 0, 0, 32.24314498901367
34, 0, 0, 32.14491271972656
35, 0, 0, 31.47943305969238
36, 0, 0, 31.12709617614746
37, 0, 0, 31.17065048217773
38, 0, 0, 30.49553680419922
39, 0, 0, 32.37487030029297
40, 0, 0, 33.19269561767578
41, 0, 0, 32.71427917480469
42, 0, 0, 31.6043815612793
43, 0, 0, 32.60425567626953
44, 0, 0, 32.79214096069336
45, 0, 0, 34.62321090698242
46, 0, 0, 33.92899703979492
47, 0, 0, 36.01486206054688
48, 0, 0, 34.98445510864258
49, 0, 0, 33.13691711425781
50, 0, 0, 33.95309829711914
51, 0, 0, 35.19973754882812
52, 0, 0, 34.86853408813477
53, 0, 0, 35.200927734375
54, 0, 0, 36.19645309448242
55, 0, 0, 35.47465515136719
56, 0, 0, 36.29030227661133
57, 0, 0, 38.62153244018555
58, 0, 0, 36.73640060424805
59, 0, 0, 36.5190544128418
60, 0, 0, 37.39406204223633
61, 0, 0, 38.48308944702148
62, 0, 0, 39.29518127441406
63, 0, 0, 40.25650787353516
64, 0, 0, 40.01019668579102
65, 0, 0, 38.73770141601562
66, 0, 0, 39.49184799194336
67, 0, 0, 40.15000534057617
68, 0, 0, 41.79887390136719
69, 0, 0, 42.13323593139648
70, 0, 0, 42.47552871704102
71, 0, 0, 43.62137985229492
72, 0, 0, 44.220458984375
73, 0, 0, 46.23176956176758
74, 0, 0, 46.42467498779297
75, 0, 0, 47.37774658203125
76, 0, 0, 49.27707672119141
77, 0, 0, 49.236572265625
78, 0, 0, 49.72419738769531
79, 0, 0, 49.82515716552734
80, 0, 0, 53.15976333618164
81, 0, 0, 53.96052932739258
82, 0, 0, 57.28587341308594
83, 0, 0, 56.92979431152344
84, 0, 0, 59.20269012451172
85, 0, 0, 62.84993743896484
86, 0, 0, 67.36170196533203
87, 0, 0, 71.44207000732422
88, 0, 0, 84.85005187988281
89, 0, 0, 80.16836547851562
90, 0, 0, 85.96394348144531
91, 0, 0, 89.84639739990234
92, 0, 0, 112.4612503051758
93, 0, 0, 74.14308929443359
94, 0, 0, 75.14974975585938
95, 0, 0, 21.67354583740234
96, 0, 0, 0
97, 0, 0, 0
98, 0, 0, 0
99, 0, 0, 0
100, 0, 0, 0
101, 0, 0, 0
102, 0, 0, 0
103, 0, 0, 0
104, 0, 0, 0
105, 0, 0, 0
106, 0, 0, 0
107, 0, 0, 0
108, 0, 0, 0
109, 0, 0, 0
110, 0, 0, 0
111, 0, 0, 0
112, 0, 0, 0
113, 0, 0, 0
114, 0, 0, 0
115, 0, 0, 0
116, 0, 0, 0
117, 0, 0, 0
118, 0, 0, 0
119, 0, 0, 0
120, 0, 0, 0
121, 0, 0, 0
122, 0, 0, 0.02376295439898968
123, 0, 0, 0
124, 0, 0, 0
125, 0, 0, 0
126, 0, 0, 0
127, 0, 0, 0
128, 0, 0, 0
129, 0, 0, 0
130, 0, 0, 0
131, 0, 0, 0
132, 0, 0, 0
133, 0, 0, 0
134, 0, 0, 0
135, 0, 0, 0
136, 0, 0, 0
137, 0, 0, 0
138, 0, 0, 0
139, 0, 0, 0
140, 0, 0, 0
141, 0, 0, 0
142, 0, 0, 0
143, 0, 0, 0
144, 0, 0, 0
145, 0, 0, 0
146, 0, 0, 0
147, 0, 0, 0
148, 0, 0, 0
149, 0, 0, 0
150, 0, 0, 0
151, 0, 0, 0
152, 0, 0, 0
153, 0, 0, 0
154, 0, 0, 0
155, 0, 0, 0
156, 0, 0, 0
157, 0, 0, 0
158, 0, 0, 0
159, 0, 0, 0
160, 0, 0, 0
161, 0, 0, 0
162, 0, 0, 0
163, 0, 0, 0
164, 0, 0, 0
165, 0, 0, 0
166, 0, 0, 0
167, 0, 0, 0
168, 0, 0, 0
169, 0, 0, 0
170, 0, 0, 0
171, 0, 0, 0
172, 0, 0, 0
173, 0, 0, 0
174, 0, 0, 0
175, 0, 0, 0
176, 0, 0, 0
177, 0, 0, 0
178, 0, 0, 0
179, 0, 0, 0
