# TOPAS Version: 3.3.p1
# Parameter File: Simple_Pattern.txt
# Results for scorer MLIC_Scorer
# Scored in component: MLIC
# X in 165 bins of 0.2 cm
# Y in 1 bin  of 10 cm
# Z in 1 bin  of 10 cm
# EnergyDeposit ( MeV ) : Sum   
0, 0, 0, 0.0300741009414196
1, 0, 0, 0.09405799210071564
2, 0, 0, 0
3, 0, 0, 0.03930040821433067
4, 0, 0, 0
5, 0, 0, 0
6, 0, 0, 0
7, 0, 0, 0
8, 0, 0, 0
9, 0, 0, 0
10, 0, 0, 0.009424851275980473
11, 0, 0, 0
12, 0, 0, 0
13, 0, 0, 0.04762569069862366
14, 0, 0, 0.03605001419782639
15, 0, 0, 0.002704638056457043
16, 0, 0, 0.006641071755439043
17, 0, 0, 0.2026123404502869
18, 0, 0, 0
19, 0, 0, 0.03601308912038803
20, 0, 0, 0
21, 0, 0, 0
22, 0, 0, 0
23, 0, 0, 0
24, 0, 0, 0
25, 0, 0, 0
26, 0, 0, 0.2576501071453094
27, 0, 0, 0
28, 0, 0, 0.03251717239618301
29, 0, 0, 0
30, 0, 0, 0.003647021017968655
31, 0, 0, 0.00222192844375968
32, 0, 0, 0.1092091724276543
33, 0, 0, 0
34, 0, 0, 0
35, 0, 0, 0
36, 0, 0, 0
37, 0, 0, 0.03012484312057495
38, 0, 0, 0.004957448225468397
39, 0, 0, 0.003003488993272185
40, 0, 0, 0.08132950216531754
41, 0, 0, 0.02138644084334373
42, 0, 0, 0
43, 0, 0, 7.697068214416504
44, 0, 0, 19.88322067260742
45, 0, 0, 98.63327789306641
46, 0, 0, 408.6796264648438
47, 0, 0, 1082.320922851562
48, 0, 0, 2291.57275390625
49, 0, 0, 3263.7802734375
50, 0, 0, 3906.4560546875
51, 0, 0, 3971.87841796875
52, 0, 0, 3580.95068359375
53, 0, 0, 3064.06005859375
54, 0, 0, 2697.670654296875
55, 0, 0, 2457.718994140625
56, 0, 0, 2296.919921875
57, 0, 0, 2163.238037109375
58, 0, 0, 2051.02783203125
59, 0, 0, 1952.703125
60, 0, 0, 1876.33837890625
61, 0, 0, 1823.321899414062
62, 0, 0, 1759.031982421875
63, 0, 0, 1715.99951171875
64, 0, 0, 1673.630004882812
65, 0, 0, 1634.190307617188
66, 0, 0, 1594.731323242188
67, 0, 0, 1566.275756835938
68, 0, 0, 1526.473388671875
69, 0, 0, 1511.16455078125
70, 0, 0, 1481.87060546875
71, 0, 0, 1461.490600585938
72, 0, 0, 1440.876953125
73, 0, 0, 1415.816284179688
74, 0, 0, 1385.396240234375
75, 0, 0, 1379.19482421875
76, 0, 0, 1368.745239257812
77, 0, 0, 1335.55859375
78, 0, 0, 1318.957153320312
79, 0, 0, 1296.860473632812
80, 0, 0, 1289.401245117188
81, 0, 0, 1273.068115234375
82, 0, 0, 1261.729370117188
83, 0, 0, 1252.626953125
84, 0, 0, 1250.02392578125
85, 0, 0, 1229.296264648438
86, 0, 0, 1232.379150390625
87, 0, 0, 1224.163330078125
88, 0, 0, 1217.131103515625
89, 0, 0, 1209.151123046875
90, 0, 0, 1209.269775390625
91, 0, 0, 1192.041259765625
92, 0, 0, 1185.286987304688
93, 0, 0, 1170.103149414062
94, 0, 0, 1161.760986328125
95, 0, 0, 1152.218994140625
96, 0, 0, 1147.068603515625
97, 0, 0, 1154.354736328125
98, 0, 0, 1143.42578125
99, 0, 0, 1139.422241210938
100, 0, 0, 1134.51611328125
101, 0, 0, 1131.491455078125
102, 0, 0, 1125.492065429688
103, 0, 0, 1122.885131835938
104, 0, 0, 1109.605590820312
105, 0, 0, 1117.902221679688
106, 0, 0, 1102.697998046875
107, 0, 0, 1104.5546875
108, 0, 0, 1104.729736328125
109, 0, 0, 1084.666748046875
110, 0, 0, 1088.347412109375
111, 0, 0, 1091.540649414062
112, 0, 0, 1088.102905273438
113, 0, 0, 1091.12939453125
114, 0, 0, 1085.874145507812
115, 0, 0, 1081.390258789062
116, 0, 0, 1072.194458007812
117, 0, 0, 1083.116088867188
118, 0, 0, 1077.682495117188
119, 0, 0, 1063.274780273438
120, 0, 0, 1064.811279296875
121, 0, 0, 1056.549072265625
122, 0, 0, 1056.585571289062
123, 0, 0, 1056.43115234375
124, 0, 0, 1051.845581054688
125, 0, 0, 1057.33447265625
126, 0, 0, 1050.09228515625
127, 0, 0, 1047.520629882812
128, 0, 0, 1046.78271484375
129, 0, 0, 1042.33642578125
130, 0, 0, 1037.689697265625
131, 0, 0, 1036.056030273438
132, 0, 0, 1032.886596679688
133, 0, 0, 1021.422058105469
134, 0, 0, 1027.456176757812
135, 0, 0, 1026.302124023438
136, 0, 0, 1021.521850585938
137, 0, 0, 1014.751953125
138, 0, 0, 1013.760925292969
139, 0, 0, 1014.481384277344
140, 0, 0, 1018.354919433594
141, 0, 0, 1007.704528808594
142, 0, 0, 1008.956604003906
143, 0, 0, 1002.665405273438
144, 0, 0, 996.7122192382812
145, 0, 0, 995.1771850585938
146, 0, 0, 992.0452880859375
147, 0, 0, 986.7362060546875
148, 0, 0, 993.6732788085938
149, 0, 0, 994.989990234375
150, 0, 0, 974.9244384765625
151, 0, 0, 980.2587890625
152, 0, 0, 973.6196899414062
153, 0, 0, 971.8968505859375
154, 0, 0, 970.16162109375
155, 0, 0, 971.742431640625
156, 0, 0, 960.86865234375
157, 0, 0, 947.4224853515625
158, 0, 0, 948.5879516601562
159, 0, 0, 952.845947265625
160, 0, 0, 950.8869018554688
161, 0, 0, 949.9151611328125
162, 0, 0, 939.7206420898438
163, 0, 0, 938.4163208007812
164, 0, 0, 932.7848510742188
