# TOPAS Version: 3.3.p1
# Parameter File: Simple_Pattern.txt
# Results for scorer MLIC_Scorer
# Scored in component: MLIC
# X in 180 bins of 0.222222 cm
# Y in 1 bin  of 10 cm
# Z in 1 bin  of 10 cm
# EnergyDeposit ( MeV ) : Sum   
0, 0, 0, 57.52094268798828
1, 0, 0, 57.77172470092773
2, 0, 0, 59.17539215087891
3, 0, 0, 58.96163177490234
4, 0, 0, 59.8552131652832
5, 0, 0, 59.05759811401367
6, 0, 0, 61.03218078613281
7, 0, 0, 61.40721130371094
8, 0, 0, 59.41498184204102
9, 0, 0, 59.30194473266602
10, 0, 0, 62.08008575439453
11, 0, 0, 60.93427276611328
12, 0, 0, 62.04064178466797
13, 0, 0, 61.11736679077148
14, 0, 0, 61.1818733215332
15, 0, 0, 63.33546829223633
16, 0, 0, 63.70218276977539
17, 0, 0, 64.48242950439453
18, 0, 0, 63.09621810913086
19, 0, 0, 63.76644897460938
20, 0, 0, 62.53328323364258
21, 0, 0, 64.64570617675781
22, 0, 0, 65.79753112792969
23, 0, 0, 64.33985137939453
24, 0, 0, 65.28822326660156
25, 0, 0, 67.55412292480469
26, 0, 0, 67.67070007324219
27, 0, 0, 68.06284332275391
28, 0, 0, 68.46433258056641
29, 0, 0, 69.73858642578125
30, 0, 0, 70.63568115234375
31, 0, 0, 68.33278656005859
32, 0, 0, 71.99636077880859
33, 0, 0, 70.12628936767578
34, 0, 0, 71.90541076660156
35, 0, 0, 74.39691925048828
36, 0, 0, 71.47263336181641
37, 0, 0, 75.21186065673828
38, 0, 0, 75.75379943847656
39, 0, 0, 75.27819061279297
40, 0, 0, 77.73227691650391
41, 0, 0, 78.44325256347656
42, 0, 0, 77.16847991943359
43, 0, 0, 79.76035308837891
44, 0, 0, 81.19814300537109
45, 0, 0, 81.37586975097656
46, 0, 0, 82.257568359375
47, 0, 0, 83.96047973632812
48, 0, 0, 83.89999389648438
49, 0, 0, 84.64324951171875
50, 0, 0, 88.47894287109375
51, 0, 0, 88.37046813964844
52, 0, 0, 89.89763641357422
53, 0, 0, 90.26214599609375
54, 0, 0, 92.58084106445312
55, 0, 0, 94.15817260742188
56, 0, 0, 93.34983825683594
57, 0, 0, 96.73104858398438
58, 0, 0, 97.10618591308594
59, 0, 0, 100.4878692626953
60, 0, 0, 102.8022766113281
61, 0, 0, 106.9403228759766
62, 0, 0, 108.5217208862305
63, 0, 0, 111.5622177124023
64, 0, 0, 114.4801940917969
65, 0, 0, 115.5943298339844
66, 0, 0, 122.3138427734375
67, 0, 0, 125.7720794677734
68, 0, 0, 128.9340972900391
69, 0, 0, 137.5610961914062
70, 0, 0, 143.1477966308594
71, 0, 0, 151.1812286376953
72, 0, 0, 159.533447265625
73, 0, 0, 171.8710784912109
74, 0, 0, 188.4348602294922
75, 0, 0, 216.0847320556641
76, 0, 0, 223.9604339599609
77, 0, 0, 258.4410400390625
78, 0, 0, 293.09912109375
79, 0, 0, 284.7630920410156
80, 0, 0, 266.3671569824219
81, 0, 0, 130.3700256347656
82, 0, 0, 15.25750541687012
83, 0, 0, 0
84, 0, 0, 0
85, 0, 0, 0
86, 0, 0, 0
87, 0, 0, 0
88, 0, 0, 0
89, 0, 0, 0
90, 0, 0, 0
91, 0, 0, 0
92, 0, 0, 0
93, 0, 0, 0
94, 0, 0, 0
95, 0, 0, 0
96, 0, 0, 0
97, 0, 0, 0
98, 0, 0, 0
99, 0, 0, 0
100, 0, 0, 0
101, 0, 0, 0
102, 0, 0, 0
103, 0, 0, 0
104, 0, 0, 0
105, 0, 0, 0
106, 0, 0, 0
107, 0, 0, 0
108, 0, 0, 0
109, 0, 0, 0
110, 0, 0, 0
111, 0, 0, 0
112, 0, 0, 0
113, 0, 0, 0
114, 0, 0, 0
115, 0, 0, 0
116, 0, 0, 0
117, 0, 0, 0
118, 0, 0, 0
119, 0, 0, 0
120, 0, 0, 0
121, 0, 0, 0
122, 0, 0, 0
123, 0, 0, 0
124, 0, 0, 0
125, 0, 0, 0
126, 0, 0, 0
127, 0, 0, 0
128, 0, 0, 0
129, 0, 0, 0
130, 0, 0, 0
131, 0, 0, 0
132, 0, 0, 0
133, 0, 0, 0
134, 0, 0, 0
135, 0, 0, 0
136, 0, 0, 0
137, 0, 0, 0
138, 0, 0, 0
139, 0, 0, 0
140, 0, 0, 0
141, 0, 0, 0
142, 0, 0, 0
143, 0, 0, 0
144, 0, 0, 0
145, 0, 0, 0
146, 0, 0, 0
147, 0, 0, 0
148, 0, 0, 0
149, 0, 0, 0
150, 0, 0, 0
151, 0, 0, 0
152, 0, 0, 0
153, 0, 0, 0
154, 0, 0, 0
155, 0, 0, 0
156, 0, 0, 0
157, 0, 0, 0
158, 0, 0, 0
159, 0, 0, 0
160, 0, 0, 0
161, 0, 0, 0
162, 0, 0, 0
163, 0, 0, 0
164, 0, 0, 0
165, 0, 0, 0
166, 0, 0, 0
167, 0, 0, 0
168, 0, 0, 0
169, 0, 0, 0
170, 0, 0, 0
171, 0, 0, 0
172, 0, 0, 0
173, 0, 0, 0
174, 0, 0, 0
175, 0, 0, 0
176, 0, 0, 0
177, 0, 0, 0
178, 0, 0, 0
179, 0, 0, 0
