# TOPAS Version: 3.3.p1
# Parameter File: Simple_Pattern.txt
# Results for scorer MLIC_Scorer
# Scored in component: MLIC
# X in 180 bins of 0.222222 cm
# Y in 1 bin  of 10 cm
# Z in 1 bin  of 10 cm
# EnergyDeposit ( MeV ) : Sum   
0, 0, 0, 58.53557968139648
1, 0, 0, 60.15392684936523
2, 0, 0, 60.06936645507812
3, 0, 0, 59.72209167480469
4, 0, 0, 60.61322402954102
5, 0, 0, 62.5025634765625
6, 0, 0, 60.54127883911133
7, 0, 0, 62.4604377746582
8, 0, 0, 62.60780334472656
9, 0, 0, 62.19625854492188
10, 0, 0, 64.19119262695312
11, 0, 0, 62.51821517944336
12, 0, 0, 63.53348541259766
13, 0, 0, 63.10205078125
14, 0, 0, 64.01741790771484
15, 0, 0, 64.12879180908203
16, 0, 0, 63.77865600585938
17, 0, 0, 63.75439453125
18, 0, 0, 67.44680023193359
19, 0, 0, 65.62147521972656
20, 0, 0, 64.73494720458984
21, 0, 0, 67.52222442626953
22, 0, 0, 67.23361968994141
23, 0, 0, 65.937744140625
24, 0, 0, 66.87604522705078
25, 0, 0, 68.52597045898438
26, 0, 0, 66.45157623291016
27, 0, 0, 66.05594635009766
28, 0, 0, 67.51222991943359
29, 0, 0, 69.92557525634766
30, 0, 0, 70.52758026123047
31, 0, 0, 71.69684600830078
32, 0, 0, 71.37027740478516
33, 0, 0, 71.10092926025391
34, 0, 0, 71.98578643798828
35, 0, 0, 73.15983581542969
36, 0, 0, 73.35713195800781
37, 0, 0, 75.35774993896484
38, 0, 0, 74.09986877441406
39, 0, 0, 74.55347442626953
40, 0, 0, 78.39539337158203
41, 0, 0, 74.14850616455078
42, 0, 0, 78.20229339599609
43, 0, 0, 76.55641174316406
44, 0, 0, 75.59702301025391
45, 0, 0, 76.51572418212891
46, 0, 0, 80.89537811279297
47, 0, 0, 77.71351623535156
48, 0, 0, 79.57050323486328
49, 0, 0, 82.08354187011719
50, 0, 0, 79.9754638671875
51, 0, 0, 83.46542358398438
52, 0, 0, 83.47093200683594
53, 0, 0, 83.80570983886719
54, 0, 0, 83.92772674560547
55, 0, 0, 86.37282562255859
56, 0, 0, 86.84495544433594
57, 0, 0, 85.26589965820312
58, 0, 0, 88.57904052734375
59, 0, 0, 89.65550994873047
60, 0, 0, 91.49349975585938
61, 0, 0, 92.46910858154297
62, 0, 0, 94.28341674804688
63, 0, 0, 94.20688629150391
64, 0, 0, 95.76271057128906
65, 0, 0, 97.89315032958984
66, 0, 0, 100.0067291259766
67, 0, 0, 102.2111129760742
68, 0, 0, 103.8266906738281
69, 0, 0, 104.8315277099609
70, 0, 0, 106.9221572875977
71, 0, 0, 107.0504150390625
72, 0, 0, 112.495246887207
73, 0, 0, 113.4891586303711
74, 0, 0, 114.4923553466797
75, 0, 0, 118.3832778930664
76, 0, 0, 123.0691070556641
77, 0, 0, 126.7578277587891
78, 0, 0, 128.1540679931641
79, 0, 0, 134.5234375
80, 0, 0, 139.1477966308594
81, 0, 0, 146.138427734375
82, 0, 0, 148.2467803955078
83, 0, 0, 156.4485626220703
84, 0, 0, 165.962890625
85, 0, 0, 175.8061065673828
86, 0, 0, 188.2370758056641
87, 0, 0, 203.9833526611328
88, 0, 0, 227.5839385986328
89, 0, 0, 274.2055358886719
90, 0, 0, 304.841064453125
91, 0, 0, 305.1052551269531
92, 0, 0, 304.9159240722656
93, 0, 0, 245.1383972167969
94, 0, 0, 146.4876861572266
95, 0, 0, 32.84884262084961
96, 0, 0, 7.917141437530518
97, 0, 0, 0
98, 0, 0, 0.04093353450298309
99, 0, 0, 0
100, 0, 0, 0
101, 0, 0, 0
102, 0, 0, 0
103, 0, 0, 0
104, 0, 0, 0
105, 0, 0, 0
106, 0, 0, 0
107, 0, 0, 0
108, 0, 0, 0
109, 0, 0, 0
110, 0, 0, 0
111, 0, 0, 0
112, 0, 0, 0
113, 0, 0, 0
114, 0, 0, 0
115, 0, 0, 0
116, 0, 0, 0
117, 0, 0, 0
118, 0, 0, 0
119, 0, 0, 0
120, 0, 0, 0
121, 0, 0, 0
122, 0, 0, 0
123, 0, 0, 0
124, 0, 0, 0
125, 0, 0, 0
126, 0, 0, 0
127, 0, 0, 0
128, 0, 0, 0
129, 0, 0, 0
130, 0, 0, 0
131, 0, 0, 0
132, 0, 0, 0
133, 0, 0, 0
134, 0, 0, 0
135, 0, 0, 0
136, 0, 0, 0
137, 0, 0, 0
138, 0, 0, 0
139, 0, 0, 0
140, 0, 0, 0
141, 0, 0, 0
142, 0, 0, 0
143, 0, 0, 0
144, 0, 0, 0
145, 0, 0, 0
146, 0, 0, 0
147, 0, 0, 0
148, 0, 0, 0
149, 0, 0, 0
150, 0, 0, 0
151, 0, 0, 0
152, 0, 0, 0
153, 0, 0, 0
154, 0, 0, 0
155, 0, 0, 0
156, 0, 0, 0
157, 0, 0, 0
158, 0, 0, 0
159, 0, 0, 0
160, 0, 0, 0
161, 0, 0, 0
162, 0, 0, 0
163, 0, 0, 0
164, 0, 0, 0
165, 0, 0, 0
166, 0, 0, 0
167, 0, 0, 0
168, 0, 0, 0
169, 0, 0, 0
170, 0, 0, 0
171, 0, 0, 0
172, 0, 0, 0
173, 0, 0, 0
174, 0, 0, 0
175, 0, 0, 0
176, 0, 0, 0
177, 0, 0, 0
178, 0, 0, 0
179, 0, 0, 0
