# TOPAS Version: 3.3.p1
# Parameter File: Simple_Pattern.txt
# Results for scorer MLIC_Scorer
# Scored in component: MLIC
# X in 180 bins of 0.222222 cm
# Y in 1 bin  of 10 cm
# Z in 1 bin  of 10 cm
# EnergyDeposit ( MeV ) : Sum   
0, 0, 0, 70.30916595458984
1, 0, 0, 71.87349700927734
2, 0, 0, 70.89517974853516
3, 0, 0, 69.78044891357422
4, 0, 0, 72.71827697753906
5, 0, 0, 73.18686676025391
6, 0, 0, 73.37006378173828
7, 0, 0, 73.17592620849609
8, 0, 0, 72.72847747802734
9, 0, 0, 73.06711578369141
10, 0, 0, 73.14633941650391
11, 0, 0, 74.26609039306641
12, 0, 0, 75.11773681640625
13, 0, 0, 75.09433746337891
14, 0, 0, 76.50223541259766
15, 0, 0, 74.8507080078125
16, 0, 0, 76.83562469482422
17, 0, 0, 78.71699523925781
18, 0, 0, 78.65101623535156
19, 0, 0, 78.40943908691406
20, 0, 0, 76.89523315429688
21, 0, 0, 79.94281768798828
22, 0, 0, 79.87972259521484
23, 0, 0, 79.0228271484375
24, 0, 0, 80.93971252441406
25, 0, 0, 82.80571746826172
26, 0, 0, 82.18262481689453
27, 0, 0, 82.80728149414062
28, 0, 0, 83.79835510253906
29, 0, 0, 84.06273651123047
30, 0, 0, 84.65719604492188
31, 0, 0, 85.02292633056641
32, 0, 0, 85.76765441894531
33, 0, 0, 86.76097106933594
34, 0, 0, 86.89951324462891
35, 0, 0, 89.46832275390625
36, 0, 0, 88.06964111328125
37, 0, 0, 91.11292266845703
38, 0, 0, 92.58716583251953
39, 0, 0, 92.47538757324219
40, 0, 0, 92.49594879150391
41, 0, 0, 93.58644866943359
42, 0, 0, 93.34114837646484
43, 0, 0, 95.77197265625
44, 0, 0, 99.31103515625
45, 0, 0, 98.73627471923828
46, 0, 0, 102.984001159668
47, 0, 0, 103.5918960571289
48, 0, 0, 101.2097854614258
49, 0, 0, 104.7557220458984
50, 0, 0, 105.8124084472656
51, 0, 0, 104.4070892333984
52, 0, 0, 106.9474792480469
53, 0, 0, 110.46533203125
54, 0, 0, 111.8778305053711
55, 0, 0, 114.1013717651367
56, 0, 0, 114.0714645385742
57, 0, 0, 118.9460525512695
58, 0, 0, 120.919563293457
59, 0, 0, 122.3765182495117
60, 0, 0, 125.4672775268555
61, 0, 0, 128.3856658935547
62, 0, 0, 131.3846893310547
63, 0, 0, 133.9994659423828
64, 0, 0, 137.7595672607422
65, 0, 0, 141.0827941894531
66, 0, 0, 146.8268432617188
67, 0, 0, 151.4352416992188
68, 0, 0, 158.5817260742188
69, 0, 0, 163.0001373291016
70, 0, 0, 170.5876617431641
71, 0, 0, 180.961669921875
72, 0, 0, 191.0183258056641
73, 0, 0, 205.2786407470703
74, 0, 0, 222.9788360595703
75, 0, 0, 244.9281311035156
76, 0, 0, 285.1886901855469
77, 0, 0, 350.58447265625
78, 0, 0, 383.9023132324219
79, 0, 0, 345.7846374511719
80, 0, 0, 216.83935546875
81, 0, 0, 157.0891571044922
82, 0, 0, 59.1580696105957
83, 0, 0, 23.70425033569336
84, 0, 0, 9.591839790344238
85, 0, 0, 17.24772453308105
86, 0, 0, 4.06772518157959
87, 0, 0, 4.000626564025879
88, 0, 0, 4.519026279449463
89, 0, 0, 5.659397602081299
90, 0, 0, 7.539172172546387
91, 0, 0, 10.59558486938477
92, 0, 0, 0
93, 0, 0, 0
94, 0, 0, 0
95, 0, 0, 0
96, 0, 0, 0
97, 0, 0, 0
98, 0, 0, 0
99, 0, 0, 0
100, 0, 0, 0
101, 0, 0, 0
102, 0, 0, 0
103, 0, 0, 0
104, 0, 0, 0
105, 0, 0, 0
106, 0, 0, 0
107, 0, 0, 0
108, 0, 0, 0
109, 0, 0, 0
110, 0, 0, 0
111, 0, 0, 0
112, 0, 0, 0
113, 0, 0, 0
114, 0, 0, 0
115, 0, 0, 0
116, 0, 0, 0
117, 0, 0, 0
118, 0, 0, 0
119, 0, 0, 0
120, 0, 0, 0
121, 0, 0, 0
122, 0, 0, 0
123, 0, 0, 0
124, 0, 0, 0
125, 0, 0, 0
126, 0, 0, 0
127, 0, 0, 0
128, 0, 0, 0
129, 0, 0, 0
130, 0, 0, 0
131, 0, 0, 0
132, 0, 0, 0
133, 0, 0, 0
134, 0, 0, 0
135, 0, 0, 0
136, 0, 0, 0
137, 0, 0, 0
138, 0, 0, 0
139, 0, 0, 0
140, 0, 0, 0
141, 0, 0, 0
142, 0, 0, 0
143, 0, 0, 0
144, 0, 0, 0
145, 0, 0, 0
146, 0, 0, 0
147, 0, 0, 0
148, 0, 0, 0
149, 0, 0, 0
150, 0, 0, 0
151, 0, 0, 0
152, 0, 0, 0
153, 0, 0, 0
154, 0, 0, 0
155, 0, 0, 0
156, 0, 0, 0
157, 0, 0, 0
158, 0, 0, 0
159, 0, 0, 0
160, 0, 0, 0
161, 0, 0, 0
162, 0, 0, 0
163, 0, 0, 0
164, 0, 0, 0
165, 0, 0, 0
166, 0, 0, 0
167, 0, 0, 0
168, 0, 0, 0
169, 0, 0, 0
170, 0, 0, 0
171, 0, 0, 0
172, 0, 0, 0
173, 0, 0, 0
174, 0, 0, 0
175, 0, 0, 0
176, 0, 0, 0
177, 0, 0, 0
178, 0, 0, 0
179, 0, 0, 0
