# TOPAS Version: 3.3.p1
# Parameter File: Simple_Pattern.txt
# Results for scorer MLIC_Scorer
# Scored in component: MLIC
# X in 180 bins of 0.222222 cm
# Y in 1 bin  of 10 cm
# Z in 1 bin  of 10 cm
# EnergyDeposit ( MeV ) : Sum   
0, 0, 0, 1084.208129882812
1, 0, 0, 1081.7880859375
2, 0, 0, 1095.197143554688
3, 0, 0, 1108.9755859375
4, 0, 0, 1101.15283203125
5, 0, 0, 1101.501220703125
6, 0, 0, 1110.704223632812
7, 0, 0, 1122.641723632812
8, 0, 0, 1119.787963867188
9, 0, 0, 1132.318725585938
10, 0, 0, 1135.2568359375
11, 0, 0, 1148.050170898438
12, 0, 0, 1138.268920898438
13, 0, 0, 1157.269775390625
14, 0, 0, 1155.717895507812
15, 0, 0, 1162.536743164062
16, 0, 0, 1165.120239257812
17, 0, 0, 1174.122436523438
18, 0, 0, 1178.166625976562
19, 0, 0, 1192.783203125
20, 0, 0, 1198.255615234375
21, 0, 0, 1192.417602539062
22, 0, 0, 1204.396728515625
23, 0, 0, 1214.489379882812
24, 0, 0, 1217.29833984375
25, 0, 0, 1227.282470703125
26, 0, 0, 1240.219116210938
27, 0, 0, 1258.667236328125
28, 0, 0, 1251.603393554688
29, 0, 0, 1257.574584960938
30, 0, 0, 1265.407470703125
31, 0, 0, 1279.956176757812
32, 0, 0, 1276.24267578125
33, 0, 0, 1282.543090820312
34, 0, 0, 1292.907592773438
35, 0, 0, 1307.12548828125
36, 0, 0, 1313.70556640625
37, 0, 0, 1324.140991210938
38, 0, 0, 1334.087768554688
39, 0, 0, 1337.474243164062
40, 0, 0, 1350.274047851562
41, 0, 0, 1365.593627929688
42, 0, 0, 1376.589599609375
43, 0, 0, 1393.054321289062
44, 0, 0, 1403.669189453125
45, 0, 0, 1413.176635742188
46, 0, 0, 1435.465209960938
47, 0, 0, 1447.36572265625
48, 0, 0, 1456.482788085938
49, 0, 0, 1474.886108398438
50, 0, 0, 1487.267578125
51, 0, 0, 1495.030029296875
52, 0, 0, 1506.079223632812
53, 0, 0, 1544.325561523438
54, 0, 0, 1540.267456054688
55, 0, 0, 1563.538452148438
56, 0, 0, 1577.103759765625
57, 0, 0, 1604.067504882812
58, 0, 0, 1616.330932617188
59, 0, 0, 1635.03466796875
60, 0, 0, 1661.762451171875
61, 0, 0, 1681.3056640625
62, 0, 0, 1709.86572265625
63, 0, 0, 1733.117431640625
64, 0, 0, 1756.29150390625
65, 0, 0, 1781.7958984375
66, 0, 0, 1806.158813476562
67, 0, 0, 1840.608276367188
68, 0, 0, 1872.811157226562
69, 0, 0, 1901.32861328125
70, 0, 0, 1947.589599609375
71, 0, 0, 1978.66650390625
72, 0, 0, 2017.562255859375
73, 0, 0, 2060.052001953125
74, 0, 0, 2111.0595703125
75, 0, 0, 2162.504150390625
76, 0, 0, 2222.53955078125
77, 0, 0, 2276.0634765625
78, 0, 0, 2352.099365234375
79, 0, 0, 2425.137939453125
80, 0, 0, 2506.86669921875
81, 0, 0, 2607.3466796875
82, 0, 0, 2716.21533203125
83, 0, 0, 2838.09130859375
84, 0, 0, 2983.02783203125
85, 0, 0, 3164.7255859375
86, 0, 0, 3380.651611328125
87, 0, 0, 3673.22705078125
88, 0, 0, 4095.125732421875
89, 0, 0, 4635.20458984375
90, 0, 0, 5490.37841796875
91, 0, 0, 6267.93359375
92, 0, 0, 6138.25341796875
93, 0, 0, 4190.6748046875
94, 0, 0, 2378.513916015625
95, 0, 0, 704.2470703125
96, 0, 0, 112.3184432983398
97, 0, 0, 18.43869209289551
98, 0, 0, 0.005741325672715902
99, 0, 0, 0
100, 0, 0, 0
101, 0, 0, 0
102, 0, 0, 0
103, 0, 0, 0
104, 0, 0, 0
105, 0, 0, 0
106, 0, 0, 0
107, 0, 0, 0
108, 0, 0, 0
109, 0, 0, 0
110, 0, 0, 0
111, 0, 0, 0.001735969330184162
112, 0, 0, 0
113, 0, 0, 0
114, 0, 0, 0
115, 0, 0, 0
116, 0, 0, 0
117, 0, 0, 0
118, 0, 0, 0
119, 0, 0, 0
120, 0, 0, 0
121, 0, 0, 0
122, 0, 0, 0
123, 0, 0, 0
124, 0, 0, 0
125, 0, 0, 0
126, 0, 0, 0
127, 0, 0, 0
128, 0, 0, 0
129, 0, 0, 0
130, 0, 0, 0
131, 0, 0, 0
132, 0, 0, 0
133, 0, 0, 0
134, 0, 0, 0
135, 0, 0, 0
136, 0, 0, 0
137, 0, 0, 0
138, 0, 0, 0
139, 0, 0, 0
140, 0, 0, 0
141, 0, 0, 0
142, 0, 0, 0
143, 0, 0, 0
144, 0, 0, 0
145, 0, 0, 0
146, 0, 0, 0
147, 0, 0, 0
148, 0, 0, 0
149, 0, 0, 0
150, 0, 0, 0
151, 0, 0, 0
152, 0, 0, 0
153, 0, 0, 0
154, 0, 0, 0
155, 0, 0, 0
156, 0, 0, 0
157, 0, 0, 0
158, 0, 0, 0
159, 0, 0, 0
160, 0, 0, 0
161, 0, 0, 0
162, 0, 0, 0
163, 0, 0, 0
164, 0, 0, 0
165, 0, 0, 0
166, 0, 0, 0
167, 0, 0, 0
168, 0, 0, 0
169, 0, 0, 0
170, 0, 0, 0
171, 0, 0, 0
172, 0, 0, 0
173, 0, 0, 0
174, 0, 0, 0
175, 0, 0, 0
176, 0, 0, 0
177, 0, 0, 0
178, 0, 0, 0
179, 0, 0, 0
