# TOPAS Version: 3.3.p1
# Parameter File: Simple_Pattern.txt
# Results for scorer MLIC_Scorer
# Scored in component: MLIC
# X in 180 bins of 0.222222 cm
# Y in 1 bin  of 10 cm
# Z in 1 bin  of 10 cm
# EnergyDeposit ( MeV ) : Sum   
0, 0, 0, 50.96287155151367
1, 0, 0, 49.80034637451172
2, 0, 0, 49.73734664916992
3, 0, 0, 51.6220588684082
4, 0, 0, 51.43361282348633
5, 0, 0, 50.30902862548828
6, 0, 0, 52.42416000366211
7, 0, 0, 53.25366973876953
8, 0, 0, 51.05449295043945
9, 0, 0, 50.94611740112305
10, 0, 0, 55.05857849121094
11, 0, 0, 52.76811599731445
12, 0, 0, 52.33036422729492
13, 0, 0, 54.24800491333008
14, 0, 0, 54.81897735595703
15, 0, 0, 55.42663955688477
16, 0, 0, 55.16932678222656
17, 0, 0, 55.13898468017578
18, 0, 0, 55.18983459472656
19, 0, 0, 56.13626861572266
20, 0, 0, 57.68300628662109
21, 0, 0, 58.04904556274414
22, 0, 0, 56.3444709777832
23, 0, 0, 56.97558212280273
24, 0, 0, 56.93734741210938
25, 0, 0, 59.62717819213867
26, 0, 0, 59.32134246826172
27, 0, 0, 58.91172790527344
28, 0, 0, 60.06668090820312
29, 0, 0, 59.35955810546875
30, 0, 0, 61.13187408447266
31, 0, 0, 62.30624008178711
32, 0, 0, 62.21123886108398
33, 0, 0, 62.19181823730469
34, 0, 0, 63.59521865844727
35, 0, 0, 64.29361724853516
36, 0, 0, 64.98519134521484
37, 0, 0, 65.02923583984375
38, 0, 0, 64.91342163085938
39, 0, 0, 66.20113372802734
40, 0, 0, 66.87544250488281
41, 0, 0, 68.01004791259766
42, 0, 0, 68.90821838378906
43, 0, 0, 68.2783203125
44, 0, 0, 70.46070098876953
45, 0, 0, 71.12799835205078
46, 0, 0, 73.72034454345703
47, 0, 0, 71.36556243896484
48, 0, 0, 73.05261993408203
49, 0, 0, 75.69457244873047
50, 0, 0, 76.21708679199219
51, 0, 0, 76.84217071533203
52, 0, 0, 77.42150115966797
53, 0, 0, 80.36719512939453
54, 0, 0, 79.79219818115234
55, 0, 0, 80.48300933837891
56, 0, 0, 84.18374633789062
57, 0, 0, 85.27192687988281
58, 0, 0, 86.98374176025391
59, 0, 0, 88.30646514892578
60, 0, 0, 90.66946411132812
61, 0, 0, 93.07537078857422
62, 0, 0, 95.55799102783203
63, 0, 0, 96.53299713134766
64, 0, 0, 99.67093658447266
65, 0, 0, 103.2660522460938
66, 0, 0, 108.1356201171875
67, 0, 0, 107.9037933349609
68, 0, 0, 113.7213363647461
69, 0, 0, 117.9771347045898
70, 0, 0, 122.2184829711914
71, 0, 0, 128.3780670166016
72, 0, 0, 136.5076599121094
73, 0, 0, 146.1428070068359
74, 0, 0, 157.4638824462891
75, 0, 0, 173.3847198486328
76, 0, 0, 200.1227264404297
77, 0, 0, 223.3376617431641
78, 0, 0, 278.2293090820312
79, 0, 0, 317.2153625488281
80, 0, 0, 214.8483123779297
81, 0, 0, 92.13407897949219
82, 0, 0, 21.44333267211914
83, 0, 0, 8.598139762878418
84, 0, 0, 8.157881736755371
85, 0, 0, 0
86, 0, 0, 0
87, 0, 0, 0
88, 0, 0, 0
89, 0, 0, 0
90, 0, 0, 0
91, 0, 0, 0
92, 0, 0, 0
93, 0, 0, 0
94, 0, 0, 0
95, 0, 0, 0
96, 0, 0, 0
97, 0, 0, 0
98, 0, 0, 0
99, 0, 0, 0
100, 0, 0, 0
101, 0, 0, 0
102, 0, 0, 0
103, 0, 0, 0
104, 0, 0, 0
105, 0, 0, 0
106, 0, 0, 0
107, 0, 0, 0
108, 0, 0, 0
109, 0, 0, 0
110, 0, 0, 0
111, 0, 0, 0
112, 0, 0, 0
113, 0, 0, 0
114, 0, 0, 0
115, 0, 0, 0
116, 0, 0, 0
117, 0, 0, 0
118, 0, 0, 0
119, 0, 0, 0
120, 0, 0, 0
121, 0, 0, 0
122, 0, 0, 0
123, 0, 0, 0
124, 0, 0, 0
125, 0, 0, 0
126, 0, 0, 0
127, 0, 0, 0
128, 0, 0, 0
129, 0, 0, 0
130, 0, 0, 0
131, 0, 0, 0
132, 0, 0, 0
133, 0, 0, 0
134, 0, 0, 0
135, 0, 0, 0
136, 0, 0, 0
137, 0, 0, 0
138, 0, 0, 0
139, 0, 0, 0
140, 0, 0, 0
141, 0, 0, 0
142, 0, 0, 0
143, 0, 0, 0
144, 0, 0, 0
145, 0, 0, 0
146, 0, 0, 0
147, 0, 0, 0
148, 0, 0, 0
149, 0, 0, 0
150, 0, 0, 0
151, 0, 0, 0
152, 0, 0, 0
153, 0, 0, 0
154, 0, 0, 0
155, 0, 0, 0
156, 0, 0, 0
157, 0, 0, 0
158, 0, 0, 0
159, 0, 0, 0
160, 0, 0, 0
161, 0, 0, 0
162, 0, 0, 0
163, 0, 0, 0
164, 0, 0, 0
165, 0, 0, 0
166, 0, 0, 0
167, 0, 0, 0
168, 0, 0, 0
169, 0, 0, 0
170, 0, 0, 0
171, 0, 0, 0
172, 0, 0, 0
173, 0, 0, 0
174, 0, 0, 0
175, 0, 0, 0
176, 0, 0, 0
177, 0, 0, 0
178, 0, 0, 0
179, 0, 0, 0
