# TOPAS Version: 3.3.p1
# Parameter File: Simple_Pattern.txt
# Results for scorer MLIC_Scorer
# Scored in component: MLIC
# X in 180 bins of 0.222222 cm
# Y in 1 bin  of 10 cm
# Z in 1 bin  of 10 cm
# EnergyDeposit ( MeV ) : Sum   
0, 0, 0, 1084.473022460938
1, 0, 0, 1082.726440429688
2, 0, 0, 1091.684936523438
3, 0, 0, 1098.951416015625
4, 0, 0, 1100.2001953125
5, 0, 0, 1120.167236328125
6, 0, 0, 1120.470947265625
7, 0, 0, 1127.5126953125
8, 0, 0, 1117.601440429688
9, 0, 0, 1125.96923828125
10, 0, 0, 1138.088989257812
11, 0, 0, 1141.77587890625
12, 0, 0, 1150.7421875
13, 0, 0, 1157.314331054688
14, 0, 0, 1162.121704101562
15, 0, 0, 1173.415649414062
16, 0, 0, 1171.407592773438
17, 0, 0, 1175.067138671875
18, 0, 0, 1170.1357421875
19, 0, 0, 1197.907470703125
20, 0, 0, 1199.452514648438
21, 0, 0, 1209.076782226562
22, 0, 0, 1201.948364257812
23, 0, 0, 1212.675537109375
24, 0, 0, 1220.98876953125
25, 0, 0, 1233.093139648438
26, 0, 0, 1241.138916015625
27, 0, 0, 1245.197509765625
28, 0, 0, 1237.878662109375
29, 0, 0, 1272.834228515625
30, 0, 0, 1263.179443359375
31, 0, 0, 1271.2529296875
32, 0, 0, 1276.31103515625
33, 0, 0, 1289.43505859375
34, 0, 0, 1305.51171875
35, 0, 0, 1313.286743164062
36, 0, 0, 1317.357299804688
37, 0, 0, 1328.670288085938
38, 0, 0, 1331.665405273438
39, 0, 0, 1351.787353515625
40, 0, 0, 1353.032836914062
41, 0, 0, 1372.967163085938
42, 0, 0, 1375.688354492188
43, 0, 0, 1395.064453125
44, 0, 0, 1408.638916015625
45, 0, 0, 1416.848266601562
46, 0, 0, 1422.974609375
47, 0, 0, 1451.409545898438
48, 0, 0, 1456.415771484375
49, 0, 0, 1473.842163085938
50, 0, 0, 1483.99951171875
51, 0, 0, 1501.32958984375
52, 0, 0, 1508.248168945312
53, 0, 0, 1532.987426757812
54, 0, 0, 1546.646606445312
55, 0, 0, 1558.668579101562
56, 0, 0, 1575.535766601562
57, 0, 0, 1610.03662109375
58, 0, 0, 1623.951416015625
59, 0, 0, 1633.006225585938
60, 0, 0, 1662.818969726562
61, 0, 0, 1680.865234375
62, 0, 0, 1709.936279296875
63, 0, 0, 1722.794555664062
64, 0, 0, 1753.552124023438
65, 0, 0, 1780.443481445312
66, 0, 0, 1807.02001953125
67, 0, 0, 1837.18310546875
68, 0, 0, 1878.301147460938
69, 0, 0, 1903.925537109375
70, 0, 0, 1941.8017578125
71, 0, 0, 1975.2421875
72, 0, 0, 2017.078002929688
73, 0, 0, 2060.8671875
74, 0, 0, 2114.248291015625
75, 0, 0, 2167.520263671875
76, 0, 0, 2217.1279296875
77, 0, 0, 2277.33251953125
78, 0, 0, 2354.49169921875
79, 0, 0, 2426.36572265625
80, 0, 0, 2503.2314453125
81, 0, 0, 2600.90966796875
82, 0, 0, 2705.216064453125
83, 0, 0, 2828.63037109375
84, 0, 0, 2982.026611328125
85, 0, 0, 3161.844970703125
86, 0, 0, 3386.089599609375
87, 0, 0, 3662.255859375
88, 0, 0, 4086.652587890625
89, 0, 0, 4692.6015625
90, 0, 0, 5546.232421875
91, 0, 0, 6172.3154296875
92, 0, 0, 6095.2802734375
93, 0, 0, 4218.79833984375
94, 0, 0, 2288.553466796875
95, 0, 0, 826.1972045898438
96, 0, 0, 115.6474380493164
97, 0, 0, 18.51546287536621
98, 0, 0, 0
99, 0, 0, 0.0002471311890985817
100, 0, 0, 0
101, 0, 0, 0
102, 0, 0, 0
103, 0, 0, 0.004686244763433933
104, 0, 0, 0.03752290084958076
105, 0, 0, 0
106, 0, 0, 0.001491409144364297
107, 0, 0, 0.0003133710997644812
108, 0, 0, 0
109, 0, 0, 0
110, 0, 0, 0
111, 0, 0, 0
112, 0, 0, 0
113, 0, 0, 0.03129492700099945
114, 0, 0, 0
115, 0, 0, 0
116, 0, 0, 0
117, 0, 0, 0
118, 0, 0, 0
119, 0, 0, 0
120, 0, 0, 0
121, 0, 0, 0
122, 0, 0, 0
123, 0, 0, 0
124, 0, 0, 0
125, 0, 0, 0
126, 0, 0, 0
127, 0, 0, 0
128, 0, 0, 0
129, 0, 0, 0
130, 0, 0, 0
131, 0, 0, 0
132, 0, 0, 0
133, 0, 0, 0
134, 0, 0, 0
135, 0, 0, 0
136, 0, 0, 0
137, 0, 0, 0
138, 0, 0, 0
139, 0, 0, 0
140, 0, 0, 0
141, 0, 0, 0
142, 0, 0, 0
143, 0, 0, 0
144, 0, 0, 0
145, 0, 0, 0
146, 0, 0, 0
147, 0, 0, 0
148, 0, 0, 0
149, 0, 0, 0
150, 0, 0, 0
151, 0, 0, 0
152, 0, 0, 0
153, 0, 0, 0
154, 0, 0, 0
155, 0, 0, 0
156, 0, 0, 0
157, 0, 0, 0
158, 0, 0, 0
159, 0, 0, 0
160, 0, 0, 0
161, 0, 0, 0
162, 0, 0, 0
163, 0, 0, 0
164, 0, 0, 0
165, 0, 0, 0
166, 0, 0, 0
167, 0, 0, 0
168, 0, 0, 0
169, 0, 0, 0
170, 0, 0, 0
171, 0, 0, 0
172, 0, 0, 0
173, 0, 0, 0
174, 0, 0, 0
175, 0, 0, 0
176, 0, 0, 0
177, 0, 0, 0
178, 0, 0, 0
179, 0, 0, 0
