# TOPAS Version: 3.3.p1
# Parameter File: Simple_Pattern.txt
# Results for scorer MLIC_Scorer
# Scored in component: MLIC
# X in 165 bins of 0.2 cm
# Y in 1 bin  of 10 cm
# Z in 1 bin  of 10 cm
# EnergyDeposit ( MeV ) : Sum   
0, 0, 0, 939.9674072265625
1, 0, 0, 938.554443359375
2, 0, 0, 940.4033203125
3, 0, 0, 945.0902709960938
4, 0, 0, 946.2987670898438
5, 0, 0, 964.5154418945312
6, 0, 0, 956.969482421875
7, 0, 0, 960.845947265625
8, 0, 0, 960.2235107421875
9, 0, 0, 970.394287109375
10, 0, 0, 976.82373046875
11, 0, 0, 979.6951904296875
12, 0, 0, 976.962158203125
13, 0, 0, 979.6541137695312
14, 0, 0, 977.13818359375
15, 0, 0, 989.0621337890625
16, 0, 0, 992.173828125
17, 0, 0, 991.9295654296875
18, 0, 0, 1000.600524902344
19, 0, 0, 1004.265075683594
20, 0, 0, 1008.099792480469
21, 0, 0, 1014.338562011719
22, 0, 0, 1017.085815429688
23, 0, 0, 1024.311157226562
24, 0, 0, 1020.200988769531
25, 0, 0, 1029.55712890625
26, 0, 0, 1028.398559570312
27, 0, 0, 1036.5126953125
28, 0, 0, 1040.71826171875
29, 0, 0, 1041.829833984375
30, 0, 0, 1051.61572265625
31, 0, 0, 1057.927001953125
32, 0, 0, 1062.350830078125
33, 0, 0, 1068.652954101562
34, 0, 0, 1074.64306640625
35, 0, 0, 1068.891357421875
36, 0, 0, 1084.2568359375
37, 0, 0, 1088.403198242188
38, 0, 0, 1090.985107421875
39, 0, 0, 1098.95947265625
40, 0, 0, 1107.070678710938
41, 0, 0, 1120.089599609375
42, 0, 0, 1125.388916015625
43, 0, 0, 1123.303466796875
44, 0, 0, 1131.990600585938
45, 0, 0, 1138.400512695312
46, 0, 0, 1147.83056640625
47, 0, 0, 1153.294921875
48, 0, 0, 1158.001098632812
49, 0, 0, 1168.366455078125
50, 0, 0, 1171.900390625
51, 0, 0, 1178.139892578125
52, 0, 0, 1187.438720703125
53, 0, 0, 1186.010620117188
54, 0, 0, 1198.336669921875
55, 0, 0, 1210.606567382812
56, 0, 0, 1219.545654296875
57, 0, 0, 1228.821655273438
58, 0, 0, 1237.80859375
59, 0, 0, 1247.29736328125
60, 0, 0, 1246.247802734375
61, 0, 0, 1271.353637695312
62, 0, 0, 1282.340087890625
63, 0, 0, 1285.394775390625
64, 0, 0, 1296.7177734375
65, 0, 0, 1295.090454101562
66, 0, 0, 1314.289306640625
67, 0, 0, 1325.1630859375
68, 0, 0, 1340.509399414062
69, 0, 0, 1355.884643554688
70, 0, 0, 1359.321044921875
71, 0, 0, 1378.45068359375
72, 0, 0, 1396.918579101562
73, 0, 0, 1402.267456054688
74, 0, 0, 1417.195434570312
75, 0, 0, 1432.889526367188
76, 0, 0, 1436.636474609375
77, 0, 0, 1463.006958007812
78, 0, 0, 1480.268798828125
79, 0, 0, 1490.383666992188
80, 0, 0, 1510.697875976562
81, 0, 0, 1531.051391601562
82, 0, 0, 1555.491088867188
83, 0, 0, 1568.299194335938
84, 0, 0, 1580.442626953125
85, 0, 0, 1610.086547851562
86, 0, 0, 1635.195434570312
87, 0, 0, 1653.283447265625
88, 0, 0, 1678.618286132812
89, 0, 0, 1704.305786132812
90, 0, 0, 1730.872680664062
91, 0, 0, 1768.021484375
92, 0, 0, 1792.650634765625
93, 0, 0, 1835.694213867188
94, 0, 0, 1872.461547851562
95, 0, 0, 1917.989013671875
96, 0, 0, 1949.9248046875
97, 0, 0, 1995.7216796875
98, 0, 0, 2043.845092773438
99, 0, 0, 2103.00537109375
100, 0, 0, 2158.398193359375
101, 0, 0, 2225.142333984375
102, 0, 0, 2306.2265625
103, 0, 0, 2390.822021484375
104, 0, 0, 2473.701171875
105, 0, 0, 2595.957763671875
106, 0, 0, 2725.75537109375
107, 0, 0, 2880.519287109375
108, 0, 0, 3090.121826171875
109, 0, 0, 3317.06640625
110, 0, 0, 3670.960205078125
111, 0, 0, 4160.2578125
112, 0, 0, 4692.92626953125
113, 0, 0, 5225.55224609375
114, 0, 0, 5309.31591796875
115, 0, 0, 4366.08984375
116, 0, 0, 2892.924072265625
117, 0, 0, 1447.997924804688
118, 0, 0, 517.3671264648438
119, 0, 0, 97.37774658203125
120, 0, 0, 40.01477813720703
121, 0, 0, 12.21166706085205
122, 0, 0, 0
123, 0, 0, 0
124, 0, 0, 0
125, 0, 0, 0
126, 0, 0, 0
127, 0, 0, 0
128, 0, 0, 0
129, 0, 0, 0
130, 0, 0, 0
131, 0, 0, 0
132, 0, 0, 0
133, 0, 0, 0
134, 0, 0, 0
135, 0, 0, 0
136, 0, 0, 0
137, 0, 0, 0
138, 0, 0, 0
139, 0, 0, 0
140, 0, 0, 0.01026553101837635
141, 0, 0, 0.002712634624913335
142, 0, 0, 0
143, 0, 0, 0.00247095269151032
144, 0, 0, 0
145, 0, 0, 0
146, 0, 0, 0
147, 0, 0, 0
148, 0, 0, 0.002547949552536011
149, 0, 0, 0
150, 0, 0, 0
151, 0, 0, 0
152, 0, 0, 0
153, 0, 0, 0
154, 0, 0, 0
155, 0, 0, 0
156, 0, 0, 0.03151603043079376
157, 0, 0, 0
158, 0, 0, 0
159, 0, 0, 0
160, 0, 0, 0
161, 0, 0, 0
162, 0, 0, 0
163, 0, 0, 0
164, 0, 0, 0
