# TOPAS Version: 3.3.p1
# Parameter File: Simple_Pattern.txt
# Results for scorer MLIC_Scorer
# Scored in component: MLIC
# X in 180 bins of 0.222222 cm
# Y in 1 bin  of 10 cm
# Z in 1 bin  of 10 cm
# EnergyDeposit ( MeV ) : Sum   
0, 0, 0, 106.3488159179688
1, 0, 0, 105.7419891357422
2, 0, 0, 109.385627746582
3, 0, 0, 106.70166015625
4, 0, 0, 107.3959274291992
5, 0, 0, 110.226188659668
6, 0, 0, 106.4221878051758
7, 0, 0, 108.4048156738281
8, 0, 0, 109.5878982543945
9, 0, 0, 110.7563781738281
10, 0, 0, 108.5169906616211
11, 0, 0, 111.9594650268555
12, 0, 0, 113.2207565307617
13, 0, 0, 110.7448196411133
14, 0, 0, 110.7769622802734
15, 0, 0, 114.7406005859375
16, 0, 0, 115.1514892578125
17, 0, 0, 114.3697357177734
18, 0, 0, 117.7689056396484
19, 0, 0, 117.6837387084961
20, 0, 0, 118.3554000854492
21, 0, 0, 115.9698104858398
22, 0, 0, 119.0222778320312
23, 0, 0, 117.0385971069336
24, 0, 0, 117.5092315673828
25, 0, 0, 119.8330001831055
26, 0, 0, 120.1919631958008
27, 0, 0, 119.8253784179688
28, 0, 0, 123.2314300537109
29, 0, 0, 124.7239379882812
30, 0, 0, 125.4276809692383
31, 0, 0, 122.7405700683594
32, 0, 0, 125.2374572753906
33, 0, 0, 125.8522262573242
34, 0, 0, 131.1476135253906
35, 0, 0, 128.6455841064453
36, 0, 0, 127.1999588012695
37, 0, 0, 130.6706390380859
38, 0, 0, 131.2669219970703
39, 0, 0, 132.9875640869141
40, 0, 0, 132.8946228027344
41, 0, 0, 136.1349334716797
42, 0, 0, 132.3726501464844
43, 0, 0, 137.8126373291016
44, 0, 0, 138.2275543212891
45, 0, 0, 137.6574859619141
46, 0, 0, 143.2833709716797
47, 0, 0, 140.2395477294922
48, 0, 0, 142.1366424560547
49, 0, 0, 142.5713348388672
50, 0, 0, 145.2975006103516
51, 0, 0, 147.1640472412109
52, 0, 0, 149.1316070556641
53, 0, 0, 151.8264465332031
54, 0, 0, 147.7038269042969
55, 0, 0, 150.8112335205078
56, 0, 0, 153.6852264404297
57, 0, 0, 158.14599609375
58, 0, 0, 158.4108276367188
59, 0, 0, 160.7288970947266
60, 0, 0, 162.2422332763672
61, 0, 0, 166.9752807617188
62, 0, 0, 168.4080352783203
63, 0, 0, 171.0912933349609
64, 0, 0, 170.3221740722656
65, 0, 0, 176.4386444091797
66, 0, 0, 175.3350219726562
67, 0, 0, 182.2177886962891
68, 0, 0, 183.7277679443359
69, 0, 0, 186.3237457275391
70, 0, 0, 188.7531127929688
71, 0, 0, 193.2730560302734
72, 0, 0, 197.4794006347656
73, 0, 0, 202.7565002441406
74, 0, 0, 207.1654357910156
75, 0, 0, 210.0023956298828
76, 0, 0, 218.6998596191406
77, 0, 0, 221.2013854980469
78, 0, 0, 232.9012756347656
79, 0, 0, 235.9150695800781
80, 0, 0, 244.1713714599609
81, 0, 0, 254.5790252685547
82, 0, 0, 266.2394104003906
83, 0, 0, 277.5372314453125
84, 0, 0, 290.8882141113281
85, 0, 0, 307.383544921875
86, 0, 0, 329.2675170898438
87, 0, 0, 356.2123413085938
88, 0, 0, 393.3672485351562
89, 0, 0, 453.2456665039062
90, 0, 0, 548.086181640625
91, 0, 0, 645.0376586914062
92, 0, 0, 585.554931640625
93, 0, 0, 435.994384765625
94, 0, 0, 219.6438446044922
95, 0, 0, 50.76802825927734
96, 0, 0, 21.74410629272461
97, 0, 0, 0
98, 0, 0, 0
99, 0, 0, 0
100, 0, 0, 0
101, 0, 0, 0
102, 0, 0, 0
103, 0, 0, 0
104, 0, 0, 0
105, 0, 0, 0
106, 0, 0, 0
107, 0, 0, 0
108, 0, 0, 0
109, 0, 0, 0
110, 0, 0, 0
111, 0, 0, 0
112, 0, 0, 0
113, 0, 0, 0
114, 0, 0, 0
115, 0, 0, 0
116, 0, 0, 0
117, 0, 0, 0
118, 0, 0, 0
119, 0, 0, 0
120, 0, 0, 0
121, 0, 0, 0
122, 0, 0, 0
123, 0, 0, 0
124, 0, 0, 0
125, 0, 0, 0
126, 0, 0, 0
127, 0, 0, 0
128, 0, 0, 0
129, 0, 0, 0
130, 0, 0, 0
131, 0, 0, 0
132, 0, 0, 0
133, 0, 0, 0
134, 0, 0, 0
135, 0, 0, 0
136, 0, 0, 0
137, 0, 0, 0
138, 0, 0, 0
139, 0, 0, 0
140, 0, 0, 0
141, 0, 0, 0
142, 0, 0, 0
143, 0, 0, 0
144, 0, 0, 0
145, 0, 0, 0
146, 0, 0, 0
147, 0, 0, 0
148, 0, 0, 0
149, 0, 0, 0
150, 0, 0, 0
151, 0, 0, 0
152, 0, 0, 0
153, 0, 0, 0
154, 0, 0, 0
155, 0, 0, 0
156, 0, 0, 0
157, 0, 0, 0
158, 0, 0, 0
159, 0, 0, 0
160, 0, 0, 0
161, 0, 0, 0
162, 0, 0, 0
163, 0, 0, 0
164, 0, 0, 0
165, 0, 0, 0
166, 0, 0, 0
167, 0, 0, 0
168, 0, 0, 0
169, 0, 0, 0
170, 0, 0, 0
171, 0, 0, 0
172, 0, 0, 0
173, 0, 0, 0
174, 0, 0, 0
175, 0, 0, 0
176, 0, 0, 0
177, 0, 0, 0
178, 0, 0, 0
179, 0, 0, 0
