# TOPAS Version: 3.3.p1
# Parameter File: Simple_Pattern.txt
# Results for scorer MLIC_Scorer
# Scored in component: MLIC
# X in 180 bins of 0.222222 cm
# Y in 1 bin  of 10 cm
# Z in 1 bin  of 10 cm
# EnergyDeposit ( MeV ) : Sum   
0, 0, 0, 52.61330413818359
1, 0, 0, 54.12076950073242
2, 0, 0, 53.67009353637695
3, 0, 0, 54.41294479370117
4, 0, 0, 56.0058479309082
5, 0, 0, 55.17508697509766
6, 0, 0, 54.37034225463867
7, 0, 0, 55.49795532226562
8, 0, 0, 56.30720520019531
9, 0, 0, 57.9151725769043
10, 0, 0, 57.76319885253906
11, 0, 0, 56.13025283813477
12, 0, 0, 60.33064651489258
13, 0, 0, 56.8330078125
14, 0, 0, 55.67026138305664
15, 0, 0, 57.81879425048828
16, 0, 0, 59.58811569213867
17, 0, 0, 59.13623046875
18, 0, 0, 60.60675811767578
19, 0, 0, 60.13661956787109
20, 0, 0, 59.14186096191406
21, 0, 0, 60.58003997802734
22, 0, 0, 62.38311386108398
23, 0, 0, 60.98377227783203
24, 0, 0, 63.11101150512695
25, 0, 0, 64.13108825683594
26, 0, 0, 62.0872917175293
27, 0, 0, 64.809326171875
28, 0, 0, 64.32341003417969
29, 0, 0, 65.55069732666016
30, 0, 0, 63.19482040405273
31, 0, 0, 66.73524475097656
32, 0, 0, 66.42482757568359
33, 0, 0, 68.54961395263672
34, 0, 0, 66.92303466796875
35, 0, 0, 68.34143829345703
36, 0, 0, 69.56358337402344
37, 0, 0, 69.64641571044922
38, 0, 0, 69.76248931884766
39, 0, 0, 68.90078735351562
40, 0, 0, 71.80062103271484
41, 0, 0, 72.09720611572266
42, 0, 0, 72.66841888427734
43, 0, 0, 74.46727752685547
44, 0, 0, 75.00257873535156
45, 0, 0, 76.25124359130859
46, 0, 0, 75.45069885253906
47, 0, 0, 78.23741149902344
48, 0, 0, 79.61024475097656
49, 0, 0, 81.05442810058594
50, 0, 0, 81.88243865966797
51, 0, 0, 80.37499237060547
52, 0, 0, 83.845947265625
53, 0, 0, 83.48544311523438
54, 0, 0, 86.58652496337891
55, 0, 0, 88.13117980957031
56, 0, 0, 89.51490020751953
57, 0, 0, 89.92713928222656
58, 0, 0, 92.94183349609375
59, 0, 0, 95.50769805908203
60, 0, 0, 98.53032684326172
61, 0, 0, 99.58023834228516
62, 0, 0, 102.2920532226562
63, 0, 0, 103.7093353271484
64, 0, 0, 106.6464309692383
65, 0, 0, 109.777458190918
66, 0, 0, 111.2523193359375
67, 0, 0, 117.2920455932617
68, 0, 0, 122.1379852294922
69, 0, 0, 126.0084075927734
70, 0, 0, 132.8178253173828
71, 0, 0, 138.8065643310547
72, 0, 0, 146.5084381103516
73, 0, 0, 158.2680206298828
74, 0, 0, 168.8434295654297
75, 0, 0, 187.4064636230469
76, 0, 0, 215.9588928222656
77, 0, 0, 260.3464965820312
78, 0, 0, 263.4859313964844
79, 0, 0, 291.7818603515625
80, 0, 0, 229.0559234619141
81, 0, 0, 127.6100311279297
82, 0, 0, 47.16613006591797
83, 0, 0, 5.834794998168945
84, 0, 0, 0
85, 0, 0, 0
86, 0, 0, 0
87, 0, 0, 0
88, 0, 0, 0
89, 0, 0, 0
90, 0, 0, 0
91, 0, 0, 0
92, 0, 0, 0
93, 0, 0, 0
94, 0, 0, 0
95, 0, 0, 0
96, 0, 0, 0
97, 0, 0, 0
98, 0, 0, 0
99, 0, 0, 0
100, 0, 0, 0
101, 0, 0, 0
102, 0, 0, 0
103, 0, 0, 0
104, 0, 0, 0
105, 0, 0, 0
106, 0, 0, 0
107, 0, 0, 0
108, 0, 0, 0
109, 0, 0, 0
110, 0, 0, 0
111, 0, 0, 0
112, 0, 0, 0
113, 0, 0, 0
114, 0, 0, 0
115, 0, 0, 0
116, 0, 0, 0
117, 0, 0, 0
118, 0, 0, 0
119, 0, 0, 0
120, 0, 0, 0
121, 0, 0, 0
122, 0, 0, 0
123, 0, 0, 0
124, 0, 0, 0
125, 0, 0, 0
126, 0, 0, 0
127, 0, 0, 0
128, 0, 0, 0
129, 0, 0, 0
130, 0, 0, 0
131, 0, 0, 0
132, 0, 0, 0
133, 0, 0, 0
134, 0, 0, 0
135, 0, 0, 0
136, 0, 0, 0
137, 0, 0, 0
138, 0, 0, 0
139, 0, 0, 0
140, 0, 0, 0
141, 0, 0, 0
142, 0, 0, 0
143, 0, 0, 0
144, 0, 0, 0
145, 0, 0, 0
146, 0, 0, 0
147, 0, 0, 0
148, 0, 0, 0
149, 0, 0, 0
150, 0, 0, 0
151, 0, 0, 0
152, 0, 0, 0
153, 0, 0, 0
154, 0, 0, 0
155, 0, 0, 0
156, 0, 0, 0
157, 0, 0, 0
158, 0, 0, 0
159, 0, 0, 0
160, 0, 0, 0
161, 0, 0, 0
162, 0, 0, 0
163, 0, 0, 0
164, 0, 0, 0
165, 0, 0, 0
166, 0, 0, 0
167, 0, 0, 0
168, 0, 0, 0
169, 0, 0, 0
170, 0, 0, 0
171, 0, 0, 0
172, 0, 0, 0
173, 0, 0, 0
174, 0, 0, 0
175, 0, 0, 0
176, 0, 0, 0
177, 0, 0, 0
178, 0, 0, 0
179, 0, 0, 0
