# TOPAS Version: 3.3.p1
# Parameter File: Simple_Pattern.txt
# Results for scorer MLIC_Scorer
# Scored in component: MLIC
# X in 180 bins of 0.222222 cm
# Y in 1 bin  of 10 cm
# Z in 1 bin  of 10 cm
# EnergyDeposit ( MeV ) : Sum   
0, 0, 0, 87.90903472900391
1, 0, 0, 89.16813659667969
2, 0, 0, 88.97292327880859
3, 0, 0, 91.72431182861328
4, 0, 0, 91.32775115966797
5, 0, 0, 92.44723510742188
6, 0, 0, 93.98664093017578
7, 0, 0, 93.15037536621094
8, 0, 0, 94.97421264648438
9, 0, 0, 94.39212036132812
10, 0, 0, 95.55429840087891
11, 0, 0, 93.04607391357422
12, 0, 0, 96.47766876220703
13, 0, 0, 96.15669250488281
14, 0, 0, 95.56066131591797
15, 0, 0, 95.52083587646484
16, 0, 0, 96.02741241455078
17, 0, 0, 98.85665130615234
18, 0, 0, 98.58229827880859
19, 0, 0, 99.62255096435547
20, 0, 0, 98.42952728271484
21, 0, 0, 100.3677139282227
22, 0, 0, 101.9977111816406
23, 0, 0, 102.5146026611328
24, 0, 0, 102.3027267456055
25, 0, 0, 102.6488494873047
26, 0, 0, 104.6110687255859
27, 0, 0, 102.4374237060547
28, 0, 0, 103.0682754516602
29, 0, 0, 103.0138702392578
30, 0, 0, 107.4889221191406
31, 0, 0, 102.9543228149414
32, 0, 0, 105.81591796875
33, 0, 0, 106.7460708618164
34, 0, 0, 107.2264633178711
35, 0, 0, 108.8155670166016
36, 0, 0, 110.3447875976562
37, 0, 0, 112.5205459594727
38, 0, 0, 109.3540267944336
39, 0, 0, 111.3833618164062
40, 0, 0, 112.3876266479492
41, 0, 0, 114.7314224243164
42, 0, 0, 114.731559753418
43, 0, 0, 115.0377426147461
44, 0, 0, 116.2147598266602
45, 0, 0, 117.6390151977539
46, 0, 0, 119.5652084350586
47, 0, 0, 120.5031585693359
48, 0, 0, 119.7578964233398
49, 0, 0, 122.5226745605469
50, 0, 0, 119.7335662841797
51, 0, 0, 124.1846618652344
52, 0, 0, 127.1947021484375
53, 0, 0, 127.3620452880859
54, 0, 0, 129.1037750244141
55, 0, 0, 130.9889984130859
56, 0, 0, 133.5134582519531
57, 0, 0, 130.7411804199219
58, 0, 0, 132.1904144287109
59, 0, 0, 136.9080352783203
60, 0, 0, 137.0870361328125
61, 0, 0, 139.7261199951172
62, 0, 0, 141.1353149414062
63, 0, 0, 142.8529815673828
64, 0, 0, 147.3219146728516
65, 0, 0, 151.4996337890625
66, 0, 0, 152.0376892089844
67, 0, 0, 151.3953552246094
68, 0, 0, 155.3042297363281
69, 0, 0, 159.8484802246094
70, 0, 0, 161.2909088134766
71, 0, 0, 164.9129791259766
72, 0, 0, 169.9032287597656
73, 0, 0, 171.7755889892578
74, 0, 0, 176.4595336914062
75, 0, 0, 182.3289642333984
76, 0, 0, 182.8424224853516
77, 0, 0, 191.353759765625
78, 0, 0, 196.8663482666016
79, 0, 0, 201.2091369628906
80, 0, 0, 207.6549682617188
81, 0, 0, 216.1808319091797
82, 0, 0, 227.6197052001953
83, 0, 0, 237.5640106201172
84, 0, 0, 248.3050079345703
85, 0, 0, 263.3495178222656
86, 0, 0, 282.0103149414062
87, 0, 0, 307.7571411132812
88, 0, 0, 343.1382446289062
89, 0, 0, 385.2875061035156
90, 0, 0, 457.8148803710938
91, 0, 0, 520.3423461914062
92, 0, 0, 487.8258056640625
93, 0, 0, 378.4805297851562
94, 0, 0, 175.2646789550781
95, 0, 0, 49.92101669311523
96, 0, 0, 4.517504215240479
97, 0, 0, 0
98, 0, 0, 0
99, 0, 0, 0
100, 0, 0, 0
101, 0, 0, 0
102, 0, 0, 0
103, 0, 0, 0.002058869926258922
104, 0, 0, 0
105, 0, 0, 0
106, 0, 0, 0
107, 0, 0, 0
108, 0, 0, 0.03193024173378944
109, 0, 0, 0
110, 0, 0, 0.001117979176342487
111, 0, 0, 0
112, 0, 0, 0
113, 0, 0, 0
114, 0, 0, 0
115, 0, 0, 0
116, 0, 0, 0
117, 0, 0, 0
118, 0, 0, 0
119, 0, 0, 0
120, 0, 0, 0
121, 0, 0, 0
122, 0, 0, 0
123, 0, 0, 0
124, 0, 0, 0
125, 0, 0, 0
126, 0, 0, 0
127, 0, 0, 0
128, 0, 0, 0
129, 0, 0, 0
130, 0, 0, 0
131, 0, 0, 0
132, 0, 0, 0
133, 0, 0, 0
134, 0, 0, 0
135, 0, 0, 0
136, 0, 0, 0
137, 0, 0, 0
138, 0, 0, 0
139, 0, 0, 0
140, 0, 0, 0
141, 0, 0, 0
142, 0, 0, 0
143, 0, 0, 0
144, 0, 0, 0
145, 0, 0, 0
146, 0, 0, 0
147, 0, 0, 0
148, 0, 0, 0
149, 0, 0, 0
150, 0, 0, 0
151, 0, 0, 0
152, 0, 0, 0
153, 0, 0, 0
154, 0, 0, 0
155, 0, 0, 0
156, 0, 0, 0
157, 0, 0, 0
158, 0, 0, 0
159, 0, 0, 0
160, 0, 0, 0
161, 0, 0, 0
162, 0, 0, 0
163, 0, 0, 0
164, 0, 0, 0
165, 0, 0, 0
166, 0, 0, 0
167, 0, 0, 0
168, 0, 0, 0
169, 0, 0, 0
170, 0, 0, 0
171, 0, 0, 0
172, 0, 0, 0
173, 0, 0, 0
174, 0, 0, 0
175, 0, 0, 0
176, 0, 0, 0
177, 0, 0, 0
178, 0, 0, 0
179, 0, 0, 0
