# TOPAS Version: 3.3.p1
# Parameter File: Simple_Pattern.txt
# Results for scorer MLIC_Scorer
# Scored in component: MLIC
# X in 180 bins of 0.222222 cm
# Y in 1 bin  of 10 cm
# Z in 1 bin  of 10 cm
# EnergyDeposit ( MeV ) : Sum   
0, 0, 0, 1080.357788085938
1, 0, 0, 1084.676513671875
2, 0, 0, 1102.228881835938
3, 0, 0, 1103.095336914062
4, 0, 0, 1102.474243164062
5, 0, 0, 1102.844482421875
6, 0, 0, 1106.872192382812
7, 0, 0, 1115.017456054688
8, 0, 0, 1119.06103515625
9, 0, 0, 1123.322143554688
10, 0, 0, 1127.692138671875
11, 0, 0, 1144.518798828125
12, 0, 0, 1140.255859375
13, 0, 0, 1138.142822265625
14, 0, 0, 1150.126953125
15, 0, 0, 1151.436279296875
16, 0, 0, 1152.274658203125
17, 0, 0, 1168.719360351562
18, 0, 0, 1174.846801757812
19, 0, 0, 1172.904663085938
20, 0, 0, 1170.537719726562
21, 0, 0, 1189.220581054688
22, 0, 0, 1190.86962890625
23, 0, 0, 1189.25927734375
24, 0, 0, 1200.159057617188
25, 0, 0, 1208.247924804688
26, 0, 0, 1201.898193359375
27, 0, 0, 1205.991088867188
28, 0, 0, 1209.7255859375
29, 0, 0, 1211.51025390625
30, 0, 0, 1214.890991210938
31, 0, 0, 1217.690063476562
32, 0, 0, 1216.720947265625
33, 0, 0, 1235.738403320312
34, 0, 0, 1230.078125
35, 0, 0, 1239.620239257812
36, 0, 0, 1229.596069335938
37, 0, 0, 1244.960693359375
38, 0, 0, 1247.953125
39, 0, 0, 1240.891845703125
40, 0, 0, 1249.32861328125
41, 0, 0, 1252.4833984375
42, 0, 0, 1259.217407226562
43, 0, 0, 1258.26220703125
44, 0, 0, 1272.802612304688
45, 0, 0, 1279.981323242188
46, 0, 0, 1283.922607421875
47, 0, 0, 1291.761596679688
48, 0, 0, 1309.844360351562
49, 0, 0, 1311.89892578125
50, 0, 0, 1327.94287109375
51, 0, 0, 1325.271118164062
52, 0, 0, 1344.929443359375
53, 0, 0, 1352.873901367188
54, 0, 0, 1365.027709960938
55, 0, 0, 1364.01318359375
56, 0, 0, 1374.857055664062
57, 0, 0, 1394.030883789062
58, 0, 0, 1396.9951171875
59, 0, 0, 1402.514770507812
60, 0, 0, 1416.050537109375
61, 0, 0, 1426.725830078125
62, 0, 0, 1446.738525390625
63, 0, 0, 1458.619995117188
64, 0, 0, 1471.30322265625
65, 0, 0, 1492.51513671875
66, 0, 0, 1498.259765625
67, 0, 0, 1513.426635742188
68, 0, 0, 1533.8056640625
69, 0, 0, 1544.929931640625
70, 0, 0, 1569.9111328125
71, 0, 0, 1592.887084960938
72, 0, 0, 1611.7080078125
73, 0, 0, 1641.763549804688
74, 0, 0, 1674.633544921875
75, 0, 0, 1707.588989257812
76, 0, 0, 1735.838989257812
77, 0, 0, 1774.632080078125
78, 0, 0, 1816.01220703125
79, 0, 0, 1872.145385742188
80, 0, 0, 1929.82861328125
81, 0, 0, 1998.864501953125
82, 0, 0, 2074.916259765625
83, 0, 0, 2152.330322265625
84, 0, 0, 2251.552490234375
85, 0, 0, 2375.671142578125
86, 0, 0, 2537.02734375
87, 0, 0, 2738.67041015625
88, 0, 0, 3033.836669921875
89, 0, 0, 3482.687744140625
90, 0, 0, 3976.90478515625
91, 0, 0, 4356.26318359375
92, 0, 0, 4578.318359375
93, 0, 0, 3576.6630859375
94, 0, 0, 1663.104370117188
95, 0, 0, 495.371826171875
96, 0, 0, 148.4900054931641
97, 0, 0, 23.75646209716797
98, 0, 0, 0
99, 0, 0, 0.06147003173828125
100, 0, 0, 0
101, 0, 0, 0.003568415064364672
102, 0, 0, 0.08000313490629196
103, 0, 0, 0.0435195155441761
104, 0, 0, 0.03688697144389153
105, 0, 0, 0
106, 0, 0, 0
107, 0, 0, 0
108, 0, 0, 0
109, 0, 0, 0
110, 0, 0, 0.02192629314959049
111, 0, 0, 0
112, 0, 0, 0.1244186535477638
113, 0, 0, 0
114, 0, 0, 0
115, 0, 0, 0.06056226044893265
116, 0, 0, 0
117, 0, 0, 0
118, 0, 0, 0.05242505297064781
119, 0, 0, 0
120, 0, 0, 0
121, 0, 0, 0.1950063854455948
122, 0, 0, 0
123, 0, 0, 0
124, 0, 0, 0
125, 0, 0, 0
126, 0, 0, 0.02146363444626331
127, 0, 0, 0.1366644948720932
128, 0, 0, 0
129, 0, 0, 0.0535011850297451
130, 0, 0, 0
131, 0, 0, 0
132, 0, 0, 0
133, 0, 0, 0.1533771753311157
134, 0, 0, 0
135, 0, 0, 0
136, 0, 0, 0.02087022364139557
137, 0, 0, 0
138, 0, 0, 0
139, 0, 0, 0
140, 0, 0, 0
141, 0, 0, 0
142, 0, 0, 0.127423495054245
143, 0, 0, 0
144, 0, 0, 0
145, 0, 0, 0
146, 0, 0, 0.07438630610704422
147, 0, 0, 0.07578003406524658
148, 0, 0, 0
149, 0, 0, 0.07233193516731262
150, 0, 0, 0
151, 0, 0, 0
152, 0, 0, 0
153, 0, 0, 0
154, 0, 0, 0
155, 0, 0, 0
156, 0, 0, 0
157, 0, 0, 0
158, 0, 0, 0
159, 0, 0, 0.01558087952435017
160, 0, 0, 0.0751151517033577
161, 0, 0, 0
162, 0, 0, 0
163, 0, 0, 0
164, 0, 0, 0
165, 0, 0, 0
166, 0, 0, 0
167, 0, 0, 0
168, 0, 0, 0
169, 0, 0, 0
170, 0, 0, 0
171, 0, 0, 0
172, 0, 0, 0
173, 0, 0, 0
174, 0, 0, 0
175, 0, 0, 0
176, 0, 0, 0.03861551731824875
177, 0, 0, 0
178, 0, 0, 0.01211479678750038
179, 0, 0, 0
