# TOPAS Version: 3.3.p1
# Parameter File: Simple_Pattern.txt
# Results for scorer MLIC_Scorer
# Scored in component: MLIC
# X in 180 bins of 0.222222 cm
# Y in 1 bin  of 10 cm
# Z in 1 bin  of 10 cm
# EnergyDeposit ( MeV ) : Sum   
0, 0, 0, 340.1627502441406
1, 0, 0, 343.1119689941406
2, 0, 0, 347.6184692382812
3, 0, 0, 347.4447937011719
4, 0, 0, 349.8997497558594
5, 0, 0, 356.2499694824219
6, 0, 0, 352.2274780273438
7, 0, 0, 353.4691467285156
8, 0, 0, 354.2762451171875
9, 0, 0, 356.0243225097656
10, 0, 0, 359.6961975097656
11, 0, 0, 356.299560546875
12, 0, 0, 361.6202087402344
13, 0, 0, 361.7768249511719
14, 0, 0, 365.0376892089844
15, 0, 0, 371.4157409667969
16, 0, 0, 365.5137939453125
17, 0, 0, 373.2142333984375
18, 0, 0, 373.9353332519531
19, 0, 0, 380.5995178222656
20, 0, 0, 375.733154296875
21, 0, 0, 379.8058471679688
22, 0, 0, 382.8358764648438
23, 0, 0, 389.1343383789062
24, 0, 0, 385.9884948730469
25, 0, 0, 386.7105102539062
26, 0, 0, 397.5467834472656
27, 0, 0, 392.8848571777344
28, 0, 0, 396.8410034179688
29, 0, 0, 392.1998901367188
30, 0, 0, 406.3254699707031
31, 0, 0, 398.3063049316406
32, 0, 0, 406.0938720703125
33, 0, 0, 406.6195983886719
34, 0, 0, 413.0633850097656
35, 0, 0, 417.1799926757812
36, 0, 0, 414.2670593261719
37, 0, 0, 424.9757995605469
38, 0, 0, 420.4408264160156
39, 0, 0, 425.2171936035156
40, 0, 0, 432.7366027832031
41, 0, 0, 431.7868347167969
42, 0, 0, 436.8854064941406
43, 0, 0, 439.5080871582031
44, 0, 0, 444.79345703125
45, 0, 0, 451.1043701171875
46, 0, 0, 450.8652648925781
47, 0, 0, 456.7579040527344
48, 0, 0, 455.9766540527344
49, 0, 0, 466.0018310546875
50, 0, 0, 468.6286010742188
51, 0, 0, 473.5311889648438
52, 0, 0, 480.6571655273438
53, 0, 0, 485.59521484375
54, 0, 0, 489.7144775390625
55, 0, 0, 495.741943359375
56, 0, 0, 502.976806640625
57, 0, 0, 505.039794921875
58, 0, 0, 513.1431884765625
59, 0, 0, 518.736328125
60, 0, 0, 525.6671752929688
61, 0, 0, 533.0195922851562
62, 0, 0, 536.319091796875
63, 0, 0, 544.0248413085938
64, 0, 0, 559.0178833007812
65, 0, 0, 565.0562133789062
66, 0, 0, 575.4771118164062
67, 0, 0, 582.8839111328125
68, 0, 0, 593.515869140625
69, 0, 0, 603.578369140625
70, 0, 0, 611.9501342773438
71, 0, 0, 626.9232788085938
72, 0, 0, 644.0230712890625
73, 0, 0, 657.3649291992188
74, 0, 0, 666.7807006835938
75, 0, 0, 686.8457641601562
76, 0, 0, 703.4512939453125
77, 0, 0, 725.0068359375
78, 0, 0, 747.4924926757812
79, 0, 0, 765.8030395507812
80, 0, 0, 795.1332397460938
81, 0, 0, 827.6648559570312
82, 0, 0, 860.8477783203125
83, 0, 0, 904.3515014648438
84, 0, 0, 951.36962890625
85, 0, 0, 1007.5078125
86, 0, 0, 1080.357666015625
87, 0, 0, 1175.983154296875
88, 0, 0, 1312.994995117188
89, 0, 0, 1515.72021484375
90, 0, 0, 1785.079833984375
91, 0, 0, 1952.121948242188
92, 0, 0, 1728.797485351562
93, 0, 0, 1419.593383789062
94, 0, 0, 691.7576293945312
95, 0, 0, 154.6902313232422
96, 0, 0, 27.6605167388916
97, 0, 0, 6.300161838531494
98, 0, 0, 0
99, 0, 0, 0
100, 0, 0, 0
101, 0, 0, 0
102, 0, 0, 0
103, 0, 0, 0.002058869926258922
104, 0, 0, 0
105, 0, 0, 0
106, 0, 0, 0
107, 0, 0, 0
108, 0, 0, 0.03193024173378944
109, 0, 0, 0
110, 0, 0, 0.001117979176342487
111, 0, 0, 0
112, 0, 0, 0
113, 0, 0, 0
114, 0, 0, 0
115, 0, 0, 0
116, 0, 0, 0
117, 0, 0, 0
118, 0, 0, 0
119, 0, 0, 0
120, 0, 0, 0
121, 0, 0, 0
122, 0, 0, 0
123, 0, 0, 0
124, 0, 0, 0
125, 0, 0, 0
126, 0, 0, 0
127, 0, 0, 0
128, 0, 0, 0
129, 0, 0, 0
130, 0, 0, 0
131, 0, 0, 0
132, 0, 0, 0
133, 0, 0, 0
134, 0, 0, 0
135, 0, 0, 0
136, 0, 0, 0
137, 0, 0, 0
138, 0, 0, 0
139, 0, 0, 0
140, 0, 0, 0
141, 0, 0, 0
142, 0, 0, 0
143, 0, 0, 0
144, 0, 0, 0
145, 0, 0, 0
146, 0, 0, 0
147, 0, 0, 0
148, 0, 0, 0
149, 0, 0, 0
150, 0, 0, 0
151, 0, 0, 0
152, 0, 0, 0
153, 0, 0, 0
154, 0, 0, 0
155, 0, 0, 0
156, 0, 0, 0
157, 0, 0, 0
158, 0, 0, 0
159, 0, 0, 0
160, 0, 0, 0
161, 0, 0, 0
162, 0, 0, 0
163, 0, 0, 0
164, 0, 0, 0
165, 0, 0, 0
166, 0, 0, 0
167, 0, 0, 0
168, 0, 0, 0
169, 0, 0, 0
170, 0, 0, 0
171, 0, 0, 0
172, 0, 0, 0
173, 0, 0, 0
174, 0, 0, 0
175, 0, 0, 0
176, 0, 0, 0
177, 0, 0, 0
178, 0, 0, 0
179, 0, 0, 0
