# TOPAS Version: 3.3.p1
# Parameter File: Simple_Pattern.txt
# Results for scorer MLIC_Scorer
# Scored in component: MLIC
# X in 180 bins of 0.222222 cm
# Y in 1 bin  of 10 cm
# Z in 1 bin  of 10 cm
# EnergyDeposit ( MeV ) : Sum   
0, 0, 0, 1148.442260742188
1, 0, 0, 1157.72998046875
2, 0, 0, 1170.032592773438
3, 0, 0, 1170.34716796875
4, 0, 0, 1174.240966796875
5, 0, 0, 1185.074340820312
6, 0, 0, 1190.448608398438
7, 0, 0, 1194.974365234375
8, 0, 0, 1200.392822265625
9, 0, 0, 1211.7578125
10, 0, 0, 1208.237548828125
11, 0, 0, 1211.83251953125
12, 0, 0, 1224.050048828125
13, 0, 0, 1237.632690429688
14, 0, 0, 1236.109130859375
15, 0, 0, 1251.302124023438
16, 0, 0, 1254.84619140625
17, 0, 0, 1270.000122070312
18, 0, 0, 1280.46923828125
19, 0, 0, 1281.451538085938
20, 0, 0, 1286.157958984375
21, 0, 0, 1297.591552734375
22, 0, 0, 1300.144775390625
23, 0, 0, 1317.480224609375
24, 0, 0, 1319.429565429688
25, 0, 0, 1339.831176757812
26, 0, 0, 1349.843872070312
27, 0, 0, 1356.8818359375
28, 0, 0, 1364.981323242188
29, 0, 0, 1381.172241210938
30, 0, 0, 1380.381591796875
31, 0, 0, 1403.745483398438
32, 0, 0, 1416.888793945312
33, 0, 0, 1431.149780273438
34, 0, 0, 1435.13916015625
35, 0, 0, 1452.623046875
36, 0, 0, 1466.4609375
37, 0, 0, 1477.691772460938
38, 0, 0, 1487.125732421875
39, 0, 0, 1503.59521484375
40, 0, 0, 1528.89306640625
41, 0, 0, 1545.307861328125
42, 0, 0, 1562.077758789062
43, 0, 0, 1573.953125
44, 0, 0, 1593.87109375
45, 0, 0, 1612.513549804688
46, 0, 0, 1629.60595703125
47, 0, 0, 1657.6962890625
48, 0, 0, 1667.13818359375
49, 0, 0, 1699.64892578125
50, 0, 0, 1717.365478515625
51, 0, 0, 1740.285522460938
52, 0, 0, 1769.697998046875
53, 0, 0, 1806.21875
54, 0, 0, 1833.281372070312
55, 0, 0, 1863.427001953125
56, 0, 0, 1889.761840820312
57, 0, 0, 1937.260986328125
58, 0, 0, 1971.5107421875
59, 0, 0, 2011.498779296875
60, 0, 0, 2049.602783203125
61, 0, 0, 2100.652587890625
62, 0, 0, 2145.14794921875
63, 0, 0, 2202.7197265625
64, 0, 0, 2260.662109375
65, 0, 0, 2335.01953125
66, 0, 0, 2402.198974609375
67, 0, 0, 2485.825439453125
68, 0, 0, 2579.361083984375
69, 0, 0, 2673.901611328125
70, 0, 0, 2796.328369140625
71, 0, 0, 2948.726318359375
72, 0, 0, 3116.10791015625
73, 0, 0, 3326.572021484375
74, 0, 0, 3604.275390625
75, 0, 0, 3983.447021484375
76, 0, 0, 4529.015625
77, 0, 0, 5371.60791015625
78, 0, 0, 6163.7353515625
79, 0, 0, 6147.4345703125
80, 0, 0, 4611.21826171875
81, 0, 0, 2390.289306640625
82, 0, 0, 870.2422485351562
83, 0, 0, 279.6403503417969
84, 0, 0, 93.84309387207031
85, 0, 0, 99.68240356445312
86, 0, 0, 85.544921875
87, 0, 0, 92.43461608886719
88, 0, 0, 71.22210693359375
89, 0, 0, 82.67763519287109
90, 0, 0, 67.6510009765625
91, 0, 0, 48.31878662109375
92, 0, 0, 55.40850067138672
93, 0, 0, 63.37431716918945
94, 0, 0, 16.60798645019531
95, 0, 0, 0
96, 0, 0, 0.03428711742162704
97, 0, 0, 0
98, 0, 0, 0
99, 0, 0, 0
100, 0, 0, 0
101, 0, 0, 0
102, 0, 0, 0
103, 0, 0, 0
104, 0, 0, 0
105, 0, 0, 0.007258725352585316
106, 0, 0, 0
107, 0, 0, 0
108, 0, 0, 0
109, 0, 0, 0
110, 0, 0, 0
111, 0, 0, 0
112, 0, 0, 0
113, 0, 0, 0
114, 0, 0, 0
115, 0, 0, 0
116, 0, 0, 0
117, 0, 0, 0
118, 0, 0, 0
119, 0, 0, 0
120, 0, 0, 0
121, 0, 0, 0
122, 0, 0, 0
123, 0, 0, 0
124, 0, 0, 0
125, 0, 0, 0
126, 0, 0, 0
127, 0, 0, 0
128, 0, 0, 0
129, 0, 0, 0
130, 0, 0, 0
131, 0, 0, 0
132, 0, 0, 0
133, 0, 0, 0
134, 0, 0, 0
135, 0, 0, 0
136, 0, 0, 0
137, 0, 0, 0
138, 0, 0, 0
139, 0, 0, 0
140, 0, 0, 0
141, 0, 0, 0
142, 0, 0, 0
143, 0, 0, 0
144, 0, 0, 0
145, 0, 0, 0
146, 0, 0, 0
147, 0, 0, 0
148, 0, 0, 0
149, 0, 0, 0
150, 0, 0, 0
151, 0, 0, 0
152, 0, 0, 0
153, 0, 0, 0
154, 0, 0, 0
155, 0, 0, 0
156, 0, 0, 0
157, 0, 0, 0
158, 0, 0, 0
159, 0, 0, 0
160, 0, 0, 0
161, 0, 0, 0
162, 0, 0, 0
163, 0, 0, 0
164, 0, 0, 0
165, 0, 0, 0
166, 0, 0, 0
167, 0, 0, 0
168, 0, 0, 0
169, 0, 0, 0
170, 0, 0, 0
171, 0, 0, 0
172, 0, 0, 0
173, 0, 0, 0
174, 0, 0, 0
175, 0, 0, 0
176, 0, 0, 0
177, 0, 0, 0
178, 0, 0, 0
179, 0, 0, 0
