# TOPAS Version: 3.3.p1
# Parameter File: Simple_Pattern.txt
# Results for scorer MLIC_Scorer
# Scored in component: MLIC
# X in 180 bins of 0.222222 cm
# Y in 1 bin  of 10 cm
# Z in 1 bin  of 10 cm
# EnergyDeposit ( MeV ) : Sum   
0, 0, 0, 1080.649047851562
1, 0, 0, 1087.735595703125
2, 0, 0, 1083.70654296875
3, 0, 0, 1095.750732421875
4, 0, 0, 1114.005004882812
5, 0, 0, 1102.867553710938
6, 0, 0, 1110.518798828125
7, 0, 0, 1111.728637695312
8, 0, 0, 1124.018432617188
9, 0, 0, 1124.425659179688
10, 0, 0, 1130.419921875
11, 0, 0, 1141.04638671875
12, 0, 0, 1140.215087890625
13, 0, 0, 1146.369384765625
14, 0, 0, 1152.892700195312
15, 0, 0, 1152.501586914062
16, 0, 0, 1155.230590820312
17, 0, 0, 1160.53515625
18, 0, 0, 1169.390625
19, 0, 0, 1169.965576171875
20, 0, 0, 1171.95458984375
21, 0, 0, 1182.564331054688
22, 0, 0, 1191.804443359375
23, 0, 0, 1188.799194335938
24, 0, 0, 1187.7705078125
25, 0, 0, 1198.59619140625
26, 0, 0, 1202.287231445312
27, 0, 0, 1207.029663085938
28, 0, 0, 1214.194213867188
29, 0, 0, 1214.378540039062
30, 0, 0, 1220.258666992188
31, 0, 0, 1220.099731445312
32, 0, 0, 1226.953735351562
33, 0, 0, 1234.333251953125
34, 0, 0, 1241.29931640625
35, 0, 0, 1249.220703125
36, 0, 0, 1251.966064453125
37, 0, 0, 1254.123291015625
38, 0, 0, 1254.062744140625
39, 0, 0, 1265.304809570312
40, 0, 0, 1266.95751953125
41, 0, 0, 1266.05712890625
42, 0, 0, 1278.769165039062
43, 0, 0, 1285.753051757812
44, 0, 0, 1287.509521484375
45, 0, 0, 1301.420043945312
46, 0, 0, 1307.23095703125
47, 0, 0, 1309.153198242188
48, 0, 0, 1315.989013671875
49, 0, 0, 1329.946655273438
50, 0, 0, 1327.593872070312
51, 0, 0, 1339.280883789062
52, 0, 0, 1343.335327148438
53, 0, 0, 1351.3740234375
54, 0, 0, 1369.8466796875
55, 0, 0, 1377.295654296875
56, 0, 0, 1388.184936523438
57, 0, 0, 1389.727416992188
58, 0, 0, 1413.078735351562
59, 0, 0, 1416.723754882812
60, 0, 0, 1438.858520507812
61, 0, 0, 1448.560180664062
62, 0, 0, 1461.9794921875
63, 0, 0, 1459.934326171875
64, 0, 0, 1491.542846679688
65, 0, 0, 1502.123657226562
66, 0, 0, 1523.521118164062
67, 0, 0, 1537.138305664062
68, 0, 0, 1557.240112304688
69, 0, 0, 1581.539306640625
70, 0, 0, 1604.461181640625
71, 0, 0, 1636.669799804688
72, 0, 0, 1661.552490234375
73, 0, 0, 1692.829345703125
74, 0, 0, 1716.760986328125
75, 0, 0, 1758.144165039062
76, 0, 0, 1780.049682617188
77, 0, 0, 1814.732666015625
78, 0, 0, 1862.9111328125
79, 0, 0, 1919.845458984375
80, 0, 0, 1961.093139648438
81, 0, 0, 2023.718627929688
82, 0, 0, 2088.53759765625
83, 0, 0, 2186.169677734375
84, 0, 0, 2283.549072265625
85, 0, 0, 2407.55419921875
86, 0, 0, 2566.95068359375
87, 0, 0, 2777.035400390625
88, 0, 0, 3028.89013671875
89, 0, 0, 3482.475830078125
90, 0, 0, 4089.814453125
91, 0, 0, 4567.83837890625
92, 0, 0, 4601.1044921875
93, 0, 0, 3416.876220703125
94, 0, 0, 1763.483520507812
95, 0, 0, 506.027587890625
96, 0, 0, 88.35101318359375
97, 0, 0, 4.147214889526367
98, 0, 0, 0.08393334597349167
99, 0, 0, 0
100, 0, 0, 0.01896683499217033
101, 0, 0, 0.08160073310136795
102, 0, 0, 0.001635779743082821
103, 0, 0, 0.04321653768420219
104, 0, 0, 0
105, 0, 0, 0.02052904665470123
106, 0, 0, 0.05044711008667946
107, 0, 0, 0.0194418802857399
108, 0, 0, 0.02258785255253315
109, 0, 0, 0.1930698752403259
110, 0, 0, 0
111, 0, 0, 0
112, 0, 0, 0.04504614695906639
113, 0, 0, 0
114, 0, 0, 0
115, 0, 0, 0
116, 0, 0, 0
117, 0, 0, 0
118, 0, 0, 0
119, 0, 0, 0.1006623208522797
120, 0, 0, 0
121, 0, 0, 0.04626118764281273
122, 0, 0, 0.03423373028635979
123, 0, 0, 0.1816473752260208
124, 0, 0, 0
125, 0, 0, 0
126, 0, 0, 0.03121203742921352
127, 0, 0, 0.02119112201035023
128, 0, 0, 0.06632000207901001
129, 0, 0, 0
130, 0, 0, 0
131, 0, 0, 0
132, 0, 0, 0.02975229546427727
133, 0, 0, 0.0104689747095108
134, 0, 0, 0
135, 0, 0, 0
136, 0, 0, 0.01789725571870804
137, 0, 0, 0.04065076261758804
138, 0, 0, 0.0188094936311245
139, 0, 0, 0
140, 0, 0, 0
141, 0, 0, 0.2075879573822021
142, 0, 0, 0
143, 0, 0, 0.0153096541762352
144, 0, 0, 0.01004966720938683
145, 0, 0, 0
146, 0, 0, 0.1403277069330215
147, 0, 0, 0
148, 0, 0, 0
149, 0, 0, 0
150, 0, 0, 0
151, 0, 0, 0
152, 0, 0, 0
153, 0, 0, 0
154, 0, 0, 0
155, 0, 0, 0.07691006362438202
156, 0, 0, 0.01803970895707607
157, 0, 0, 0
158, 0, 0, 0.01780378073453903
159, 0, 0, 0
160, 0, 0, 0.01715447194874287
161, 0, 0, 0.02810778841376305
162, 0, 0, 0
163, 0, 0, 0
164, 0, 0, 0.0288544837385416
165, 0, 0, 0
166, 0, 0, 0.005113887134939432
167, 0, 0, 0
168, 0, 0, 0
169, 0, 0, 0
170, 0, 0, 0
171, 0, 0, 0.006939494051039219
172, 0, 0, 0
173, 0, 0, 0
174, 0, 0, 0
175, 0, 0, 0
176, 0, 0, 0
177, 0, 0, 0.04021000117063522
178, 0, 0, 0
179, 0, 0, 0
