# TOPAS Version: 3.3.p1
# Parameter File: Simple_Pattern.txt
# Results for scorer MLIC_Scorer
# Scored in component: MLIC
# X in 165 bins of 0.2 cm
# Y in 1 bin  of 10 cm
# Z in 1 bin  of 10 cm
# EnergyDeposit ( MeV ) : Sum   
0, 0, 0, 940.0640869140625
1, 0, 0, 942.3160400390625
2, 0, 0, 946.038330078125
3, 0, 0, 942.263916015625
4, 0, 0, 939.7359619140625
5, 0, 0, 949.0089721679688
6, 0, 0, 961.2969970703125
7, 0, 0, 959.7254638671875
8, 0, 0, 968.4739990234375
9, 0, 0, 966.046630859375
10, 0, 0, 969.7942504882812
11, 0, 0, 975.790283203125
12, 0, 0, 979.88427734375
13, 0, 0, 981.0279541015625
14, 0, 0, 982.8873291015625
15, 0, 0, 984.686767578125
16, 0, 0, 995.0864868164062
17, 0, 0, 995.0094604492188
18, 0, 0, 1001.31396484375
19, 0, 0, 1004.470397949219
20, 0, 0, 1003.5576171875
21, 0, 0, 1012.364685058594
22, 0, 0, 1015.452453613281
23, 0, 0, 1023.591735839844
24, 0, 0, 1025.129516601562
25, 0, 0, 1028.065551757812
26, 0, 0, 1032.511840820312
27, 0, 0, 1037.970581054688
28, 0, 0, 1042.7626953125
29, 0, 0, 1048.990234375
30, 0, 0, 1049.388427734375
31, 0, 0, 1053.17431640625
32, 0, 0, 1055.261596679688
33, 0, 0, 1066.1865234375
34, 0, 0, 1068.247192382812
35, 0, 0, 1078.871826171875
36, 0, 0, 1081.302612304688
37, 0, 0, 1078.209228515625
38, 0, 0, 1095.400024414062
39, 0, 0, 1100.664794921875
40, 0, 0, 1107.64453125
41, 0, 0, 1113.375732421875
42, 0, 0, 1117.264404296875
43, 0, 0, 1129.379516601562
44, 0, 0, 1118.392456054688
45, 0, 0, 1138.249633789062
46, 0, 0, 1135.7255859375
47, 0, 0, 1151.967651367188
48, 0, 0, 1155.930908203125
49, 0, 0, 1164.897094726562
50, 0, 0, 1174.737060546875
51, 0, 0, 1179.213134765625
52, 0, 0, 1185.632934570312
53, 0, 0, 1192.736328125
54, 0, 0, 1198.389770507812
55, 0, 0, 1210.348388671875
56, 0, 0, 1217.015869140625
57, 0, 0, 1220.527221679688
58, 0, 0, 1241.004028320312
59, 0, 0, 1242.805419921875
60, 0, 0, 1252.255493164062
61, 0, 0, 1249.923217773438
62, 0, 0, 1275.404541015625
63, 0, 0, 1275.485595703125
64, 0, 0, 1289.626342773438
65, 0, 0, 1303.1689453125
66, 0, 0, 1316.142333984375
67, 0, 0, 1319.28662109375
68, 0, 0, 1342.573120117188
69, 0, 0, 1350.861328125
70, 0, 0, 1366.022583007812
71, 0, 0, 1367.609130859375
72, 0, 0, 1381.15283203125
73, 0, 0, 1391.346557617188
74, 0, 0, 1418.586669921875
75, 0, 0, 1419.49658203125
76, 0, 0, 1446.398681640625
77, 0, 0, 1458.729370117188
78, 0, 0, 1466.413452148438
79, 0, 0, 1496.673095703125
80, 0, 0, 1503.549926757812
81, 0, 0, 1523.140991210938
82, 0, 0, 1540.007690429688
83, 0, 0, 1554.617431640625
84, 0, 0, 1570.707153320312
85, 0, 0, 1606.977783203125
86, 0, 0, 1617.526123046875
87, 0, 0, 1636.769653320312
88, 0, 0, 1666.398559570312
89, 0, 0, 1684.611938476562
90, 0, 0, 1722.011962890625
91, 0, 0, 1749.99462890625
92, 0, 0, 1772.65380859375
93, 0, 0, 1820.808349609375
94, 0, 0, 1846.973510742188
95, 0, 0, 1886.063598632812
96, 0, 0, 1930.41650390625
97, 0, 0, 1969.721313476562
98, 0, 0, 2008.207641601562
99, 0, 0, 2062.62744140625
100, 0, 0, 2120.915771484375
101, 0, 0, 2172.913818359375
102, 0, 0, 2244.377197265625
103, 0, 0, 2315.9833984375
104, 0, 0, 2415.3896484375
105, 0, 0, 2507.807373046875
106, 0, 0, 2640.99755859375
107, 0, 0, 2782.01171875
108, 0, 0, 2964.12158203125
109, 0, 0, 3221.96142578125
110, 0, 0, 3539.033447265625
111, 0, 0, 3988.05517578125
112, 0, 0, 4577.8232421875
113, 0, 0, 5135.5966796875
114, 0, 0, 5090.28564453125
115, 0, 0, 4364.92822265625
116, 0, 0, 2810.51513671875
117, 0, 0, 1464.063842773438
118, 0, 0, 542.4343872070312
119, 0, 0, 112.5889892578125
120, 0, 0, 3.251008749008179
121, 0, 0, 0
122, 0, 0, 0
123, 0, 0, 0.02710427343845367
124, 0, 0, 0
125, 0, 0, 0
126, 0, 0, 0
127, 0, 0, 0
128, 0, 0, 0
129, 0, 0, 0
130, 0, 0, 0.1439990103244781
131, 0, 0, 0
132, 0, 0, 0
133, 0, 0, 0
134, 0, 0, 0
135, 0, 0, 0
136, 0, 0, 0
137, 0, 0, 0.04073673486709595
138, 0, 0, 0
139, 0, 0, 0
140, 0, 0, 0
141, 0, 0, 0
142, 0, 0, 0
143, 0, 0, 0
144, 0, 0, 0
145, 0, 0, 0
146, 0, 0, 0
147, 0, 0, 0.04288323223590851
148, 0, 0, 0
149, 0, 0, 0
150, 0, 0, 0
151, 0, 0, 0
152, 0, 0, 0
153, 0, 0, 0
154, 0, 0, 0
155, 0, 0, 0
156, 0, 0, 0
157, 0, 0, 0
158, 0, 0, 0
159, 0, 0, 0
160, 0, 0, 0
161, 0, 0, 0
162, 0, 0, 0
163, 0, 0, 0
164, 0, 0, 0.003423893824219704
