# TOPAS Version: 3.3.p1
# Parameter File: Simple_Pattern.txt
# Results for scorer MLIC_Scorer
# Scored in component: MLIC
# X in 180 bins of 0.222222 cm
# Y in 1 bin  of 10 cm
# Z in 1 bin  of 10 cm
# EnergyDeposit ( MeV ) : Sum   
0, 0, 0, 41.61846160888672
1, 0, 0, 43.12668609619141
2, 0, 0, 42.67744445800781
3, 0, 0, 41.96146011352539
4, 0, 0, 44.0738639831543
5, 0, 0, 42.17662048339844
6, 0, 0, 43.45754241943359
7, 0, 0, 43.23160552978516
8, 0, 0, 45.36118698120117
9, 0, 0, 44.2401008605957
10, 0, 0, 43.13970565795898
11, 0, 0, 44.61801528930664
12, 0, 0, 45.39599609375
13, 0, 0, 45.31980514526367
14, 0, 0, 44.99878692626953
15, 0, 0, 45.10347747802734
16, 0, 0, 44.62123489379883
17, 0, 0, 44.60170364379883
18, 0, 0, 46.50283050537109
19, 0, 0, 45.51073455810547
20, 0, 0, 46.8564453125
21, 0, 0, 46.38994216918945
22, 0, 0, 46.79584121704102
23, 0, 0, 46.20566558837891
24, 0, 0, 49.55862045288086
25, 0, 0, 48.73033905029297
26, 0, 0, 49.39300155639648
27, 0, 0, 49.34683227539062
28, 0, 0, 48.12893676757812
29, 0, 0, 50.67000198364258
30, 0, 0, 51.06131744384766
31, 0, 0, 48.08892059326172
32, 0, 0, 50.61652755737305
33, 0, 0, 50.33812713623047
34, 0, 0, 51.89111328125
35, 0, 0, 49.97718048095703
36, 0, 0, 50.69391250610352
37, 0, 0, 50.53258514404297
38, 0, 0, 50.32378005981445
39, 0, 0, 50.39007568359375
40, 0, 0, 51.63014984130859
41, 0, 0, 52.84180450439453
42, 0, 0, 53.20601654052734
43, 0, 0, 52.07925033569336
44, 0, 0, 54.39758682250977
45, 0, 0, 53.43943023681641
46, 0, 0, 53.60832214355469
47, 0, 0, 55.82583618164062
48, 0, 0, 55.6522331237793
49, 0, 0, 55.44015121459961
50, 0, 0, 57.25897598266602
51, 0, 0, 57.93167114257812
52, 0, 0, 56.76800155639648
53, 0, 0, 58.89888763427734
54, 0, 0, 58.97984313964844
55, 0, 0, 61.09560394287109
56, 0, 0, 60.88289642333984
57, 0, 0, 60.09151458740234
58, 0, 0, 61.44400787353516
59, 0, 0, 62.82857513427734
60, 0, 0, 63.63834762573242
61, 0, 0, 62.82805252075195
62, 0, 0, 64.55234527587891
63, 0, 0, 64.56816101074219
64, 0, 0, 65.69995880126953
65, 0, 0, 64.28218078613281
66, 0, 0, 68.08306884765625
67, 0, 0, 68.44613647460938
68, 0, 0, 70.04110717773438
69, 0, 0, 70.05471801757812
70, 0, 0, 71.38004302978516
71, 0, 0, 71.02867126464844
72, 0, 0, 75.13105010986328
73, 0, 0, 76.37220001220703
74, 0, 0, 77.66868591308594
75, 0, 0, 78.77127075195312
76, 0, 0, 80.68090057373047
77, 0, 0, 81.94351196289062
78, 0, 0, 81.80392456054688
79, 0, 0, 84.11906433105469
80, 0, 0, 85.75831604003906
81, 0, 0, 89.39266204833984
82, 0, 0, 92.26795196533203
83, 0, 0, 97.14421844482422
84, 0, 0, 102.7649078369141
85, 0, 0, 103.892219543457
86, 0, 0, 112.2223052978516
87, 0, 0, 119.5623397827148
88, 0, 0, 127.4642944335938
89, 0, 0, 142.8951110839844
90, 0, 0, 177.4033966064453
91, 0, 0, 200.6623992919922
92, 0, 0, 201.9487762451172
93, 0, 0, 112.2679748535156
94, 0, 0, 41.52467346191406
95, 0, 0, 16.69145965576172
96, 0, 0, 0
97, 0, 0, 0
98, 0, 0, 0
99, 0, 0, 0
100, 0, 0, 0.02669491060078144
101, 0, 0, 0
102, 0, 0, 0
103, 0, 0, 0
104, 0, 0, 0
105, 0, 0, 0
106, 0, 0, 0
107, 0, 0, 0
108, 0, 0, 0
109, 0, 0, 0.05292467400431633
110, 0, 0, 0
111, 0, 0, 0
112, 0, 0, 0
113, 0, 0, 0
114, 0, 0, 0
115, 0, 0, 0
116, 0, 0, 0
117, 0, 0, 0
118, 0, 0, 0
119, 0, 0, 0
120, 0, 0, 0
121, 0, 0, 0
122, 0, 0, 0
123, 0, 0, 0
124, 0, 0, 0
125, 0, 0, 0
126, 0, 0, 0
127, 0, 0, 0
128, 0, 0, 0
129, 0, 0, 0
130, 0, 0, 0
131, 0, 0, 0
132, 0, 0, 0
133, 0, 0, 0
134, 0, 0, 0
135, 0, 0, 0
136, 0, 0, 0
137, 0, 0, 0
138, 0, 0, 0
139, 0, 0, 0
140, 0, 0, 0
141, 0, 0, 0
142, 0, 0, 0
143, 0, 0, 0
144, 0, 0, 0
145, 0, 0, 0
146, 0, 0, 0
147, 0, 0, 0
148, 0, 0, 0.01300319656729698
149, 0, 0, 0
150, 0, 0, 0
151, 0, 0, 0
152, 0, 0, 0
153, 0, 0, 0
154, 0, 0, 0
155, 0, 0, 0
156, 0, 0, 0
157, 0, 0, 0
158, 0, 0, 0.01926340349018574
159, 0, 0, 0
160, 0, 0, 0
161, 0, 0, 0
162, 0, 0, 0
163, 0, 0, 0
164, 0, 0, 0
165, 0, 0, 0
166, 0, 0, 0
167, 0, 0, 0
168, 0, 0, 0
169, 0, 0, 0
170, 0, 0, 0
171, 0, 0, 0
172, 0, 0, 0
173, 0, 0, 0
174, 0, 0, 0
175, 0, 0, 0
176, 0, 0, 0
177, 0, 0, 0
178, 0, 0, 0
179, 0, 0, 0
