# TOPAS Version: 3.3.p1
# Parameter File: Simple_Pattern.txt
# Results for scorer MLIC_Scorer
# Scored in component: MLIC
# X in 180 bins of 0.222222 cm
# Y in 1 bin  of 10 cm
# Z in 1 bin  of 10 cm
# EnergyDeposit ( MeV ) : Sum   
0, 0, 0, 1091.953857421875
1, 0, 0, 1101.83935546875
2, 0, 0, 1102.627807617188
3, 0, 0, 1104.61279296875
4, 0, 0, 1112.354370117188
5, 0, 0, 1118.144409179688
6, 0, 0, 1120.82421875
7, 0, 0, 1119.144775390625
8, 0, 0, 1124.32080078125
9, 0, 0, 1131.729736328125
10, 0, 0, 1141.83203125
11, 0, 0, 1146.989990234375
12, 0, 0, 1146.789184570312
13, 0, 0, 1150.689208984375
14, 0, 0, 1161.835205078125
15, 0, 0, 1166.61572265625
16, 0, 0, 1167.111206054688
17, 0, 0, 1171.373046875
18, 0, 0, 1178.326049804688
19, 0, 0, 1185.408203125
20, 0, 0, 1191.485473632812
21, 0, 0, 1198.2626953125
22, 0, 0, 1214.091918945312
23, 0, 0, 1212.206665039062
24, 0, 0, 1224.788208007812
25, 0, 0, 1228.784301757812
26, 0, 0, 1231.221801757812
27, 0, 0, 1242.366577148438
28, 0, 0, 1249.505493164062
29, 0, 0, 1262.125122070312
30, 0, 0, 1273.158813476562
31, 0, 0, 1281.028442382812
32, 0, 0, 1278.151123046875
33, 0, 0, 1300.790405273438
34, 0, 0, 1298.724975585938
35, 0, 0, 1306.03955078125
36, 0, 0, 1304.607055664062
37, 0, 0, 1332.919921875
38, 0, 0, 1336.324829101562
39, 0, 0, 1349.587890625
40, 0, 0, 1358.0927734375
41, 0, 0, 1366.949096679688
42, 0, 0, 1382.643188476562
43, 0, 0, 1392.662475585938
44, 0, 0, 1402.228149414062
45, 0, 0, 1413.919555664062
46, 0, 0, 1425.236206054688
47, 0, 0, 1440.47265625
48, 0, 0, 1455.662231445312
49, 0, 0, 1460.514038085938
50, 0, 0, 1480.789306640625
51, 0, 0, 1496.281860351562
52, 0, 0, 1506.904663085938
53, 0, 0, 1523.226196289062
54, 0, 0, 1544.3798828125
55, 0, 0, 1557.301635742188
56, 0, 0, 1572.105834960938
57, 0, 0, 1594.210571289062
58, 0, 0, 1606.546997070312
59, 0, 0, 1624.599731445312
60, 0, 0, 1647.997680664062
61, 0, 0, 1672.043334960938
62, 0, 0, 1689.80517578125
63, 0, 0, 1715.913330078125
64, 0, 0, 1747.205932617188
65, 0, 0, 1766.241088867188
66, 0, 0, 1797.19970703125
67, 0, 0, 1820.284912109375
68, 0, 0, 1846.522705078125
69, 0, 0, 1881.162719726562
70, 0, 0, 1918.714965820312
71, 0, 0, 1953.39990234375
72, 0, 0, 1995.992797851562
73, 0, 0, 2036.26806640625
74, 0, 0, 2083.737548828125
75, 0, 0, 2129.12255859375
76, 0, 0, 2173.581298828125
77, 0, 0, 2228.934814453125
78, 0, 0, 2294.625732421875
79, 0, 0, 2359.55224609375
80, 0, 0, 2433.781982421875
81, 0, 0, 2524.550537109375
82, 0, 0, 2622.05078125
83, 0, 0, 2741.590576171875
84, 0, 0, 2877.318603515625
85, 0, 0, 3044.68701171875
86, 0, 0, 3245.485595703125
87, 0, 0, 3511.126953125
88, 0, 0, 3884.704833984375
89, 0, 0, 4478.43212890625
90, 0, 0, 5219.63671875
91, 0, 0, 5858.4091796875
92, 0, 0, 5780.5419921875
93, 0, 0, 4334.3525390625
94, 0, 0, 2110.72705078125
95, 0, 0, 623.7685546875
96, 0, 0, 131.7564697265625
97, 0, 0, 15.04928493499756
98, 0, 0, 0
99, 0, 0, 0
100, 0, 0, 0
101, 0, 0, 0
102, 0, 0, 0
103, 0, 0, 0
104, 0, 0, 0
105, 0, 0, 0
106, 0, 0, 0
107, 0, 0, 0
108, 0, 0, 0
109, 0, 0, 0
110, 0, 0, 0
111, 0, 0, 0
112, 0, 0, 0
113, 0, 0, 0.02121009491384029
114, 0, 0, 0
115, 0, 0, 0
116, 0, 0, 0.007728712633252144
117, 0, 0, 0
118, 0, 0, 0
119, 0, 0, 0
120, 0, 0, 0
121, 0, 0, 0
122, 0, 0, 0
123, 0, 0, 0
124, 0, 0, 0
125, 0, 0, 0
126, 0, 0, 0
127, 0, 0, 0
128, 0, 0, 0
129, 0, 0, 0
130, 0, 0, 0
131, 0, 0, 0.07239624857902527
132, 0, 0, 0
133, 0, 0, 0
134, 0, 0, 0
135, 0, 0, 0
136, 0, 0, 0
137, 0, 0, 0
138, 0, 0, 0
139, 0, 0, 0
140, 0, 0, 0
141, 0, 0, 0
142, 0, 0, 0
143, 0, 0, 0
144, 0, 0, 0
145, 0, 0, 0.03750207275152206
146, 0, 0, 0
147, 0, 0, 0
148, 0, 0, 0
149, 0, 0, 0
150, 0, 0, 0
151, 0, 0, 0.01868344284594059
152, 0, 0, 0
153, 0, 0, 0
154, 0, 0, 0
155, 0, 0, 0
156, 0, 0, 0
157, 0, 0, 0
158, 0, 0, 0
159, 0, 0, 0
160, 0, 0, 0
161, 0, 0, 0
162, 0, 0, 0
163, 0, 0, 0.1056925430893898
164, 0, 0, 0
165, 0, 0, 0
166, 0, 0, 0
167, 0, 0, 0
168, 0, 0, 0
169, 0, 0, 0
170, 0, 0, 0
171, 0, 0, 0
172, 0, 0, 0
173, 0, 0, 0.06675947457551956
174, 0, 0, 0
175, 0, 0, 0
176, 0, 0, 0
177, 0, 0, 0
178, 0, 0, 0
179, 0, 0, 0
