# TOPAS Version: 3.3.p1
# Parameter File: Simple_Pattern.txt
# Results for scorer MLIC_Scorer
# Scored in component: MLIC
# X in 180 bins of 0.222222 cm
# Y in 1 bin  of 10 cm
# Z in 1 bin  of 10 cm
# EnergyDeposit ( MeV ) : Sum   
0, 0, 0, 1085.369018554688
1, 0, 0, 1083.003662109375
2, 0, 0, 1098.050659179688
3, 0, 0, 1096.010864257812
4, 0, 0, 1104.899536132812
5, 0, 0, 1121.167846679688
6, 0, 0, 1102.581176757812
7, 0, 0, 1123.92041015625
8, 0, 0, 1118.9833984375
9, 0, 0, 1134.087524414062
10, 0, 0, 1130.76220703125
11, 0, 0, 1138.329833984375
12, 0, 0, 1144.2431640625
13, 0, 0, 1145.9794921875
14, 0, 0, 1156.385375976562
15, 0, 0, 1162.798217773438
16, 0, 0, 1171.755737304688
17, 0, 0, 1168.438354492188
18, 0, 0, 1179.78369140625
19, 0, 0, 1190.072509765625
20, 0, 0, 1197.854248046875
21, 0, 0, 1204.528930664062
22, 0, 0, 1208.576171875
23, 0, 0, 1204.619140625
24, 0, 0, 1213.217041015625
25, 0, 0, 1216.31005859375
26, 0, 0, 1239.719848632812
27, 0, 0, 1238.592651367188
28, 0, 0, 1248.19091796875
29, 0, 0, 1260.20947265625
30, 0, 0, 1262.269775390625
31, 0, 0, 1285.102172851562
32, 0, 0, 1287.259643554688
33, 0, 0, 1289.159423828125
34, 0, 0, 1307.833740234375
35, 0, 0, 1313.698486328125
36, 0, 0, 1314.687377929688
37, 0, 0, 1327.85107421875
38, 0, 0, 1335.363037109375
39, 0, 0, 1345.239990234375
40, 0, 0, 1361.352661132812
41, 0, 0, 1375.3857421875
42, 0, 0, 1374.683471679688
43, 0, 0, 1392.796020507812
44, 0, 0, 1411.994384765625
45, 0, 0, 1417.882080078125
46, 0, 0, 1432.954345703125
47, 0, 0, 1436.163208007812
48, 0, 0, 1457.281005859375
49, 0, 0, 1467.169067382812
50, 0, 0, 1480.581787109375
51, 0, 0, 1498.560302734375
52, 0, 0, 1517.172119140625
53, 0, 0, 1530.191040039062
54, 0, 0, 1544.618774414062
55, 0, 0, 1561.572631835938
56, 0, 0, 1575.971435546875
57, 0, 0, 1600.428100585938
58, 0, 0, 1614.358154296875
59, 0, 0, 1636.891723632812
60, 0, 0, 1659.131103515625
61, 0, 0, 1675.133911132812
62, 0, 0, 1699.04833984375
63, 0, 0, 1725.13916015625
64, 0, 0, 1747.953857421875
65, 0, 0, 1773.200317382812
66, 0, 0, 1799.727905273438
67, 0, 0, 1829.770385742188
68, 0, 0, 1865.36669921875
69, 0, 0, 1901.119506835938
70, 0, 0, 1939.408935546875
71, 0, 0, 1975.263916015625
72, 0, 0, 2010.542114257812
73, 0, 0, 2055.43212890625
74, 0, 0, 2108.451171875
75, 0, 0, 2156.151123046875
76, 0, 0, 2215.40869140625
77, 0, 0, 2275.4150390625
78, 0, 0, 2345.8505859375
79, 0, 0, 2411.658203125
80, 0, 0, 2493.034912109375
81, 0, 0, 2589.204345703125
82, 0, 0, 2695.236328125
83, 0, 0, 2828.943359375
84, 0, 0, 2968.51220703125
85, 0, 0, 3148.85400390625
86, 0, 0, 3355.3251953125
87, 0, 0, 3649.4296875
88, 0, 0, 4059.8955078125
89, 0, 0, 4631.2490234375
90, 0, 0, 5477.0009765625
91, 0, 0, 6237.1259765625
92, 0, 0, 6120.2548828125
93, 0, 0, 4532.005859375
94, 0, 0, 2274.03369140625
95, 0, 0, 689.32373046875
96, 0, 0, 98.09274291992188
97, 0, 0, 13.49728298187256
98, 0, 0, 0
99, 0, 0, 0
100, 0, 0, 0
101, 0, 0, 0
102, 0, 0, 0
103, 0, 0, 0
104, 0, 0, 0
105, 0, 0, 0
106, 0, 0, 0
107, 0, 0, 0
108, 0, 0, 0
109, 0, 0, 0
110, 0, 0, 0
111, 0, 0, 0
112, 0, 0, 0
113, 0, 0, 0
114, 0, 0, 0
115, 0, 0, 0
116, 0, 0, 0
117, 0, 0, 0
118, 0, 0, 0
119, 0, 0, 0
120, 0, 0, 0
121, 0, 0, 0
122, 0, 0, 0
123, 0, 0, 0
124, 0, 0, 0
125, 0, 0, 0
126, 0, 0, 0.00575985386967659
127, 0, 0, 0
128, 0, 0, 0
129, 0, 0, 0
130, 0, 0, 0
131, 0, 0, 0
132, 0, 0, 0
133, 0, 0, 0
134, 0, 0, 0
135, 0, 0, 0.002555887680500746
136, 0, 0, 0
137, 0, 0, 0
138, 0, 0, 0
139, 0, 0, 0
140, 0, 0, 0
141, 0, 0, 0
142, 0, 0, 0
143, 0, 0, 0
144, 0, 0, 0
145, 0, 0, 0.04348549246788025
146, 0, 0, 0
147, 0, 0, 0
148, 0, 0, 0
149, 0, 0, 0
150, 0, 0, 0
151, 0, 0, 0
152, 0, 0, 0
153, 0, 0, 0
154, 0, 0, 0
155, 0, 0, 0
156, 0, 0, 0
157, 0, 0, 0
158, 0, 0, 0
159, 0, 0, 0
160, 0, 0, 0
161, 0, 0, 0
162, 0, 0, 0
163, 0, 0, 0
164, 0, 0, 0
165, 0, 0, 0
166, 0, 0, 0
167, 0, 0, 0
168, 0, 0, 0
169, 0, 0, 0
170, 0, 0, 0
171, 0, 0, 0
172, 0, 0, 0
173, 0, 0, 0
174, 0, 0, 0
175, 0, 0, 0
176, 0, 0, 0
177, 0, 0, 0
178, 0, 0, 0
179, 0, 0, 0
