# TOPAS Version: 3.3.p1
# Parameter File: Simple_Pattern.txt
# Results for scorer MLIC_Scorer
# Scored in component: MLIC
# X in 180 bins of 0.222222 cm
# Y in 1 bin  of 10 cm
# Z in 1 bin  of 10 cm
# EnergyDeposit ( MeV ) : Sum   
0, 0, 0, 1089.592163085938
1, 0, 0, 1091.334228515625
2, 0, 0, 1096.822265625
3, 0, 0, 1100.644409179688
4, 0, 0, 1098.379638671875
5, 0, 0, 1119.655517578125
6, 0, 0, 1112.558715820312
7, 0, 0, 1122.982666015625
8, 0, 0, 1114.1513671875
9, 0, 0, 1124.163818359375
10, 0, 0, 1129.302001953125
11, 0, 0, 1135.789916992188
12, 0, 0, 1147.470336914062
13, 0, 0, 1152.777954101562
14, 0, 0, 1151.73095703125
15, 0, 0, 1165.675659179688
16, 0, 0, 1169.411987304688
17, 0, 0, 1161.879272460938
18, 0, 0, 1173.786865234375
19, 0, 0, 1172.898803710938
20, 0, 0, 1179.178833007812
21, 0, 0, 1180.3251953125
22, 0, 0, 1180.118041992188
23, 0, 0, 1191.359619140625
24, 0, 0, 1199.388793945312
25, 0, 0, 1198.581787109375
26, 0, 0, 1204.210571289062
27, 0, 0, 1214.908935546875
28, 0, 0, 1222.228271484375
29, 0, 0, 1223.327392578125
30, 0, 0, 1217.3671875
31, 0, 0, 1216.884643554688
32, 0, 0, 1218.18212890625
33, 0, 0, 1237.773681640625
34, 0, 0, 1238.940185546875
35, 0, 0, 1248.559936523438
36, 0, 0, 1249.089477539062
37, 0, 0, 1248.5361328125
38, 0, 0, 1257.738159179688
39, 0, 0, 1263.584716796875
40, 0, 0, 1273.538696289062
41, 0, 0, 1280.905395507812
42, 0, 0, 1289.452026367188
43, 0, 0, 1296.31787109375
44, 0, 0, 1298.553100585938
45, 0, 0, 1305.787475585938
46, 0, 0, 1313.714477539062
47, 0, 0, 1317.7666015625
48, 0, 0, 1331.23095703125
49, 0, 0, 1333.878662109375
50, 0, 0, 1331.892944335938
51, 0, 0, 1359.424926757812
52, 0, 0, 1361.651245117188
53, 0, 0, 1380.401977539062
54, 0, 0, 1381.143310546875
55, 0, 0, 1391.130126953125
56, 0, 0, 1398.760620117188
57, 0, 0, 1401.609130859375
58, 0, 0, 1416.136962890625
59, 0, 0, 1415.574340820312
60, 0, 0, 1441.978393554688
61, 0, 0, 1472.957763671875
62, 0, 0, 1479.442504882812
63, 0, 0, 1488.670776367188
64, 0, 0, 1518.289916992188
65, 0, 0, 1540.135864257812
66, 0, 0, 1557.851806640625
67, 0, 0, 1579.484252929688
68, 0, 0, 1601.024169921875
69, 0, 0, 1622.753295898438
70, 0, 0, 1626.515014648438
71, 0, 0, 1664.796020507812
72, 0, 0, 1681.881713867188
73, 0, 0, 1723.503540039062
74, 0, 0, 1745.894653320312
75, 0, 0, 1789.842529296875
76, 0, 0, 1826.92822265625
77, 0, 0, 1873.8427734375
78, 0, 0, 1921.463134765625
79, 0, 0, 1970.096069335938
80, 0, 0, 2023.914794921875
81, 0, 0, 2092.114013671875
82, 0, 0, 2175.7275390625
83, 0, 0, 2259.533203125
84, 0, 0, 2367.11474609375
85, 0, 0, 2497.2275390625
86, 0, 0, 2679.208740234375
87, 0, 0, 2893.2109375
88, 0, 0, 3194.897216796875
89, 0, 0, 3705.26025390625
90, 0, 0, 4287.5859375
91, 0, 0, 4772.0048828125
92, 0, 0, 4508.94091796875
93, 0, 0, 3162.971435546875
94, 0, 0, 1546.359497070312
95, 0, 0, 546.7553100585938
96, 0, 0, 157.0366973876953
97, 0, 0, 10.49214458465576
98, 0, 0, 0.1069578677415848
99, 0, 0, 0.006085054017603397
100, 0, 0, 0.005121625494211912
101, 0, 0, 0.01042219530791044
102, 0, 0, 0
103, 0, 0, 0
104, 0, 0, 0
105, 0, 0, 0.1099640876054764
106, 0, 0, 0.0798642635345459
107, 0, 0, 0.06065189465880394
108, 0, 0, 0.016131192445755
109, 0, 0, 0.02473818324506283
110, 0, 0, 0
111, 0, 0, 0.01538502983748913
112, 0, 0, 0.04798467084765434
113, 0, 0, 0
114, 0, 0, 0.004534433130174875
115, 0, 0, 0.01665021292865276
116, 0, 0, 0
117, 0, 0, 0.1040838062763214
118, 0, 0, 0.04497070610523224
119, 0, 0, 0
120, 0, 0, 0.0732325091958046
121, 0, 0, 0
122, 0, 0, 0
123, 0, 0, 0.0276684146374464
124, 0, 0, 0.02365840040147305
125, 0, 0, 0
126, 0, 0, 0
127, 0, 0, 0
128, 0, 0, 0.02629617601633072
129, 0, 0, 0
130, 0, 0, 0.02405368909239769
131, 0, 0, 0.003788355272263288
132, 0, 0, 0
133, 0, 0, 0
134, 0, 0, 0.04506206512451172
135, 0, 0, 0
136, 0, 0, 0
137, 0, 0, 0
138, 0, 0, 0
139, 0, 0, 0.03241827711462975
140, 0, 0, 0
141, 0, 0, 0
142, 0, 0, 0.003162210807204247
143, 0, 0, 0
144, 0, 0, 0.06568277627229691
145, 0, 0, 0
146, 0, 0, 0
147, 0, 0, 0
148, 0, 0, 0
149, 0, 0, 0
150, 0, 0, 0
151, 0, 0, 0.07337197661399841
152, 0, 0, 0
153, 0, 0, 0
154, 0, 0, 0
155, 0, 0, 0
156, 0, 0, 0
157, 0, 0, 0
158, 0, 0, 0.07988611608743668
159, 0, 0, 0
160, 0, 0, 0
161, 0, 0, 0
162, 0, 0, 0
163, 0, 0, 0
164, 0, 0, 0
165, 0, 0, 0
166, 0, 0, 0
167, 0, 0, 0
168, 0, 0, 0
169, 0, 0, 0
170, 0, 0, 0
171, 0, 0, 0
172, 0, 0, 0
173, 0, 0, 0
174, 0, 0, 0.04166130349040031
175, 0, 0, 0.07102403044700623
176, 0, 0, 0
177, 0, 0, 0
178, 0, 0, 0
179, 0, 0, 0
