# TOPAS Version: 3.3.p1
# Parameter File: Simple_Pattern.txt
# Results for scorer MLIC_Scorer
# Scored in component: MLIC
# X in 180 bins of 0.222222 cm
# Y in 1 bin  of 10 cm
# Z in 1 bin  of 10 cm
# EnergyDeposit ( MeV ) : Sum   
0, 0, 0, 67.93785095214844
1, 0, 0, 67.92637634277344
2, 0, 0, 68.14011383056641
3, 0, 0, 66.333984375
4, 0, 0, 68.31600189208984
5, 0, 0, 69.12184143066406
6, 0, 0, 68.63045501708984
7, 0, 0, 69.61930847167969
8, 0, 0, 66.95573425292969
9, 0, 0, 70.68987274169922
10, 0, 0, 70.58420562744141
11, 0, 0, 72.01190948486328
12, 0, 0, 70.50173950195312
13, 0, 0, 73.46791076660156
14, 0, 0, 72.98876953125
15, 0, 0, 73.19377899169922
16, 0, 0, 73.34326171875
17, 0, 0, 73.01954650878906
18, 0, 0, 74.25121307373047
19, 0, 0, 76.39520263671875
20, 0, 0, 77.93521881103516
21, 0, 0, 73.18048858642578
22, 0, 0, 75.65720367431641
23, 0, 0, 76.23932647705078
24, 0, 0, 77.68698120117188
25, 0, 0, 78.29562377929688
26, 0, 0, 77.52019500732422
27, 0, 0, 78.16403961181641
28, 0, 0, 79.04127502441406
29, 0, 0, 79.10378265380859
30, 0, 0, 78.84502410888672
31, 0, 0, 81.04289245605469
32, 0, 0, 80.36341094970703
33, 0, 0, 83.27290344238281
34, 0, 0, 84.32532501220703
35, 0, 0, 84.10688018798828
36, 0, 0, 84.65454864501953
37, 0, 0, 87.12135314941406
38, 0, 0, 84.61055755615234
39, 0, 0, 86.82979583740234
40, 0, 0, 90.65316009521484
41, 0, 0, 89.58161163330078
42, 0, 0, 89.47562408447266
43, 0, 0, 92.13914489746094
44, 0, 0, 93.54123687744141
45, 0, 0, 94.26306915283203
46, 0, 0, 94.27028656005859
47, 0, 0, 94.82794189453125
48, 0, 0, 98.69785308837891
49, 0, 0, 97.61602020263672
50, 0, 0, 99.50100708007812
51, 0, 0, 101.3142013549805
52, 0, 0, 100.9580459594727
53, 0, 0, 106.2729873657227
54, 0, 0, 105.8511657714844
55, 0, 0, 107.1521224975586
56, 0, 0, 107.1840133666992
57, 0, 0, 111.4887390136719
58, 0, 0, 112.5694274902344
59, 0, 0, 115.9407577514648
60, 0, 0, 119.2159881591797
61, 0, 0, 122.0339965820312
62, 0, 0, 123.4876937866211
63, 0, 0, 126.7980804443359
64, 0, 0, 133.2036743164062
65, 0, 0, 135.3233642578125
66, 0, 0, 139.8712921142578
67, 0, 0, 142.6155700683594
68, 0, 0, 149.6700592041016
69, 0, 0, 155.7758026123047
70, 0, 0, 162.9229125976562
71, 0, 0, 170.0481719970703
72, 0, 0, 181.4052581787109
73, 0, 0, 193.5985717773438
74, 0, 0, 208.9572296142578
75, 0, 0, 229.6911315917969
76, 0, 0, 270.4199829101562
77, 0, 0, 310.9816284179688
78, 0, 0, 339.0379028320312
79, 0, 0, 336.75537109375
80, 0, 0, 282.1799011230469
81, 0, 0, 157.1449737548828
82, 0, 0, 82.07282257080078
83, 0, 0, 18.42555046081543
84, 0, 0, 0
85, 0, 0, 0
86, 0, 0, 0
87, 0, 0, 0
88, 0, 0, 0
89, 0, 0, 0
90, 0, 0, 0
91, 0, 0, 0
92, 0, 0, 0
93, 0, 0, 0
94, 0, 0, 0
95, 0, 0, 0
96, 0, 0, 0
97, 0, 0, 0
98, 0, 0, 0
99, 0, 0, 0
100, 0, 0, 0
101, 0, 0, 0
102, 0, 0, 0
103, 0, 0, 0
104, 0, 0, 0
105, 0, 0, 0
106, 0, 0, 0
107, 0, 0, 0
108, 0, 0, 0
109, 0, 0, 0
110, 0, 0, 0
111, 0, 0, 0
112, 0, 0, 0
113, 0, 0, 0
114, 0, 0, 0
115, 0, 0, 0
116, 0, 0, 0
117, 0, 0, 0
118, 0, 0, 0
119, 0, 0, 0
120, 0, 0, 0
121, 0, 0, 0
122, 0, 0, 0
123, 0, 0, 0
124, 0, 0, 0
125, 0, 0, 0
126, 0, 0, 0
127, 0, 0, 0
128, 0, 0, 0
129, 0, 0, 0
130, 0, 0, 0
131, 0, 0, 0
132, 0, 0, 0
133, 0, 0, 0
134, 0, 0, 0
135, 0, 0, 0
136, 0, 0, 0
137, 0, 0, 0
138, 0, 0, 0
139, 0, 0, 0
140, 0, 0, 0
141, 0, 0, 0
142, 0, 0, 0
143, 0, 0, 0
144, 0, 0, 0
145, 0, 0, 0
146, 0, 0, 0
147, 0, 0, 0
148, 0, 0, 0
149, 0, 0, 0
150, 0, 0, 0
151, 0, 0, 0
152, 0, 0, 0
153, 0, 0, 0
154, 0, 0, 0
155, 0, 0, 0
156, 0, 0, 0
157, 0, 0, 0
158, 0, 0, 0
159, 0, 0, 0
160, 0, 0, 0
161, 0, 0, 0
162, 0, 0, 0
163, 0, 0, 0
164, 0, 0, 0
165, 0, 0, 0
166, 0, 0, 0
167, 0, 0, 0
168, 0, 0, 0
169, 0, 0, 0
170, 0, 0, 0
171, 0, 0, 0
172, 0, 0, 0
173, 0, 0, 0
174, 0, 0, 0
175, 0, 0, 0
176, 0, 0, 0
177, 0, 0, 0
178, 0, 0, 0
179, 0, 0, 0
