# TOPAS Version: 3.3.p1
# Parameter File: Simple_Pattern.txt
# Results for scorer MLIC_Scorer
# Scored in component: MLIC
# X in 180 bins of 0.222222 cm
# Y in 1 bin  of 10 cm
# Z in 1 bin  of 10 cm
# EnergyDeposit ( MeV ) : Sum   
0, 0, 0, 89.16354370117188
1, 0, 0, 87.25119018554688
2, 0, 0, 85.24851226806641
3, 0, 0, 88.58775329589844
4, 0, 0, 88.31798553466797
5, 0, 0, 88.43084716796875
6, 0, 0, 88.98440551757812
7, 0, 0, 90.14085388183594
8, 0, 0, 91.45606231689453
9, 0, 0, 90.13075256347656
10, 0, 0, 90.38247680664062
11, 0, 0, 93.24168395996094
12, 0, 0, 92.39253234863281
13, 0, 0, 90.46827697753906
14, 0, 0, 92.65753173828125
15, 0, 0, 96.21842956542969
16, 0, 0, 95.13893890380859
17, 0, 0, 95.28201293945312
18, 0, 0, 98.53316497802734
19, 0, 0, 97.05085754394531
20, 0, 0, 98.62190246582031
21, 0, 0, 98.08512878417969
22, 0, 0, 98.70317840576172
23, 0, 0, 97.59122467041016
24, 0, 0, 99.02208709716797
25, 0, 0, 102.2958145141602
26, 0, 0, 102.2147827148438
27, 0, 0, 102.1725540161133
28, 0, 0, 104.9191131591797
29, 0, 0, 104.1046905517578
30, 0, 0, 106.1421356201172
31, 0, 0, 106.39453125
32, 0, 0, 104.5792083740234
33, 0, 0, 106.9473342895508
34, 0, 0, 108.0481033325195
35, 0, 0, 110.5898818969727
36, 0, 0, 107.8907012939453
37, 0, 0, 111.5254516601562
38, 0, 0, 111.9236221313477
39, 0, 0, 112.3102340698242
40, 0, 0, 115.163200378418
41, 0, 0, 115.6675491333008
42, 0, 0, 115.9224014282227
43, 0, 0, 117.019775390625
44, 0, 0, 118.0753173828125
45, 0, 0, 119.5758285522461
46, 0, 0, 123.57177734375
47, 0, 0, 126.2706909179688
48, 0, 0, 128.3014526367188
49, 0, 0, 129.1501312255859
50, 0, 0, 127.6924667358398
51, 0, 0, 133.1159515380859
52, 0, 0, 134.7206878662109
53, 0, 0, 137.4242095947266
54, 0, 0, 138.6618499755859
55, 0, 0, 141.5436706542969
56, 0, 0, 144.8451385498047
57, 0, 0, 147.6259918212891
58, 0, 0, 147.7048950195312
59, 0, 0, 151.1508483886719
60, 0, 0, 156.8512725830078
61, 0, 0, 159.8645935058594
62, 0, 0, 161.7848663330078
63, 0, 0, 167.33984375
64, 0, 0, 172.2839050292969
65, 0, 0, 177.0847930908203
66, 0, 0, 182.3608245849609
67, 0, 0, 190.7941131591797
68, 0, 0, 195.7445526123047
69, 0, 0, 205.0426483154297
70, 0, 0, 213.9067993164062
71, 0, 0, 225.9487457275391
72, 0, 0, 241.8711090087891
73, 0, 0, 259.4415893554688
74, 0, 0, 281.5926513671875
75, 0, 0, 322.5367736816406
76, 0, 0, 348.9092102050781
77, 0, 0, 417.1885070800781
78, 0, 0, 532.4169311523438
79, 0, 0, 407.3163452148438
80, 0, 0, 237.8503875732422
81, 0, 0, 146.1700439453125
82, 0, 0, 17.76120185852051
83, 0, 0, 6.328351974487305
84, 0, 0, 7.238895416259766
85, 0, 0, 7.701427936553955
86, 0, 0, 8.601390838623047
87, 0, 0, 11.48170375823975
88, 0, 0, 13.78439044952393
89, 0, 0, 4.317508220672607
90, 0, 0, 5.039650440216064
91, 0, 0, 6.248573780059814
92, 0, 0, 10.64851856231689
93, 0, 0, 4.327109813690186
94, 0, 0, 0
95, 0, 0, 0
96, 0, 0, 0
97, 0, 0, 0
98, 0, 0, 0
99, 0, 0, 0
100, 0, 0, 0
101, 0, 0, 0
102, 0, 0, 0
103, 0, 0, 0
104, 0, 0, 0
105, 0, 0, 0
106, 0, 0, 0
107, 0, 0, 0
108, 0, 0, 0
109, 0, 0, 0
110, 0, 0, 0
111, 0, 0, 0
112, 0, 0, 0
113, 0, 0, 0
114, 0, 0, 0
115, 0, 0, 0
116, 0, 0, 0
117, 0, 0, 0
118, 0, 0, 0
119, 0, 0, 0
120, 0, 0, 0
121, 0, 0, 0
122, 0, 0, 0
123, 0, 0, 0
124, 0, 0, 0
125, 0, 0, 0
126, 0, 0, 0
127, 0, 0, 0
128, 0, 0, 0
129, 0, 0, 0
130, 0, 0, 0
131, 0, 0, 0
132, 0, 0, 0
133, 0, 0, 0
134, 0, 0, 0
135, 0, 0, 0
136, 0, 0, 0
137, 0, 0, 0
138, 0, 0, 0
139, 0, 0, 0
140, 0, 0, 0
141, 0, 0, 0
142, 0, 0, 0
143, 0, 0, 0
144, 0, 0, 0
145, 0, 0, 0
146, 0, 0, 0
147, 0, 0, 0
148, 0, 0, 0
149, 0, 0, 0
150, 0, 0, 0
151, 0, 0, 0
152, 0, 0, 0
153, 0, 0, 0
154, 0, 0, 0
155, 0, 0, 0
156, 0, 0, 0
157, 0, 0, 0
158, 0, 0, 0
159, 0, 0, 0
160, 0, 0, 0
161, 0, 0, 0
162, 0, 0, 0
163, 0, 0, 0
164, 0, 0, 0
165, 0, 0, 0
166, 0, 0, 0
167, 0, 0, 0
168, 0, 0, 0
169, 0, 0, 0
170, 0, 0, 0
171, 0, 0, 0
172, 0, 0, 0
173, 0, 0, 0
174, 0, 0, 0
175, 0, 0, 0
176, 0, 0, 0
177, 0, 0, 0
178, 0, 0, 0
179, 0, 0, 0
