# TOPAS Version: 3.3.p1
# Parameter File: Simple_Pattern.txt
# Results for scorer MLIC_Scorer
# Scored in component: MLIC
# X in 165 bins of 0.2 cm
# Y in 1 bin  of 10 cm
# Z in 1 bin  of 10 cm
# EnergyDeposit ( MeV ) : Sum   
0, 0, 0, 938.2039794921875
1, 0, 0, 938.18505859375
2, 0, 0, 942.597412109375
3, 0, 0, 952.6480712890625
4, 0, 0, 955.078857421875
5, 0, 0, 952.7977905273438
6, 0, 0, 949.7122802734375
7, 0, 0, 955.7337036132812
8, 0, 0, 962.0291748046875
9, 0, 0, 968.6730346679688
10, 0, 0, 966.1310424804688
11, 0, 0, 979.5031127929688
12, 0, 0, 979.07177734375
13, 0, 0, 982.0887451171875
14, 0, 0, 982.5872192382812
15, 0, 0, 994.9769287109375
16, 0, 0, 992.5337524414062
17, 0, 0, 1007.8505859375
18, 0, 0, 996.1702880859375
19, 0, 0, 1005.287841796875
20, 0, 0, 1003.272521972656
21, 0, 0, 1014.327392578125
22, 0, 0, 1017.025329589844
23, 0, 0, 1017.302185058594
24, 0, 0, 1024.929931640625
25, 0, 0, 1030.46435546875
26, 0, 0, 1031.332763671875
27, 0, 0, 1042.273071289062
28, 0, 0, 1041.60693359375
29, 0, 0, 1055.077026367188
30, 0, 0, 1048.875732421875
31, 0, 0, 1060.177612304688
32, 0, 0, 1066.059204101562
33, 0, 0, 1063.338012695312
34, 0, 0, 1077.439819335938
35, 0, 0, 1073.548095703125
36, 0, 0, 1087.971313476562
37, 0, 0, 1094.611328125
38, 0, 0, 1092.1982421875
39, 0, 0, 1100.3251953125
40, 0, 0, 1105.23193359375
41, 0, 0, 1112.049194335938
42, 0, 0, 1116.953002929688
43, 0, 0, 1122.657592773438
44, 0, 0, 1133.466186523438
45, 0, 0, 1138.918701171875
46, 0, 0, 1150.222534179688
47, 0, 0, 1150.91796875
48, 0, 0, 1156.921142578125
49, 0, 0, 1164.878295898438
50, 0, 0, 1170.541381835938
51, 0, 0, 1185.998046875
52, 0, 0, 1187.796997070312
53, 0, 0, 1199.109375
54, 0, 0, 1197.805297851562
55, 0, 0, 1210.814453125
56, 0, 0, 1223.409545898438
57, 0, 0, 1228.689086914062
58, 0, 0, 1235.055908203125
59, 0, 0, 1241.441528320312
60, 0, 0, 1257.205078125
61, 0, 0, 1264.08642578125
62, 0, 0, 1271.767700195312
63, 0, 0, 1288.245483398438
64, 0, 0, 1294.024658203125
65, 0, 0, 1307.841918945312
66, 0, 0, 1314.641235351562
67, 0, 0, 1324.74169921875
68, 0, 0, 1338.385620117188
69, 0, 0, 1351.446899414062
70, 0, 0, 1367.757568359375
71, 0, 0, 1375.32421875
72, 0, 0, 1386.662963867188
73, 0, 0, 1387.732788085938
74, 0, 0, 1409.716674804688
75, 0, 0, 1436.76611328125
76, 0, 0, 1441.11572265625
77, 0, 0, 1454.468627929688
78, 0, 0, 1478.978759765625
79, 0, 0, 1488.981689453125
80, 0, 0, 1513.368774414062
81, 0, 0, 1531.502807617188
82, 0, 0, 1547.120483398438
83, 0, 0, 1559.502075195312
84, 0, 0, 1591.331787109375
85, 0, 0, 1609.808715820312
86, 0, 0, 1623.731811523438
87, 0, 0, 1662.4033203125
88, 0, 0, 1682.673583984375
89, 0, 0, 1708.594482421875
90, 0, 0, 1736.614868164062
91, 0, 0, 1771.921630859375
92, 0, 0, 1796.305419921875
93, 0, 0, 1829.625854492188
94, 0, 0, 1861.167114257812
95, 0, 0, 1909.4931640625
96, 0, 0, 1945.458374023438
97, 0, 0, 1998.544799804688
98, 0, 0, 2040.267333984375
99, 0, 0, 2097.3720703125
100, 0, 0, 2166.514892578125
101, 0, 0, 2233.6083984375
102, 0, 0, 2303.123779296875
103, 0, 0, 2384.853759765625
104, 0, 0, 2476.57763671875
105, 0, 0, 2595.5009765625
106, 0, 0, 2720.052978515625
107, 0, 0, 2875.829345703125
108, 0, 0, 3074.6591796875
109, 0, 0, 3303.7392578125
110, 0, 0, 3662.02685546875
111, 0, 0, 4181.794921875
112, 0, 0, 4852.75439453125
113, 0, 0, 5280.7021484375
114, 0, 0, 5189.66845703125
115, 0, 0, 4198.75
116, 0, 0, 2975.42822265625
117, 0, 0, 1411.80419921875
118, 0, 0, 499.561767578125
119, 0, 0, 125.095588684082
120, 0, 0, 49.69236755371094
121, 0, 0, 19.72844886779785
122, 0, 0, 0
123, 0, 0, 0
124, 0, 0, 0
125, 0, 0, 0
126, 0, 0, 0
127, 0, 0, 0
128, 0, 0, 0
129, 0, 0, 0.01397806219756603
130, 0, 0, 0
131, 0, 0, 0
132, 0, 0, 0
133, 0, 0, 0
134, 0, 0, 0
135, 0, 0, 0
136, 0, 0, 0
137, 0, 0, 0
138, 0, 0, 0
139, 0, 0, 0
140, 0, 0, 0
141, 0, 0, 0
142, 0, 0, 0
143, 0, 0, 0
144, 0, 0, 0
145, 0, 0, 0
146, 0, 0, 0
147, 0, 0, 0
148, 0, 0, 0
149, 0, 0, 0
150, 0, 0, 0
151, 0, 0, 0
152, 0, 0, 0
153, 0, 0, 0
154, 0, 0, 0
155, 0, 0, 0
156, 0, 0, 0
157, 0, 0, 0
158, 0, 0, 0
159, 0, 0, 0
160, 0, 0, 0
161, 0, 0, 0
162, 0, 0, 0
163, 0, 0, 0
164, 0, 0, 0
