# TOPAS Version: 3.3.p1
# Parameter File: Simple_Pattern.txt
# Results for scorer MLIC_Scorer
# Scored in component: MLIC
# X in 180 bins of 0.222222 cm
# Y in 1 bin  of 10 cm
# Z in 1 bin  of 10 cm
# EnergyDeposit ( MeV ) : Sum   
0, 0, 0, 1089.317749023438
1, 0, 0, 1090.057495117188
2, 0, 0, 1091.548706054688
3, 0, 0, 1111.4365234375
4, 0, 0, 1098.074584960938
5, 0, 0, 1119.586547851562
6, 0, 0, 1116.704345703125
7, 0, 0, 1118.514526367188
8, 0, 0, 1126.59228515625
9, 0, 0, 1129.75
10, 0, 0, 1130.529907226562
11, 0, 0, 1133.036254882812
12, 0, 0, 1139.92431640625
13, 0, 0, 1157.622192382812
14, 0, 0, 1152.166015625
15, 0, 0, 1161.647583007812
16, 0, 0, 1178.176635742188
17, 0, 0, 1170.702026367188
18, 0, 0, 1181.283935546875
19, 0, 0, 1197.491577148438
20, 0, 0, 1192.857177734375
21, 0, 0, 1192.996215820312
22, 0, 0, 1209.239379882812
23, 0, 0, 1210.44970703125
24, 0, 0, 1226.046752929688
25, 0, 0, 1235.537719726562
26, 0, 0, 1235.145751953125
27, 0, 0, 1246.660766601562
28, 0, 0, 1240.218383789062
29, 0, 0, 1259.057861328125
30, 0, 0, 1264.520629882812
31, 0, 0, 1274.435180664062
32, 0, 0, 1276.841796875
33, 0, 0, 1289.986938476562
34, 0, 0, 1303.22021484375
35, 0, 0, 1310.128295898438
36, 0, 0, 1317.389038085938
37, 0, 0, 1324.415649414062
38, 0, 0, 1343.967041015625
39, 0, 0, 1342.823364257812
40, 0, 0, 1366.7578125
41, 0, 0, 1380.204833984375
42, 0, 0, 1376.438232421875
43, 0, 0, 1393.455322265625
44, 0, 0, 1401.304565429688
45, 0, 0, 1417.73193359375
46, 0, 0, 1429.646362304688
47, 0, 0, 1435.430908203125
48, 0, 0, 1447.181274414062
49, 0, 0, 1469.307373046875
50, 0, 0, 1475.771118164062
51, 0, 0, 1502.797729492188
52, 0, 0, 1511.66748046875
53, 0, 0, 1525.04541015625
54, 0, 0, 1543.014038085938
55, 0, 0, 1555.557495117188
56, 0, 0, 1576.8623046875
57, 0, 0, 1593.7431640625
58, 0, 0, 1612.268188476562
59, 0, 0, 1637.477661132812
60, 0, 0, 1653.549682617188
61, 0, 0, 1680.563842773438
62, 0, 0, 1701.78759765625
63, 0, 0, 1718.318115234375
64, 0, 0, 1743.880249023438
65, 0, 0, 1774.076293945312
66, 0, 0, 1803.726440429688
67, 0, 0, 1825.306274414062
68, 0, 0, 1862.058959960938
69, 0, 0, 1891.515747070312
70, 0, 0, 1934.3857421875
71, 0, 0, 1962.894897460938
72, 0, 0, 2003.205810546875
73, 0, 0, 2054.296142578125
74, 0, 0, 2098.697265625
75, 0, 0, 2148.46728515625
76, 0, 0, 2209.594970703125
77, 0, 0, 2266.158935546875
78, 0, 0, 2331.922607421875
79, 0, 0, 2404.154541015625
80, 0, 0, 2482.672607421875
81, 0, 0, 2573.743408203125
82, 0, 0, 2674.07177734375
83, 0, 0, 2796.39453125
84, 0, 0, 2924.80712890625
85, 0, 0, 3115.458984375
86, 0, 0, 3332.0908203125
87, 0, 0, 3611.8798828125
88, 0, 0, 4015.9287109375
89, 0, 0, 4602.3671875
90, 0, 0, 5595.71728515625
91, 0, 0, 6229.48876953125
92, 0, 0, 5646.197265625
93, 0, 0, 4171.60009765625
94, 0, 0, 2186.473876953125
95, 0, 0, 663.9883422851562
96, 0, 0, 119.1245422363281
97, 0, 0, 17.80752563476562
98, 0, 0, 0
99, 0, 0, 0
100, 0, 0, 0.0004286304174456745
101, 0, 0, 0
102, 0, 0, 0
103, 0, 0, 0
104, 0, 0, 0
105, 0, 0, 0.03092990256845951
106, 0, 0, 0
107, 0, 0, 0
108, 0, 0, 0
109, 0, 0, 0
110, 0, 0, 0.01427582837641239
111, 0, 0, 0
112, 0, 0, 0
113, 0, 0, 0
114, 0, 0, 0
115, 0, 0, 0
116, 0, 0, 0
117, 0, 0, 0
118, 0, 0, 0
119, 0, 0, 0
120, 0, 0, 0
121, 0, 0, 0
122, 0, 0, 0
123, 0, 0, 0
124, 0, 0, 0
125, 0, 0, 0
126, 0, 0, 0
127, 0, 0, 0
128, 0, 0, 0
129, 0, 0, 0
130, 0, 0, 0
131, 0, 0, 0
132, 0, 0, 0
133, 0, 0, 0
134, 0, 0, 0.002811045618727803
135, 0, 0, 0
136, 0, 0, 0
137, 0, 0, 0
138, 0, 0, 0
139, 0, 0, 0
140, 0, 0, 0
141, 0, 0, 0
142, 0, 0, 0
143, 0, 0, 0
144, 0, 0, 0
145, 0, 0, 0
146, 0, 0, 0
147, 0, 0, 0
148, 0, 0, 0
149, 0, 0, 0
150, 0, 0, 0
151, 0, 0, 0
152, 0, 0, 0
153, 0, 0, 0
154, 0, 0, 0
155, 0, 0, 0
156, 0, 0, 0
157, 0, 0, 0
158, 0, 0, 0
159, 0, 0, 0
160, 0, 0, 0
161, 0, 0, 0
162, 0, 0, 0
163, 0, 0, 0
164, 0, 0, 0
165, 0, 0, 0
166, 0, 0, 0
167, 0, 0, 0
168, 0, 0, 0
169, 0, 0, 0
170, 0, 0, 0
171, 0, 0, 0
172, 0, 0, 0
173, 0, 0, 0
174, 0, 0, 0
175, 0, 0, 0
176, 0, 0, 0
177, 0, 0, 0
178, 0, 0, 0
179, 0, 0, 0
