# TOPAS Version: 3.3.p1
# Parameter File: Simple_Pattern.txt
# Results for scorer MLIC_Scorer
# Scored in component: MLIC
# X in 180 bins of 0.222222 cm
# Y in 1 bin  of 10 cm
# Z in 1 bin  of 10 cm
# EnergyDeposit ( MeV ) : Sum   
0, 0, 0, 77.83165740966797
1, 0, 0, 78.27900695800781
2, 0, 0, 80.15824127197266
3, 0, 0, 80.00148010253906
4, 0, 0, 81.0338134765625
5, 0, 0, 82.48698425292969
6, 0, 0, 80.22575378417969
7, 0, 0, 80.23229217529297
8, 0, 0, 81.16714477539062
9, 0, 0, 82.90847015380859
10, 0, 0, 83.13814544677734
11, 0, 0, 83.35761260986328
12, 0, 0, 80.51783752441406
13, 0, 0, 81.89368438720703
14, 0, 0, 84.68199920654297
15, 0, 0, 85.12961578369141
16, 0, 0, 85.16069030761719
17, 0, 0, 84.2470703125
18, 0, 0, 86.74008941650391
19, 0, 0, 86.18201446533203
20, 0, 0, 86.2779541015625
21, 0, 0, 86.39084625244141
22, 0, 0, 88.87740325927734
23, 0, 0, 87.9688720703125
24, 0, 0, 89.00486755371094
25, 0, 0, 89.60844421386719
26, 0, 0, 89.28211975097656
27, 0, 0, 91.69856262207031
28, 0, 0, 92.61776733398438
29, 0, 0, 92.70756530761719
30, 0, 0, 93.89621734619141
31, 0, 0, 93.92051696777344
32, 0, 0, 92.01859283447266
33, 0, 0, 94.96044921875
34, 0, 0, 94.51109313964844
35, 0, 0, 98.4061279296875
36, 0, 0, 96.58560943603516
37, 0, 0, 98.22954559326172
38, 0, 0, 97.93612670898438
39, 0, 0, 98.9725341796875
40, 0, 0, 101.0562896728516
41, 0, 0, 100.9594345092773
42, 0, 0, 100.7545471191406
43, 0, 0, 102.5573501586914
44, 0, 0, 104.5377044677734
45, 0, 0, 103.9573974609375
46, 0, 0, 104.43896484375
47, 0, 0, 106.0432052612305
48, 0, 0, 106.2605133056641
49, 0, 0, 107.2714614868164
50, 0, 0, 107.8087310791016
51, 0, 0, 108.1789703369141
52, 0, 0, 109.1661834716797
53, 0, 0, 110.4232559204102
54, 0, 0, 112.0103149414062
55, 0, 0, 111.7934112548828
56, 0, 0, 115.134407043457
57, 0, 0, 116.1369171142578
58, 0, 0, 118.6818695068359
59, 0, 0, 121.423095703125
60, 0, 0, 122.4596862792969
61, 0, 0, 123.9678421020508
62, 0, 0, 123.5395736694336
63, 0, 0, 127.0410308837891
64, 0, 0, 128.0819091796875
65, 0, 0, 129.6119384765625
66, 0, 0, 132.1272277832031
67, 0, 0, 132.2837219238281
68, 0, 0, 137.1174926757812
69, 0, 0, 137.1873168945312
70, 0, 0, 140.4992523193359
71, 0, 0, 145.7704620361328
72, 0, 0, 145.4235687255859
73, 0, 0, 148.6352844238281
74, 0, 0, 155.3902435302734
75, 0, 0, 157.8976745605469
76, 0, 0, 161.7601013183594
77, 0, 0, 166.541748046875
78, 0, 0, 171.2702178955078
79, 0, 0, 177.6227722167969
80, 0, 0, 185.2371673583984
81, 0, 0, 187.2128295898438
82, 0, 0, 197.7626342773438
83, 0, 0, 208.6748657226562
84, 0, 0, 217.0775299072266
85, 0, 0, 231.7001037597656
86, 0, 0, 244.7397003173828
87, 0, 0, 262.0194091796875
88, 0, 0, 290.5320739746094
89, 0, 0, 337.7240905761719
90, 0, 0, 399.1654663085938
91, 0, 0, 458.718505859375
92, 0, 0, 442.9217529296875
93, 0, 0, 312.4104614257812
94, 0, 0, 135.8476257324219
95, 0, 0, 63.71718978881836
96, 0, 0, 12.12259960174561
97, 0, 0, 0
98, 0, 0, 0
99, 0, 0, 0
100, 0, 0, 0
101, 0, 0, 0
102, 0, 0, 0
103, 0, 0, 0
104, 0, 0, 0
105, 0, 0, 0
106, 0, 0, 0
107, 0, 0, 0
108, 0, 0, 0
109, 0, 0, 0
110, 0, 0, 0
111, 0, 0, 0
112, 0, 0, 0
113, 0, 0, 0
114, 0, 0, 0
115, 0, 0, 0
116, 0, 0, 0
117, 0, 0, 0
118, 0, 0, 0
119, 0, 0, 0
120, 0, 0, 0
121, 0, 0, 0
122, 0, 0, 0
123, 0, 0, 0
124, 0, 0, 0
125, 0, 0, 0
126, 0, 0, 0
127, 0, 0, 0
128, 0, 0, 0
129, 0, 0, 0
130, 0, 0, 0
131, 0, 0, 0
132, 0, 0, 0
133, 0, 0, 0
134, 0, 0, 0
135, 0, 0, 0
136, 0, 0, 0
137, 0, 0, 0
138, 0, 0, 0
139, 0, 0, 0
140, 0, 0, 0
141, 0, 0, 0
142, 0, 0, 0
143, 0, 0, 0
144, 0, 0, 0
145, 0, 0, 0
146, 0, 0, 0
147, 0, 0, 0
148, 0, 0, 0
149, 0, 0, 0
150, 0, 0, 0
151, 0, 0, 0
152, 0, 0, 0
153, 0, 0, 0
154, 0, 0, 0
155, 0, 0, 0
156, 0, 0, 0
157, 0, 0, 0
158, 0, 0, 0
159, 0, 0, 0
160, 0, 0, 0
161, 0, 0, 0
162, 0, 0, 0
163, 0, 0, 0
164, 0, 0, 0
165, 0, 0, 0
166, 0, 0, 0
167, 0, 0, 0
168, 0, 0, 0
169, 0, 0, 0
170, 0, 0, 0
171, 0, 0, 0
172, 0, 0, 0
173, 0, 0, 0
174, 0, 0, 0
175, 0, 0, 0
176, 0, 0, 0
177, 0, 0, 0
178, 0, 0, 0
179, 0, 0, 0
