# TOPAS Version: 3.3.p1
# Parameter File: Simple_Pattern.txt
# Results for scorer MLIC_Scorer
# Scored in component: MLIC
# X in 180 bins of 0.222222 cm
# Y in 1 bin  of 10 cm
# Z in 1 bin  of 10 cm
# EnergyDeposit ( MeV ) : Sum   
0, 0, 0, 35.90118789672852
1, 0, 0, 36.85616683959961
2, 0, 0, 36.43473052978516
3, 0, 0, 35.62309265136719
4, 0, 0, 35.71405410766602
5, 0, 0, 35.83010101318359
6, 0, 0, 35.79121017456055
7, 0, 0, 36.5440788269043
8, 0, 0, 36.59931182861328
9, 0, 0, 37.41649627685547
10, 0, 0, 38.80812072753906
11, 0, 0, 37.97744369506836
12, 0, 0, 38.61448287963867
13, 0, 0, 39.52644348144531
14, 0, 0, 37.39038848876953
15, 0, 0, 37.4615364074707
16, 0, 0, 39.04978942871094
17, 0, 0, 40.20966339111328
18, 0, 0, 38.19955825805664
19, 0, 0, 39.43331146240234
20, 0, 0, 38.66408538818359
21, 0, 0, 39.44208145141602
22, 0, 0, 39.14773941040039
23, 0, 0, 39.47010040283203
24, 0, 0, 39.57674026489258
25, 0, 0, 40.32289886474609
26, 0, 0, 40.47880554199219
27, 0, 0, 41.49740600585938
28, 0, 0, 40.93733215332031
29, 0, 0, 41.84895324707031
30, 0, 0, 42.27763748168945
31, 0, 0, 42.7486686706543
32, 0, 0, 42.95726776123047
33, 0, 0, 43.06351089477539
34, 0, 0, 44.14593505859375
35, 0, 0, 44.28874206542969
36, 0, 0, 44.56052398681641
37, 0, 0, 44.11756896972656
38, 0, 0, 46.14581298828125
39, 0, 0, 44.33728790283203
40, 0, 0, 45.94304275512695
41, 0, 0, 45.05444717407227
42, 0, 0, 48.28798294067383
43, 0, 0, 48.31871032714844
44, 0, 0, 47.65045166015625
45, 0, 0, 47.20825958251953
46, 0, 0, 47.67155075073242
47, 0, 0, 49.47565460205078
48, 0, 0, 50.04756164550781
49, 0, 0, 51.15625
50, 0, 0, 49.48773956298828
51, 0, 0, 51.56493377685547
52, 0, 0, 52.86344528198242
53, 0, 0, 53.52659225463867
54, 0, 0, 52.80032348632812
55, 0, 0, 55.41378402709961
56, 0, 0, 55.12813568115234
57, 0, 0, 56.16206741333008
58, 0, 0, 56.36100006103516
59, 0, 0, 56.77220916748047
60, 0, 0, 59.91777801513672
61, 0, 0, 60.68379211425781
62, 0, 0, 61.36822128295898
63, 0, 0, 61.45343017578125
64, 0, 0, 60.85860061645508
65, 0, 0, 63.89286804199219
66, 0, 0, 65.53214263916016
67, 0, 0, 68.03205108642578
68, 0, 0, 68.39380645751953
69, 0, 0, 71.1572265625
70, 0, 0, 72.42766571044922
71, 0, 0, 77.21537780761719
72, 0, 0, 80.702880859375
73, 0, 0, 83.81021881103516
74, 0, 0, 89.51795196533203
75, 0, 0, 95.03028106689453
76, 0, 0, 109.9619140625
77, 0, 0, 111.3467864990234
78, 0, 0, 103.5833740234375
79, 0, 0, 106.5005187988281
80, 0, 0, 124.0522918701172
81, 0, 0, 100.8217849731445
82, 0, 0, 62.7370491027832
83, 0, 0, 54.90335845947266
84, 0, 0, 56.42232131958008
85, 0, 0, 60.4727783203125
86, 0, 0, 64.54327392578125
87, 0, 0, 69.70556640625
88, 0, 0, 79.13393402099609
89, 0, 0, 90.49428558349609
90, 0, 0, 120.1987228393555
91, 0, 0, 106.078254699707
92, 0, 0, 103.6736907958984
93, 0, 0, 79.58193969726562
94, 0, 0, 41.42665863037109
95, 0, 0, 21.65201759338379
96, 0, 0, 0
97, 0, 0, 0
98, 0, 0, 0
99, 0, 0, 0
100, 0, 0, 0
101, 0, 0, 0
102, 0, 0, 0
103, 0, 0, 0
104, 0, 0, 0
105, 0, 0, 0
106, 0, 0, 0
107, 0, 0, 0
108, 0, 0, 0
109, 0, 0, 0
110, 0, 0, 0
111, 0, 0, 0
112, 0, 0, 0
113, 0, 0, 0
114, 0, 0, 0
115, 0, 0, 0
116, 0, 0, 0
117, 0, 0, 0
118, 0, 0, 0
119, 0, 0, 0
120, 0, 0, 0
121, 0, 0, 0
122, 0, 0, 0
123, 0, 0, 0
124, 0, 0, 0
125, 0, 0, 0
126, 0, 0, 0
127, 0, 0, 0
128, 0, 0, 0
129, 0, 0, 0
130, 0, 0, 0
131, 0, 0, 0
132, 0, 0, 0
133, 0, 0, 0
134, 0, 0, 0
135, 0, 0, 0
136, 0, 0, 0
137, 0, 0, 0
138, 0, 0, 0
139, 0, 0, 0
140, 0, 0, 0
141, 0, 0, 0
142, 0, 0, 0
143, 0, 0, 0
144, 0, 0, 0
145, 0, 0, 0
146, 0, 0, 0
147, 0, 0, 0
148, 0, 0, 0
149, 0, 0, 0
150, 0, 0, 0
151, 0, 0, 0
152, 0, 0, 0
153, 0, 0, 0
154, 0, 0, 0
155, 0, 0, 0
156, 0, 0, 0
157, 0, 0, 0
158, 0, 0, 0
159, 0, 0, 0
160, 0, 0, 0
161, 0, 0, 0
162, 0, 0, 0
163, 0, 0, 0
164, 0, 0, 0
165, 0, 0, 0
166, 0, 0, 0
167, 0, 0, 0
168, 0, 0, 0
169, 0, 0, 0
170, 0, 0, 0
171, 0, 0, 0
172, 0, 0, 0
173, 0, 0, 0
174, 0, 0, 0
175, 0, 0, 0
176, 0, 0, 0
177, 0, 0, 0
178, 0, 0, 0
179, 0, 0, 0
