# TOPAS Version: 3.3.p1
# Parameter File: Simple_Pattern.txt
# Results for scorer MLIC_Scorer
# Scored in component: MLIC
# X in 180 bins of 0.222222 cm
# Y in 1 bin  of 10 cm
# Z in 1 bin  of 10 cm
# EnergyDeposit ( MeV ) : Sum   
0, 0, 0, 1090.248046875
1, 0, 0, 1094.817138671875
2, 0, 0, 1093.659790039062
3, 0, 0, 1095.682739257812
4, 0, 0, 1099.598510742188
5, 0, 0, 1111.77685546875
6, 0, 0, 1122.83984375
7, 0, 0, 1121.76611328125
8, 0, 0, 1121.907836914062
9, 0, 0, 1135.807373046875
10, 0, 0, 1127.567993164062
11, 0, 0, 1141.633911132812
12, 0, 0, 1144.317626953125
13, 0, 0, 1146.561889648438
14, 0, 0, 1158.148193359375
15, 0, 0, 1159.7265625
16, 0, 0, 1167.842407226562
17, 0, 0, 1180.544799804688
18, 0, 0, 1177.59716796875
19, 0, 0, 1189.677978515625
20, 0, 0, 1198.334350585938
21, 0, 0, 1200.293334960938
22, 0, 0, 1216.437622070312
23, 0, 0, 1214.20654296875
24, 0, 0, 1224.768676757812
25, 0, 0, 1222.669555664062
26, 0, 0, 1232.685180664062
27, 0, 0, 1233.664184570312
28, 0, 0, 1243.357788085938
29, 0, 0, 1261.630615234375
30, 0, 0, 1264.465454101562
31, 0, 0, 1279.5703125
32, 0, 0, 1280.389282226562
33, 0, 0, 1292.690551757812
34, 0, 0, 1305.08935546875
35, 0, 0, 1301.435546875
36, 0, 0, 1314.417236328125
37, 0, 0, 1320.892944335938
38, 0, 0, 1345.446655273438
39, 0, 0, 1350.810302734375
40, 0, 0, 1361.033813476562
41, 0, 0, 1368.003784179688
42, 0, 0, 1382.696899414062
43, 0, 0, 1388.063598632812
44, 0, 0, 1417.198486328125
45, 0, 0, 1420.859985351562
46, 0, 0, 1426.559814453125
47, 0, 0, 1431.923828125
48, 0, 0, 1456.739990234375
49, 0, 0, 1468.9970703125
50, 0, 0, 1492.338500976562
51, 0, 0, 1496.180053710938
52, 0, 0, 1507.854858398438
53, 0, 0, 1536.493286132812
54, 0, 0, 1552.928955078125
55, 0, 0, 1563.217163085938
56, 0, 0, 1586.551879882812
57, 0, 0, 1603.309448242188
58, 0, 0, 1617.552368164062
59, 0, 0, 1642.344970703125
60, 0, 0, 1665.95556640625
61, 0, 0, 1677.528930664062
62, 0, 0, 1702.020263671875
63, 0, 0, 1728.949584960938
64, 0, 0, 1752.837036132812
65, 0, 0, 1779.952026367188
66, 0, 0, 1811.776733398438
67, 0, 0, 1838.548095703125
68, 0, 0, 1873.48583984375
69, 0, 0, 1894.70458984375
70, 0, 0, 1937.097900390625
71, 0, 0, 1976.201171875
72, 0, 0, 2016.459228515625
73, 0, 0, 2066.864990234375
74, 0, 0, 2103.4326171875
75, 0, 0, 2165.1103515625
76, 0, 0, 2225.4638671875
77, 0, 0, 2276.6826171875
78, 0, 0, 2351.72265625
79, 0, 0, 2421.1005859375
80, 0, 0, 2508.095458984375
81, 0, 0, 2605.59716796875
82, 0, 0, 2708.6845703125
83, 0, 0, 2835.29052734375
84, 0, 0, 2978.638671875
85, 0, 0, 3163.007080078125
86, 0, 0, 3386.60205078125
87, 0, 0, 3676.867431640625
88, 0, 0, 4099.9609375
89, 0, 0, 4664.63720703125
90, 0, 0, 5470.677734375
91, 0, 0, 6214.00146484375
92, 0, 0, 6028.0263671875
93, 0, 0, 4312.9873046875
94, 0, 0, 2215.913330078125
95, 0, 0, 777.4518432617188
96, 0, 0, 182.8194732666016
97, 0, 0, 2.663647413253784
98, 0, 0, 0
99, 0, 0, 0
100, 0, 0, 0
101, 0, 0, 0
102, 0, 0, 0
103, 0, 0, 0
104, 0, 0, 0
105, 0, 0, 0
106, 0, 0, 0
107, 0, 0, 0
108, 0, 0, 0
109, 0, 0, 0
110, 0, 0, 0
111, 0, 0, 0
112, 0, 0, 0
113, 0, 0, 0
114, 0, 0, 0
115, 0, 0, 0
116, 0, 0, 0
117, 0, 0, 0
118, 0, 0, 0
119, 0, 0, 0
120, 0, 0, 0
121, 0, 0, 0
122, 0, 0, 0
123, 0, 0, 0
124, 0, 0, 0
125, 0, 0, 0
126, 0, 0, 0
127, 0, 0, 0
128, 0, 0, 0
129, 0, 0, 0
130, 0, 0, 0
131, 0, 0, 0
132, 0, 0, 0
133, 0, 0, 0
134, 0, 0, 0
135, 0, 0, 0
136, 0, 0, 0
137, 0, 0, 0
138, 0, 0, 0
139, 0, 0, 0
140, 0, 0, 0
141, 0, 0, 0
142, 0, 0, 0
143, 0, 0, 0
144, 0, 0, 0
145, 0, 0, 0
146, 0, 0, 0
147, 0, 0, 0
148, 0, 0, 0
149, 0, 0, 0
150, 0, 0, 0
151, 0, 0, 0
152, 0, 0, 0
153, 0, 0, 0
154, 0, 0, 0
155, 0, 0, 0
156, 0, 0, 0
157, 0, 0, 0
158, 0, 0, 0
159, 0, 0, 0
160, 0, 0, 0
161, 0, 0, 0
162, 0, 0, 0
163, 0, 0, 0
164, 0, 0, 0
165, 0, 0, 0
166, 0, 0, 0
167, 0, 0, 0
168, 0, 0, 0
169, 0, 0, 0
170, 0, 0, 0
171, 0, 0, 0
172, 0, 0, 0
173, 0, 0, 0
174, 0, 0, 0
175, 0, 0, 0
176, 0, 0, 0
177, 0, 0, 0
178, 0, 0, 0
179, 0, 0, 0
