# TOPAS Version: 3.3.p1
# Parameter File: Simple_Pattern.txt
# Results for scorer MLIC_Scorer
# Scored in component: MLIC
# X in 180 bins of 0.222222 cm
# Y in 1 bin  of 10 cm
# Z in 1 bin  of 10 cm
# EnergyDeposit ( MeV ) : Sum   
0, 0, 0, 1155.689453125
1, 0, 0, 1174.009643554688
2, 0, 0, 1163.87939453125
3, 0, 0, 1166.0048828125
4, 0, 0, 1177.387084960938
5, 0, 0, 1181.933471679688
6, 0, 0, 1189.05029296875
7, 0, 0, 1192.726806640625
8, 0, 0, 1199.325561523438
9, 0, 0, 1206.970825195312
10, 0, 0, 1214.841552734375
11, 0, 0, 1221.366333007812
12, 0, 0, 1229.06640625
13, 0, 0, 1244.026245117188
14, 0, 0, 1240.791625976562
15, 0, 0, 1251.214477539062
16, 0, 0, 1257.79541015625
17, 0, 0, 1265.222045898438
18, 0, 0, 1270.604248046875
19, 0, 0, 1294.272583007812
20, 0, 0, 1298.21044921875
21, 0, 0, 1290.040161132812
22, 0, 0, 1308.23193359375
23, 0, 0, 1316.748657226562
24, 0, 0, 1329.625122070312
25, 0, 0, 1337.009887695312
26, 0, 0, 1350.792602539062
27, 0, 0, 1357.48046875
28, 0, 0, 1369.319458007812
29, 0, 0, 1379.521484375
30, 0, 0, 1392.386596679688
31, 0, 0, 1401.392944335938
32, 0, 0, 1421.519897460938
33, 0, 0, 1425.177612304688
34, 0, 0, 1441.600463867188
35, 0, 0, 1448.342041015625
36, 0, 0, 1470.211059570312
37, 0, 0, 1477.655029296875
38, 0, 0, 1489.973388671875
39, 0, 0, 1505.86474609375
40, 0, 0, 1523.23681640625
41, 0, 0, 1542.445556640625
42, 0, 0, 1561.336791992188
43, 0, 0, 1576.806274414062
44, 0, 0, 1598.886352539062
45, 0, 0, 1613.830200195312
46, 0, 0, 1641.350341796875
47, 0, 0, 1656.29638671875
48, 0, 0, 1678.424072265625
49, 0, 0, 1700.334350585938
50, 0, 0, 1731.863525390625
51, 0, 0, 1747.671508789062
52, 0, 0, 1777.833862304688
53, 0, 0, 1807.517578125
54, 0, 0, 1835.316772460938
55, 0, 0, 1865.567260742188
56, 0, 0, 1903.126220703125
57, 0, 0, 1937.120849609375
58, 0, 0, 1969.015502929688
59, 0, 0, 2008.721313476562
60, 0, 0, 2060.602294921875
61, 0, 0, 2101.8759765625
62, 0, 0, 2152.97021484375
63, 0, 0, 2210.211181640625
64, 0, 0, 2269.46875
65, 0, 0, 2336.32666015625
66, 0, 0, 2412.8505859375
67, 0, 0, 2489.305908203125
68, 0, 0, 2588.5361328125
69, 0, 0, 2696.974609375
70, 0, 0, 2814.3896484375
71, 0, 0, 2972.4072265625
72, 0, 0, 3142.0224609375
73, 0, 0, 3355.8310546875
74, 0, 0, 3651.1181640625
75, 0, 0, 4060.15771484375
76, 0, 0, 4681.01708984375
77, 0, 0, 5527.46142578125
78, 0, 0, 5959.17041015625
79, 0, 0, 5723.7236328125
80, 0, 0, 4517.6103515625
81, 0, 0, 2384.742431640625
82, 0, 0, 907.9627685546875
83, 0, 0, 276.2067260742188
84, 0, 0, 72.65073394775391
85, 0, 0, 50.51592254638672
86, 0, 0, 61.33953094482422
87, 0, 0, 44.54171371459961
88, 0, 0, 44.64931869506836
89, 0, 0, 32.24482727050781
90, 0, 0, 44.67843246459961
91, 0, 0, 36.48196411132812
92, 0, 0, 39.42253494262695
93, 0, 0, 22.49615669250488
94, 0, 0, 23.9859676361084
95, 0, 0, 11.48065567016602
96, 0, 0, 0
97, 0, 0, 0
98, 0, 0, 0
99, 0, 0, 0
100, 0, 0, 0
101, 0, 0, 0
102, 0, 0, 0
103, 0, 0, 0
104, 0, 0, 0
105, 0, 0, 0
106, 0, 0, 0
107, 0, 0, 0.02305560372769833
108, 0, 0, 0
109, 0, 0, 0
110, 0, 0, 0
111, 0, 0, 0
112, 0, 0, 0
113, 0, 0, 0
114, 0, 0, 0
115, 0, 0, 0
116, 0, 0, 0
117, 0, 0, 0
118, 0, 0, 0
119, 0, 0, 0
120, 0, 0, 0
121, 0, 0, 0
122, 0, 0, 0
123, 0, 0, 0
124, 0, 0, 0
125, 0, 0, 0
126, 0, 0, 0
127, 0, 0, 0
128, 0, 0, 0
129, 0, 0, 0
130, 0, 0, 0
131, 0, 0, 0
132, 0, 0, 0
133, 0, 0, 0
134, 0, 0, 0
135, 0, 0, 0
136, 0, 0, 0
137, 0, 0, 0
138, 0, 0, 0
139, 0, 0, 0
140, 0, 0, 0
141, 0, 0, 0
142, 0, 0, 0
143, 0, 0, 0
144, 0, 0, 0
145, 0, 0, 0
146, 0, 0, 0
147, 0, 0, 0
148, 0, 0, 0
149, 0, 0, 0
150, 0, 0, 0
151, 0, 0, 0
152, 0, 0, 0
153, 0, 0, 0
154, 0, 0, 0
155, 0, 0, 0
156, 0, 0, 0
157, 0, 0, 0
158, 0, 0, 0
159, 0, 0, 0
160, 0, 0, 0
161, 0, 0, 0
162, 0, 0, 0
163, 0, 0, 0
164, 0, 0, 0
165, 0, 0, 0
166, 0, 0, 0
167, 0, 0, 0
168, 0, 0, 0
169, 0, 0, 0
170, 0, 0, 0
171, 0, 0, 0
172, 0, 0, 0
173, 0, 0, 0
174, 0, 0, 0
175, 0, 0, 0
176, 0, 0, 0
177, 0, 0, 0
178, 0, 0, 0
179, 0, 0, 0
