# TOPAS Version: 3.3.p1
# Parameter File: Simple_Pattern.txt
# Results for scorer MLIC_Scorer
# Scored in component: MLIC
# X in 180 bins of 0.222222 cm
# Y in 1 bin  of 10 cm
# Z in 1 bin  of 10 cm
# EnergyDeposit ( MeV ) : Sum   
0, 0, 0, 1150.484252929688
1, 0, 0, 1163.090454101562
2, 0, 0, 1157.315063476562
3, 0, 0, 1161.059448242188
4, 0, 0, 1182.879272460938
5, 0, 0, 1182.697387695312
6, 0, 0, 1186.849609375
7, 0, 0, 1187.630004882812
8, 0, 0, 1206.348510742188
9, 0, 0, 1208.86572265625
10, 0, 0, 1218.96875
11, 0, 0, 1222.717651367188
12, 0, 0, 1227.993408203125
13, 0, 0, 1238.045776367188
14, 0, 0, 1243.575073242188
15, 0, 0, 1246.131469726562
16, 0, 0, 1250.974243164062
17, 0, 0, 1263.549560546875
18, 0, 0, 1280.062133789062
19, 0, 0, 1284.349365234375
20, 0, 0, 1283.859985351562
21, 0, 0, 1308.074951171875
22, 0, 0, 1307.864135742188
23, 0, 0, 1314.546752929688
24, 0, 0, 1327.239013671875
25, 0, 0, 1331.2529296875
26, 0, 0, 1343.747924804688
27, 0, 0, 1349.703735351562
28, 0, 0, 1370.208740234375
29, 0, 0, 1378.884155273438
30, 0, 0, 1379.969482421875
31, 0, 0, 1398.462280273438
32, 0, 0, 1410.57861328125
33, 0, 0, 1417.308349609375
34, 0, 0, 1439.0576171875
35, 0, 0, 1454.665283203125
36, 0, 0, 1471.157104492188
37, 0, 0, 1478.119995117188
38, 0, 0, 1490.044067382812
39, 0, 0, 1502.616943359375
40, 0, 0, 1524.453369140625
41, 0, 0, 1540.402099609375
42, 0, 0, 1557.837036132812
43, 0, 0, 1577.347534179688
44, 0, 0, 1597.814086914062
45, 0, 0, 1617.414306640625
46, 0, 0, 1637.50830078125
47, 0, 0, 1651.465209960938
48, 0, 0, 1673.118896484375
49, 0, 0, 1689.304077148438
50, 0, 0, 1728.443481445312
51, 0, 0, 1743.940795898438
52, 0, 0, 1771.786743164062
53, 0, 0, 1801.553588867188
54, 0, 0, 1835.044921875
55, 0, 0, 1863.267578125
56, 0, 0, 1897.820190429688
57, 0, 0, 1926.659790039062
58, 0, 0, 1969.239013671875
59, 0, 0, 2014.434448242188
60, 0, 0, 2058.115478515625
61, 0, 0, 2095.2890625
62, 0, 0, 2150.904052734375
63, 0, 0, 2205.400146484375
64, 0, 0, 2261.4228515625
65, 0, 0, 2335.302490234375
66, 0, 0, 2406.33447265625
67, 0, 0, 2486.23095703125
68, 0, 0, 2578.414306640625
69, 0, 0, 2690.48486328125
70, 0, 0, 2809.155029296875
71, 0, 0, 2955.044189453125
72, 0, 0, 3126.720458984375
73, 0, 0, 3334.427490234375
74, 0, 0, 3619.863037109375
75, 0, 0, 4026.466552734375
76, 0, 0, 4618.78564453125
77, 0, 0, 5311.18994140625
78, 0, 0, 5988.416015625
79, 0, 0, 5974.21728515625
80, 0, 0, 4299.775390625
81, 0, 0, 2615.036865234375
82, 0, 0, 1123.70947265625
83, 0, 0, 295.6691589355469
84, 0, 0, 113.8395004272461
85, 0, 0, 120.0478744506836
86, 0, 0, 83.78598022460938
87, 0, 0, 90.30120849609375
88, 0, 0, 91.42578887939453
89, 0, 0, 97.74679565429688
90, 0, 0, 55.60509490966797
91, 0, 0, 35.98596954345703
92, 0, 0, 33.36567687988281
93, 0, 0, 9.354756355285645
94, 0, 0, 7.001100540161133
95, 0, 0, 0
96, 0, 0, 0
97, 0, 0, 0
98, 0, 0, 0
99, 0, 0, 0
100, 0, 0, 0
101, 0, 0, 0
102, 0, 0, 0
103, 0, 0, 0
104, 0, 0, 0
105, 0, 0, 0
106, 0, 0, 0
107, 0, 0, 0
108, 0, 0, 0
109, 0, 0, 0
110, 0, 0, 0
111, 0, 0, 0
112, 0, 0, 0
113, 0, 0, 0
114, 0, 0, 0
115, 0, 0, 0
116, 0, 0, 0
117, 0, 0, 0
118, 0, 0, 0
119, 0, 0, 0
120, 0, 0, 0
121, 0, 0, 0
122, 0, 0, 0
123, 0, 0, 0
124, 0, 0, 0
125, 0, 0, 0
126, 0, 0, 0
127, 0, 0, 0
128, 0, 0, 0
129, 0, 0, 0
130, 0, 0, 0
131, 0, 0, 0
132, 0, 0, 0
133, 0, 0, 0
134, 0, 0, 0
135, 0, 0, 0
136, 0, 0, 0
137, 0, 0, 0
138, 0, 0, 0
139, 0, 0, 0
140, 0, 0, 0
141, 0, 0, 0.000504978175740689
142, 0, 0, 0
143, 0, 0, 0
144, 0, 0, 0
145, 0, 0, 0
146, 0, 0, 0
147, 0, 0, 0
148, 0, 0, 0
149, 0, 0, 0
150, 0, 0, 0
151, 0, 0, 0
152, 0, 0, 0
153, 0, 0, 0
154, 0, 0, 0
155, 0, 0, 0
156, 0, 0, 0
157, 0, 0, 0
158, 0, 0, 0.002633028198033571
159, 0, 0, 0
160, 0, 0, 0
161, 0, 0, 0
162, 0, 0, 0
163, 0, 0, 0
164, 0, 0, 0
165, 0, 0, 0.006683120038360357
166, 0, 0, 0
167, 0, 0, 0
168, 0, 0, 0
169, 0, 0, 0
170, 0, 0, 0
171, 0, 0, 0
172, 0, 0, 0
173, 0, 0, 0
174, 0, 0, 0
175, 0, 0, 0
176, 0, 0, 0
177, 0, 0, 0
178, 0, 0, 0
179, 0, 0, 0
