# TOPAS Version: 3.3.p1
# Parameter File: Simple_Pattern.txt
# Results for scorer MLIC_Scorer
# Scored in component: MLIC
# X in 165 bins of 0.2 cm
# Y in 1 bin  of 10 cm
# Z in 1 bin  of 10 cm
# EnergyDeposit ( MeV ) : Sum   
0, 0, 0, 984.2344360351562
1, 0, 0, 993.7562866210938
2, 0, 0, 996.2066040039062
3, 0, 0, 1007.015441894531
4, 0, 0, 1010.620666503906
5, 0, 0, 1003.618041992188
6, 0, 0, 1011.613464355469
7, 0, 0, 1017.163146972656
8, 0, 0, 1019.238037109375
9, 0, 0, 1028.920166015625
10, 0, 0, 1028.808471679688
11, 0, 0, 1029.66015625
12, 0, 0, 1035.025512695312
13, 0, 0, 1047.042846679688
14, 0, 0, 1049.426879882812
15, 0, 0, 1055.715698242188
16, 0, 0, 1059.8984375
17, 0, 0, 1055.597412109375
18, 0, 0, 1055.672729492188
19, 0, 0, 1065.369384765625
20, 0, 0, 1076.755493164062
21, 0, 0, 1091.853881835938
22, 0, 0, 1081.98486328125
23, 0, 0, 1102.511596679688
24, 0, 0, 1092.417846679688
25, 0, 0, 1095.48779296875
26, 0, 0, 1116.3896484375
27, 0, 0, 1113.409790039062
28, 0, 0, 1119.018432617188
29, 0, 0, 1127.931274414062
30, 0, 0, 1136.038940429688
31, 0, 0, 1140.361572265625
32, 0, 0, 1146.36474609375
33, 0, 0, 1157.924438476562
34, 0, 0, 1159.70654296875
35, 0, 0, 1169.924560546875
36, 0, 0, 1177.883422851562
37, 0, 0, 1187.743408203125
38, 0, 0, 1192.663208007812
39, 0, 0, 1200.082397460938
40, 0, 0, 1208.67431640625
41, 0, 0, 1217.517211914062
42, 0, 0, 1214.826171875
43, 0, 0, 1231.487915039062
44, 0, 0, 1239.352294921875
45, 0, 0, 1249.30029296875
46, 0, 0, 1247.783325195312
47, 0, 0, 1265.125244140625
48, 0, 0, 1281.243286132812
49, 0, 0, 1286.464599609375
50, 0, 0, 1299.392700195312
51, 0, 0, 1298.915649414062
52, 0, 0, 1320.448974609375
53, 0, 0, 1333.129150390625
54, 0, 0, 1346.267944335938
55, 0, 0, 1349.640258789062
56, 0, 0, 1360.440185546875
57, 0, 0, 1381.452392578125
58, 0, 0, 1399.177734375
59, 0, 0, 1415.57470703125
60, 0, 0, 1424.352783203125
61, 0, 0, 1434.407470703125
62, 0, 0, 1459.110595703125
63, 0, 0, 1469.275268554688
64, 0, 0, 1491.40625
65, 0, 0, 1507.226806640625
66, 0, 0, 1528.731689453125
67, 0, 0, 1538.686645507812
68, 0, 0, 1560.035522460938
69, 0, 0, 1580.207763671875
70, 0, 0, 1608.443969726562
71, 0, 0, 1630.311645507812
72, 0, 0, 1652.316162109375
73, 0, 0, 1674.563598632812
74, 0, 0, 1697.5546875
75, 0, 0, 1728.941772460938
76, 0, 0, 1756.901977539062
77, 0, 0, 1797.331909179688
78, 0, 0, 1827.424072265625
79, 0, 0, 1859.669799804688
80, 0, 0, 1896.651245117188
81, 0, 0, 1947.287353515625
82, 0, 0, 1986.652465820312
83, 0, 0, 2040.163330078125
84, 0, 0, 2088.31787109375
85, 0, 0, 2143.94482421875
86, 0, 0, 2216.662841796875
87, 0, 0, 2286.034423828125
88, 0, 0, 2355.23388671875
89, 0, 0, 2460.058349609375
90, 0, 0, 2564.28125
91, 0, 0, 2680.86181640625
92, 0, 0, 2827.484375
93, 0, 0, 3003.82958984375
94, 0, 0, 3228.03759765625
95, 0, 0, 3506.87158203125
96, 0, 0, 3897.984619140625
97, 0, 0, 4427.234375
98, 0, 0, 5185.88671875
99, 0, 0, 5541.39111328125
100, 0, 0, 5072.8896484375
101, 0, 0, 3756.667724609375
102, 0, 0, 2379.21630859375
103, 0, 0, 1136.1767578125
104, 0, 0, 283.5358581542969
105, 0, 0, 76.14958953857422
106, 0, 0, 61.09812164306641
107, 0, 0, 49.33086776733398
108, 0, 0, 38.71762084960938
109, 0, 0, 38.81205749511719
110, 0, 0, 47.62292861938477
111, 0, 0, 53.71933364868164
112, 0, 0, 22.21422004699707
113, 0, 0, 18.55605125427246
114, 0, 0, 17.97233200073242
115, 0, 0, 10.62904167175293
116, 0, 0, 0
117, 0, 0, 0
118, 0, 0, 0
119, 0, 0, 0
120, 0, 0, 0
121, 0, 0, 0
122, 0, 0, 0
123, 0, 0, 0
124, 0, 0, 0
125, 0, 0, 0
126, 0, 0, 0
127, 0, 0, 0
128, 0, 0, 0
129, 0, 0, 0
130, 0, 0, 0
131, 0, 0, 0
132, 0, 0, 0
133, 0, 0, 0
134, 0, 0, 0
135, 0, 0, 0
136, 0, 0, 0
137, 0, 0, 0
138, 0, 0, 0
139, 0, 0, 0
140, 0, 0, 0
141, 0, 0, 0
142, 0, 0, 0
143, 0, 0, 0
144, 0, 0, 0
145, 0, 0, 0
146, 0, 0, 0
147, 0, 0, 0
148, 0, 0, 0
149, 0, 0, 0
150, 0, 0, 0
151, 0, 0, 0
152, 0, 0, 0
153, 0, 0, 0
154, 0, 0, 0
155, 0, 0, 0
156, 0, 0, 0
157, 0, 0, 0
158, 0, 0, 0
159, 0, 0, 0
160, 0, 0, 0
161, 0, 0, 0
162, 0, 0, 0
163, 0, 0, 0
164, 0, 0, 0
