# TOPAS Version: 3.3.p1
# Parameter File: Simple_Pattern.txt
# Results for scorer MLIC_Scorer
# Scored in component: MLIC
# X in 180 bins of 0.222222 cm
# Y in 1 bin  of 10 cm
# Z in 1 bin  of 10 cm
# EnergyDeposit ( MeV ) : Sum   
0, 0, 0, 38.46046829223633
1, 0, 0, 38.57706069946289
2, 0, 0, 38.41476440429688
3, 0, 0, 38.51923370361328
4, 0, 0, 40.27822875976562
5, 0, 0, 38.72072219848633
6, 0, 0, 38.38097763061523
7, 0, 0, 40.49503707885742
8, 0, 0, 38.47721862792969
9, 0, 0, 39.53513717651367
10, 0, 0, 41.472900390625
11, 0, 0, 39.93848037719727
12, 0, 0, 39.98309326171875
13, 0, 0, 41.05745315551758
14, 0, 0, 40.65261459350586
15, 0, 0, 40.737548828125
16, 0, 0, 42.06960296630859
17, 0, 0, 41.36065673828125
18, 0, 0, 40.57467651367188
19, 0, 0, 41.60602951049805
20, 0, 0, 42.52588653564453
21, 0, 0, 42.02705764770508
22, 0, 0, 42.93697738647461
23, 0, 0, 43.07817459106445
24, 0, 0, 43.36233139038086
25, 0, 0, 44.76110076904297
26, 0, 0, 44.02750015258789
27, 0, 0, 44.97250747680664
28, 0, 0, 43.19598007202148
29, 0, 0, 44.35021591186523
30, 0, 0, 44.14622116088867
31, 0, 0, 43.47173690795898
32, 0, 0, 44.49026107788086
33, 0, 0, 46.15151977539062
34, 0, 0, 46.97578048706055
35, 0, 0, 46.74869155883789
36, 0, 0, 46.16554260253906
37, 0, 0, 46.33849334716797
38, 0, 0, 47.08253860473633
39, 0, 0, 48.02393341064453
40, 0, 0, 48.04013061523438
41, 0, 0, 46.37677001953125
42, 0, 0, 48.63040542602539
43, 0, 0, 49.34251403808594
44, 0, 0, 48.52420806884766
45, 0, 0, 48.74712753295898
46, 0, 0, 50.3036003112793
47, 0, 0, 50.65994644165039
48, 0, 0, 50.74810791015625
49, 0, 0, 52.83071517944336
50, 0, 0, 53.01309967041016
51, 0, 0, 53.0139274597168
52, 0, 0, 54.05596542358398
53, 0, 0, 53.91974258422852
54, 0, 0, 54.1890983581543
55, 0, 0, 54.80958557128906
56, 0, 0, 55.39427947998047
57, 0, 0, 55.34729766845703
58, 0, 0, 55.91473770141602
59, 0, 0, 57.3402099609375
60, 0, 0, 59.21868515014648
61, 0, 0, 59.85213851928711
62, 0, 0, 59.61809158325195
63, 0, 0, 61.27976226806641
64, 0, 0, 61.43064498901367
65, 0, 0, 62.71307373046875
66, 0, 0, 63.87365341186523
67, 0, 0, 64.33165740966797
68, 0, 0, 67.48027038574219
69, 0, 0, 68.48329925537109
70, 0, 0, 69.03494262695312
71, 0, 0, 69.02228546142578
72, 0, 0, 71.51507568359375
73, 0, 0, 74.2054443359375
74, 0, 0, 74.1968994140625
75, 0, 0, 76.48294067382812
76, 0, 0, 80.07072448730469
77, 0, 0, 81.03941345214844
78, 0, 0, 84.06787872314453
79, 0, 0, 85.69536590576172
80, 0, 0, 89.80814361572266
81, 0, 0, 93.57122802734375
82, 0, 0, 97.59318542480469
83, 0, 0, 100.1224212646484
84, 0, 0, 107.8788223266602
85, 0, 0, 115.5882949829102
86, 0, 0, 123.3313522338867
87, 0, 0, 134.7975311279297
88, 0, 0, 151.4046783447266
89, 0, 0, 169.9660949707031
90, 0, 0, 181.2609405517578
91, 0, 0, 228.2792358398438
92, 0, 0, 193.5225524902344
93, 0, 0, 77.30508422851562
94, 0, 0, 63.34158325195312
95, 0, 0, 4.447572708129883
96, 0, 0, 0
97, 0, 0, 0
98, 0, 0, 0
99, 0, 0, 0
100, 0, 0, 0
101, 0, 0, 0
102, 0, 0, 0
103, 0, 0, 0
104, 0, 0, 0
105, 0, 0, 0
106, 0, 0, 0
107, 0, 0, 0
108, 0, 0, 0
109, 0, 0, 0
110, 0, 0, 0
111, 0, 0, 0
112, 0, 0, 0
113, 0, 0, 0
114, 0, 0, 0
115, 0, 0, 0
116, 0, 0, 0
117, 0, 0, 0
118, 0, 0, 0
119, 0, 0, 0
120, 0, 0, 0
121, 0, 0, 0
122, 0, 0, 0
123, 0, 0, 0
124, 0, 0, 0
125, 0, 0, 0
126, 0, 0, 0
127, 0, 0, 0
128, 0, 0, 0
129, 0, 0, 0
130, 0, 0, 0
131, 0, 0, 0
132, 0, 0, 0
133, 0, 0, 0
134, 0, 0, 0
135, 0, 0, 0
136, 0, 0, 0
137, 0, 0, 0
138, 0, 0, 0
139, 0, 0, 0
140, 0, 0, 0
141, 0, 0, 0
142, 0, 0, 0
143, 0, 0, 0
144, 0, 0, 0
145, 0, 0, 0
146, 0, 0, 0
147, 0, 0, 0
148, 0, 0, 0
149, 0, 0, 0
150, 0, 0, 0
151, 0, 0, 0
152, 0, 0, 0
153, 0, 0, 0
154, 0, 0, 0
155, 0, 0, 0
156, 0, 0, 0
157, 0, 0, 0
158, 0, 0, 0
159, 0, 0, 0
160, 0, 0, 0
161, 0, 0, 0
162, 0, 0, 0
163, 0, 0, 0
164, 0, 0, 0
165, 0, 0, 0
166, 0, 0, 0
167, 0, 0, 0
168, 0, 0, 0
169, 0, 0, 0
170, 0, 0, 0
171, 0, 0, 0
172, 0, 0, 0
173, 0, 0, 0
174, 0, 0, 0
175, 0, 0, 0
176, 0, 0, 0
177, 0, 0, 0
178, 0, 0, 0
179, 0, 0, 0
