# TOPAS Version: 3.3.p1
# Parameter File: Simple_Pattern.txt
# Results for scorer MLIC_Scorer
# Scored in component: MLIC
# X in 180 bins of 0.222222 cm
# Y in 1 bin  of 10 cm
# Z in 1 bin  of 10 cm
# EnergyDeposit ( MeV ) : Sum   
0, 0, 0, 35.45592880249023
1, 0, 0, 35.81204605102539
2, 0, 0, 34.96821594238281
3, 0, 0, 35.59443283081055
4, 0, 0, 37.49158477783203
5, 0, 0, 36.83418273925781
6, 0, 0, 35.43032073974609
7, 0, 0, 35.40200805664062
8, 0, 0, 37.50558090209961
9, 0, 0, 37.21532440185547
10, 0, 0, 39.33620834350586
11, 0, 0, 38.15913391113281
12, 0, 0, 37.33449935913086
13, 0, 0, 37.02483749389648
14, 0, 0, 37.92966842651367
15, 0, 0, 37.15314865112305
16, 0, 0, 39.71064758300781
17, 0, 0, 39.45414733886719
18, 0, 0, 37.92599487304688
19, 0, 0, 38.3205451965332
20, 0, 0, 38.89721298217773
21, 0, 0, 41.21422576904297
22, 0, 0, 40.56841278076172
23, 0, 0, 40.29255294799805
24, 0, 0, 41.15265655517578
25, 0, 0, 39.74057388305664
26, 0, 0, 42.7194938659668
27, 0, 0, 39.52305603027344
28, 0, 0, 41.73894500732422
29, 0, 0, 42.20339202880859
30, 0, 0, 42.55946731567383
31, 0, 0, 41.59724807739258
32, 0, 0, 43.52267837524414
33, 0, 0, 41.87282180786133
34, 0, 0, 42.84002685546875
35, 0, 0, 43.03544998168945
36, 0, 0, 43.99830627441406
37, 0, 0, 44.00799560546875
38, 0, 0, 44.96902847290039
39, 0, 0, 44.49968338012695
40, 0, 0, 43.33363342285156
41, 0, 0, 43.89290618896484
42, 0, 0, 44.82706069946289
43, 0, 0, 46.50899505615234
44, 0, 0, 45.66402816772461
45, 0, 0, 45.68660354614258
46, 0, 0, 47.06362152099609
47, 0, 0, 48.64494705200195
48, 0, 0, 47.36946487426758
49, 0, 0, 48.40951538085938
50, 0, 0, 48.5019416809082
51, 0, 0, 50.60494613647461
52, 0, 0, 51.67081069946289
53, 0, 0, 50.24892044067383
54, 0, 0, 51.98212432861328
55, 0, 0, 51.78527069091797
56, 0, 0, 52.66754150390625
57, 0, 0, 53.59373474121094
58, 0, 0, 51.75493240356445
59, 0, 0, 55.40151977539062
60, 0, 0, 54.8341064453125
61, 0, 0, 56.35370635986328
62, 0, 0, 55.50217819213867
63, 0, 0, 55.09160232543945
64, 0, 0, 56.80406188964844
65, 0, 0, 60.0096435546875
66, 0, 0, 58.86297225952148
67, 0, 0, 61.76389312744141
68, 0, 0, 61.71152496337891
69, 0, 0, 63.57613754272461
70, 0, 0, 63.65044021606445
71, 0, 0, 65.56828308105469
72, 0, 0, 66.03456115722656
73, 0, 0, 68.78620147705078
74, 0, 0, 70.07535552978516
75, 0, 0, 72.02713012695312
76, 0, 0, 72.60350799560547
77, 0, 0, 75.63774108886719
78, 0, 0, 78.13727569580078
79, 0, 0, 78.38056182861328
80, 0, 0, 82.04822540283203
81, 0, 0, 84.4718017578125
82, 0, 0, 91.13009643554688
83, 0, 0, 93.39945983886719
84, 0, 0, 98.12553405761719
85, 0, 0, 103.5725250244141
86, 0, 0, 111.9162673950195
87, 0, 0, 119.419548034668
88, 0, 0, 131.8336334228516
89, 0, 0, 151.0891418457031
90, 0, 0, 182.8163757324219
91, 0, 0, 195.7830352783203
92, 0, 0, 187.4602203369141
93, 0, 0, 128.98291015625
94, 0, 0, 87.33950805664062
95, 0, 0, 33.39261245727539
96, 0, 0, 6.224870681762695
97, 0, 0, 0
98, 0, 0, 0
99, 0, 0, 0
100, 0, 0, 0
101, 0, 0, 0
102, 0, 0, 0
103, 0, 0, 0
104, 0, 0, 0
105, 0, 0, 0
106, 0, 0, 0
107, 0, 0, 0
108, 0, 0, 0
109, 0, 0, 0
110, 0, 0, 0
111, 0, 0, 0
112, 0, 0, 0
113, 0, 0, 0
114, 0, 0, 0
115, 0, 0, 0
116, 0, 0, 0
117, 0, 0, 0
118, 0, 0, 0
119, 0, 0, 0
120, 0, 0, 0
121, 0, 0, 0
122, 0, 0, 0
123, 0, 0, 0
124, 0, 0, 0
125, 0, 0, 0
126, 0, 0, 0
127, 0, 0, 0
128, 0, 0, 0
129, 0, 0, 0
130, 0, 0, 0
131, 0, 0, 0
132, 0, 0, 0
133, 0, 0, 0
134, 0, 0, 0
135, 0, 0, 0
136, 0, 0, 0
137, 0, 0, 0
138, 0, 0, 0
139, 0, 0, 0
140, 0, 0, 0
141, 0, 0, 0
142, 0, 0, 0
143, 0, 0, 0
144, 0, 0, 0
145, 0, 0, 0
146, 0, 0, 0
147, 0, 0, 0
148, 0, 0, 0
149, 0, 0, 0
150, 0, 0, 0
151, 0, 0, 0
152, 0, 0, 0
153, 0, 0, 0
154, 0, 0, 0
155, 0, 0, 0
156, 0, 0, 0
157, 0, 0, 0
158, 0, 0, 0
159, 0, 0, 0
160, 0, 0, 0
161, 0, 0, 0
162, 0, 0, 0
163, 0, 0, 0
164, 0, 0, 0
165, 0, 0, 0
166, 0, 0, 0
167, 0, 0, 0
168, 0, 0, 0
169, 0, 0, 0
170, 0, 0, 0
171, 0, 0, 0
172, 0, 0, 0
173, 0, 0, 0
174, 0, 0, 0
175, 0, 0, 0
176, 0, 0, 0
177, 0, 0, 0
178, 0, 0, 0
179, 0, 0, 0
