# TOPAS Version: 3.3.p1
# Parameter File: Simple_Pattern.txt
# Results for scorer MLIC_Scorer
# Scored in component: MLIC
# X in 180 bins of 0.222222 cm
# Y in 1 bin  of 10 cm
# Z in 1 bin  of 10 cm
# EnergyDeposit ( MeV ) : Sum   
0, 0, 0, 1154.255615234375
1, 0, 0, 1150.542846679688
2, 0, 0, 1159.215576171875
3, 0, 0, 1159.698852539062
4, 0, 0, 1175.707763671875
5, 0, 0, 1183.403686523438
6, 0, 0, 1179.378540039062
7, 0, 0, 1195.768432617188
8, 0, 0, 1200.117797851562
9, 0, 0, 1211.299072265625
10, 0, 0, 1214.30859375
11, 0, 0, 1221.64404296875
12, 0, 0, 1227.504638671875
13, 0, 0, 1233.5224609375
14, 0, 0, 1244.717407226562
15, 0, 0, 1249.5009765625
16, 0, 0, 1253.5244140625
17, 0, 0, 1266.861694335938
18, 0, 0, 1283.691650390625
19, 0, 0, 1279.350830078125
20, 0, 0, 1295.69580078125
21, 0, 0, 1301.300659179688
22, 0, 0, 1312.3408203125
23, 0, 0, 1317.525756835938
24, 0, 0, 1324.444946289062
25, 0, 0, 1346.716064453125
26, 0, 0, 1343.488403320312
27, 0, 0, 1359.06982421875
28, 0, 0, 1371.809326171875
29, 0, 0, 1389.232666015625
30, 0, 0, 1388.859741210938
31, 0, 0, 1408.107055664062
32, 0, 0, 1416.166015625
33, 0, 0, 1421.340698242188
34, 0, 0, 1444.889404296875
35, 0, 0, 1449.814453125
36, 0, 0, 1466.924438476562
37, 0, 0, 1478.949096679688
38, 0, 0, 1498.904663085938
39, 0, 0, 1515.394897460938
40, 0, 0, 1526.495483398438
41, 0, 0, 1546.806518554688
42, 0, 0, 1558.185791015625
43, 0, 0, 1574.056274414062
44, 0, 0, 1591.12451171875
45, 0, 0, 1616.438842773438
46, 0, 0, 1638.930297851562
47, 0, 0, 1653.9560546875
48, 0, 0, 1673.8701171875
49, 0, 0, 1698.980712890625
50, 0, 0, 1726.688354492188
51, 0, 0, 1738.0029296875
52, 0, 0, 1781.202514648438
53, 0, 0, 1805.987915039062
54, 0, 0, 1835.728759765625
55, 0, 0, 1871.718383789062
56, 0, 0, 1900.055053710938
57, 0, 0, 1939.564453125
58, 0, 0, 1980.899047851562
59, 0, 0, 2013.162231445312
60, 0, 0, 2063.062744140625
61, 0, 0, 2108.57177734375
62, 0, 0, 2157.5927734375
63, 0, 0, 2207.05859375
64, 0, 0, 2272.7158203125
65, 0, 0, 2340.1904296875
66, 0, 0, 2414.996826171875
67, 0, 0, 2502.169921875
68, 0, 0, 2594.670166015625
69, 0, 0, 2696.834228515625
70, 0, 0, 2818.89794921875
71, 0, 0, 2972.3310546875
72, 0, 0, 3137.451904296875
73, 0, 0, 3351.347412109375
74, 0, 0, 3639.33740234375
75, 0, 0, 4035.25634765625
76, 0, 0, 4581.216796875
77, 0, 0, 5364.55078125
78, 0, 0, 6204.208984375
79, 0, 0, 6008.85107421875
80, 0, 0, 4807.66845703125
81, 0, 0, 2466.111572265625
82, 0, 0, 823.2493286132812
83, 0, 0, 187.3956909179688
84, 0, 0, 25.6860179901123
85, 0, 0, 0
86, 0, 0, 0
87, 0, 0, 0.0009116175933741033
88, 0, 0, 0.002839285414665937
89, 0, 0, 0
90, 0, 0, 0
91, 0, 0, 0
92, 0, 0, 0
93, 0, 0, 0.00412000622600317
94, 0, 0, 0
95, 0, 0, 0
96, 0, 0, 0
97, 0, 0, 0
98, 0, 0, 0.0004913570592179894
99, 0, 0, 0
100, 0, 0, 0
101, 0, 0, 0
102, 0, 0, 0
103, 0, 0, 0
104, 0, 0, 0
105, 0, 0, 0
106, 0, 0, 0
107, 0, 0, 0
108, 0, 0, 0
109, 0, 0, 0
110, 0, 0, 0
111, 0, 0, 0
112, 0, 0, 0
113, 0, 0, 0
114, 0, 0, 0
115, 0, 0, 0
116, 0, 0, 0
117, 0, 0, 0
118, 0, 0, 0
119, 0, 0, 0
120, 0, 0, 0
121, 0, 0, 0
122, 0, 0, 0.0002815681509673595
123, 0, 0, 0
124, 0, 0, 0
125, 0, 0, 0
126, 0, 0, 0
127, 0, 0, 0
128, 0, 0, 0
129, 0, 0, 0
130, 0, 0, 0
131, 0, 0, 0
132, 0, 0, 0
133, 0, 0, 0
134, 0, 0, 0
135, 0, 0, 0
136, 0, 0, 0
137, 0, 0, 0
138, 0, 0, 0
139, 0, 0, 0
140, 0, 0, 0
141, 0, 0, 0
142, 0, 0, 0
143, 0, 0, 0
144, 0, 0, 0
145, 0, 0, 0
146, 0, 0, 0
147, 0, 0, 0
148, 0, 0, 0
149, 0, 0, 0
150, 0, 0, 0
151, 0, 0, 0
152, 0, 0, 0
153, 0, 0, 0
154, 0, 0, 0
155, 0, 0, 0
156, 0, 0, 0
157, 0, 0, 0
158, 0, 0, 0
159, 0, 0, 0
160, 0, 0, 0
161, 0, 0, 0
162, 0, 0, 0
163, 0, 0, 0
164, 0, 0, 0
165, 0, 0, 0
166, 0, 0, 0
167, 0, 0, 0
168, 0, 0, 0
169, 0, 0, 0
170, 0, 0, 0
171, 0, 0, 0
172, 0, 0, 0
173, 0, 0, 0
174, 0, 0, 0
175, 0, 0, 0
176, 0, 0, 0
177, 0, 0, 0
178, 0, 0, 0
179, 0, 0, 0
