# TOPAS Version: 3.3.p1
# Parameter File: Simple_Pattern.txt
# Results for scorer MLIC_Scorer
# Scored in component: MLIC
# X in 165 bins of 0.2 cm
# Y in 1 bin  of 10 cm
# Z in 1 bin  of 10 cm
# EnergyDeposit ( MeV ) : Sum   
0, 0, 0, 939.8682861328125
1, 0, 0, 938.0983276367188
2, 0, 0, 952.6383056640625
3, 0, 0, 945.0692138671875
4, 0, 0, 951.7335205078125
5, 0, 0, 951.9276123046875
6, 0, 0, 958.4718627929688
7, 0, 0, 962.9740600585938
8, 0, 0, 957.9487915039062
9, 0, 0, 960.7737426757812
10, 0, 0, 971.4857177734375
11, 0, 0, 978.8214111328125
12, 0, 0, 979.2994384765625
13, 0, 0, 980.2716064453125
14, 0, 0, 987.2418823242188
15, 0, 0, 987.2455444335938
16, 0, 0, 990.7819213867188
17, 0, 0, 996.9322509765625
18, 0, 0, 1006.816467285156
19, 0, 0, 1006.858764648438
20, 0, 0, 1014.256591796875
21, 0, 0, 1018.710754394531
22, 0, 0, 1011.6875
23, 0, 0, 1016.963317871094
24, 0, 0, 1034.226806640625
25, 0, 0, 1028.750122070312
26, 0, 0, 1026.911376953125
27, 0, 0, 1035.660522460938
28, 0, 0, 1046.419067382812
29, 0, 0, 1056.02001953125
30, 0, 0, 1047.81005859375
31, 0, 0, 1055.76708984375
32, 0, 0, 1062.779663085938
33, 0, 0, 1069.261352539062
34, 0, 0, 1074.693115234375
35, 0, 0, 1073.27783203125
36, 0, 0, 1091.040283203125
37, 0, 0, 1094.509765625
38, 0, 0, 1095.875366210938
39, 0, 0, 1102.85009765625
40, 0, 0, 1110.563110351562
41, 0, 0, 1108.276733398438
42, 0, 0, 1125.589111328125
43, 0, 0, 1120.5439453125
44, 0, 0, 1132.513671875
45, 0, 0, 1133.956909179688
46, 0, 0, 1142.620239257812
47, 0, 0, 1153.078369140625
48, 0, 0, 1161.028076171875
49, 0, 0, 1163.55810546875
50, 0, 0, 1177.965087890625
51, 0, 0, 1178.85498046875
52, 0, 0, 1190.481323242188
53, 0, 0, 1196.265869140625
54, 0, 0, 1211.886474609375
55, 0, 0, 1214.005859375
56, 0, 0, 1221.136840820312
57, 0, 0, 1230.272094726562
58, 0, 0, 1238.522583007812
59, 0, 0, 1244.78466796875
60, 0, 0, 1261.791259765625
61, 0, 0, 1262.291259765625
62, 0, 0, 1271.519287109375
63, 0, 0, 1283.994506835938
64, 0, 0, 1292.217895507812
65, 0, 0, 1298.374389648438
66, 0, 0, 1314.638549804688
67, 0, 0, 1326.539306640625
68, 0, 0, 1344.92041015625
69, 0, 0, 1349.052612304688
70, 0, 0, 1359.716186523438
71, 0, 0, 1380.506713867188
72, 0, 0, 1389.6484375
73, 0, 0, 1402.634643554688
74, 0, 0, 1414.396484375
75, 0, 0, 1435.478393554688
76, 0, 0, 1445.663696289062
77, 0, 0, 1464.047729492188
78, 0, 0, 1486.367797851562
79, 0, 0, 1489.610473632812
80, 0, 0, 1513.9189453125
81, 0, 0, 1537.616088867188
82, 0, 0, 1556.94189453125
83, 0, 0, 1572.1103515625
84, 0, 0, 1598.370727539062
85, 0, 0, 1621.951293945312
86, 0, 0, 1643.074584960938
87, 0, 0, 1675.01611328125
88, 0, 0, 1692.314819335938
89, 0, 0, 1727.3359375
90, 0, 0, 1745.235717773438
91, 0, 0, 1784.655639648438
92, 0, 0, 1820.972534179688
93, 0, 0, 1850.57568359375
94, 0, 0, 1883.917358398438
95, 0, 0, 1924.881469726562
96, 0, 0, 1976.85302734375
97, 0, 0, 2018.526123046875
98, 0, 0, 2061.525390625
99, 0, 0, 2127.825927734375
100, 0, 0, 2181.85009765625
101, 0, 0, 2262.051025390625
102, 0, 0, 2333.640625
103, 0, 0, 2423.101318359375
104, 0, 0, 2520.479248046875
105, 0, 0, 2639.583740234375
106, 0, 0, 2780.104248046875
107, 0, 0, 2929.90234375
108, 0, 0, 3135.9638671875
109, 0, 0, 3405.920654296875
110, 0, 0, 3780.322509765625
111, 0, 0, 4306.78515625
112, 0, 0, 4749.1171875
113, 0, 0, 5426.01123046875
114, 0, 0, 5307.35693359375
115, 0, 0, 4445.955078125
116, 0, 0, 2995.90771484375
117, 0, 0, 1614.100830078125
118, 0, 0, 505.444580078125
119, 0, 0, 101.7566604614258
120, 0, 0, 25.64871978759766
121, 0, 0, 0
122, 0, 0, 0
123, 0, 0, 0
124, 0, 0, 0
125, 0, 0, 0
126, 0, 0, 0
127, 0, 0, 0
128, 0, 0, 0
129, 0, 0, 0
130, 0, 0, 0
131, 0, 0, 0
132, 0, 0, 0
133, 0, 0, 0
134, 0, 0, 0
135, 0, 0, 0
136, 0, 0, 0
137, 0, 0, 0
138, 0, 0, 0
139, 0, 0, 0
140, 0, 0, 0
141, 0, 0, 0
142, 0, 0, 0
143, 0, 0, 0
144, 0, 0, 0
145, 0, 0, 0
146, 0, 0, 0
147, 0, 0, 0
148, 0, 0, 0
149, 0, 0, 0
150, 0, 0, 0
151, 0, 0, 0
152, 0, 0, 0
153, 0, 0, 0
154, 0, 0, 0
155, 0, 0, 0
156, 0, 0, 0
157, 0, 0, 0
158, 0, 0, 0
159, 0, 0, 0
160, 0, 0, 0
161, 0, 0, 0
162, 0, 0, 0
163, 0, 0, 0
164, 0, 0, 0
