# TOPAS Version: 3.3.p1
# Parameter File: Simple_Pattern.txt
# Results for scorer MLIC_Scorer
# Scored in component: MLIC
# X in 180 bins of 0.222222 cm
# Y in 1 bin  of 10 cm
# Z in 1 bin  of 10 cm
# EnergyDeposit ( MeV ) : Sum   
0, 0, 0, 1085.328369140625
1, 0, 0, 1091.362670898438
2, 0, 0, 1091.660400390625
3, 0, 0, 1101.944946289062
4, 0, 0, 1104.5556640625
5, 0, 0, 1106.322387695312
6, 0, 0, 1109.1015625
7, 0, 0, 1121.484985351562
8, 0, 0, 1129.583862304688
9, 0, 0, 1129.844116210938
10, 0, 0, 1129.923583984375
11, 0, 0, 1135.788818359375
12, 0, 0, 1143.546508789062
13, 0, 0, 1150.211669921875
14, 0, 0, 1157.963500976562
15, 0, 0, 1175.448608398438
16, 0, 0, 1174.412841796875
17, 0, 0, 1177.307373046875
18, 0, 0, 1179.806030273438
19, 0, 0, 1195.569702148438
20, 0, 0, 1193.122680664062
21, 0, 0, 1208.735595703125
22, 0, 0, 1210.346435546875
23, 0, 0, 1215.592529296875
24, 0, 0, 1212.127197265625
25, 0, 0, 1230.54736328125
26, 0, 0, 1238.846313476562
27, 0, 0, 1238.058349609375
28, 0, 0, 1245.66552734375
29, 0, 0, 1252.40576171875
30, 0, 0, 1261.505981445312
31, 0, 0, 1273.607299804688
32, 0, 0, 1288.209106445312
33, 0, 0, 1292.775512695312
34, 0, 0, 1299.790649414062
35, 0, 0, 1312.0478515625
36, 0, 0, 1319.759765625
37, 0, 0, 1325.250854492188
38, 0, 0, 1338.339111328125
39, 0, 0, 1345.587158203125
40, 0, 0, 1358.632568359375
41, 0, 0, 1369.531372070312
42, 0, 0, 1381.203002929688
43, 0, 0, 1393.649169921875
44, 0, 0, 1405.1923828125
45, 0, 0, 1420.181396484375
46, 0, 0, 1428.0830078125
47, 0, 0, 1435.01513671875
48, 0, 0, 1458.120849609375
49, 0, 0, 1474.325317382812
50, 0, 0, 1483.867065429688
51, 0, 0, 1494.956176757812
52, 0, 0, 1518.974243164062
53, 0, 0, 1528.432495117188
54, 0, 0, 1545.764282226562
55, 0, 0, 1564.241088867188
56, 0, 0, 1584.762817382812
57, 0, 0, 1599.333374023438
58, 0, 0, 1622.110229492188
59, 0, 0, 1629.947265625
60, 0, 0, 1660.44140625
61, 0, 0, 1692.866821289062
62, 0, 0, 1695.517578125
63, 0, 0, 1727.082763671875
64, 0, 0, 1748.801391601562
65, 0, 0, 1776.872680664062
66, 0, 0, 1807.2734375
67, 0, 0, 1841.733032226562
68, 0, 0, 1868.552856445312
69, 0, 0, 1902.658935546875
70, 0, 0, 1935.936157226562
71, 0, 0, 1976.353149414062
72, 0, 0, 2018.50244140625
73, 0, 0, 2061.74609375
74, 0, 0, 2105.818603515625
75, 0, 0, 2159.89013671875
76, 0, 0, 2208.788330078125
77, 0, 0, 2273.64404296875
78, 0, 0, 2326.892822265625
79, 0, 0, 2405.34716796875
80, 0, 0, 2493.4931640625
81, 0, 0, 2584.7822265625
82, 0, 0, 2690.43896484375
83, 0, 0, 2807.62744140625
84, 0, 0, 2964.134765625
85, 0, 0, 3133.86474609375
86, 0, 0, 3352.3193359375
87, 0, 0, 3635.297119140625
88, 0, 0, 4035.74658203125
89, 0, 0, 4676.53466796875
90, 0, 0, 5580.92626953125
91, 0, 0, 6254.6767578125
92, 0, 0, 5749.14501953125
93, 0, 0, 4154.60107421875
94, 0, 0, 2144.567138671875
95, 0, 0, 782.7177734375
96, 0, 0, 150.8038482666016
97, 0, 0, 31.9692497253418
98, 0, 0, 0.0257043968886137
99, 0, 0, 0.0158747062087059
100, 0, 0, 0
101, 0, 0, 0
102, 0, 0, 0
103, 0, 0, 0
104, 0, 0, 0
105, 0, 0, 0
106, 0, 0, 0
107, 0, 0, 0
108, 0, 0, 0
109, 0, 0, 0
110, 0, 0, 0
111, 0, 0, 0
112, 0, 0, 0
113, 0, 0, 0
114, 0, 0, 0
115, 0, 0, 0
116, 0, 0, 0
117, 0, 0, 0
118, 0, 0, 0
119, 0, 0, 0
120, 0, 0, 0
121, 0, 0, 0
122, 0, 0, 0
123, 0, 0, 0
124, 0, 0, 0
125, 0, 0, 0
126, 0, 0, 0
127, 0, 0, 0
128, 0, 0, 0
129, 0, 0, 0
130, 0, 0, 0
131, 0, 0, 0
132, 0, 0, 0
133, 0, 0, 0
134, 0, 0, 0
135, 0, 0, 0
136, 0, 0, 0
137, 0, 0, 0
138, 0, 0, 0
139, 0, 0, 0
140, 0, 0, 0
141, 0, 0, 0
142, 0, 0, 0
143, 0, 0, 0
144, 0, 0, 0
145, 0, 0, 0
146, 0, 0, 0
147, 0, 0, 0
148, 0, 0, 0
149, 0, 0, 0
150, 0, 0, 0
151, 0, 0, 0
152, 0, 0, 0
153, 0, 0, 0
154, 0, 0, 0
155, 0, 0, 0
156, 0, 0, 0
157, 0, 0, 0
158, 0, 0, 0
159, 0, 0, 0
160, 0, 0, 0
161, 0, 0, 0
162, 0, 0, 0
163, 0, 0, 0
164, 0, 0, 0
165, 0, 0, 0
166, 0, 0, 0
167, 0, 0, 0
168, 0, 0, 0
169, 0, 0, 0
170, 0, 0, 0
171, 0, 0, 0
172, 0, 0, 0
173, 0, 0, 0
174, 0, 0, 0
175, 0, 0, 0
176, 0, 0, 0
177, 0, 0, 0
178, 0, 0, 0
179, 0, 0, 0
