# TOPAS Version: 3.3.p1
# Parameter File: Simple_Pattern.txt
# Results for scorer MLIC_Scorer
# Scored in component: MLIC
# X in 165 bins of 0.2 cm
# Y in 1 bin  of 10 cm
# Z in 1 bin  of 10 cm
# EnergyDeposit ( MeV ) : Sum   
0, 0, 0, 939.9613037109375
1, 0, 0, 939.6754760742188
2, 0, 0, 945.2611694335938
3, 0, 0, 950.8408813476562
4, 0, 0, 952.0738525390625
5, 0, 0, 964.0631713867188
6, 0, 0, 958.5697631835938
7, 0, 0, 957.7664794921875
8, 0, 0, 966.8081665039062
9, 0, 0, 973.4200439453125
10, 0, 0, 971.75634765625
11, 0, 0, 975.3125610351562
12, 0, 0, 981.885009765625
13, 0, 0, 977.4502563476562
14, 0, 0, 984.3524780273438
15, 0, 0, 993.2911987304688
16, 0, 0, 997.478271484375
17, 0, 0, 997.140625
18, 0, 0, 993.8867797851562
19, 0, 0, 1012.765991210938
20, 0, 0, 1005.763610839844
21, 0, 0, 1020.632507324219
22, 0, 0, 1019.848388671875
23, 0, 0, 1018.360290527344
24, 0, 0, 1026.28662109375
25, 0, 0, 1037.7021484375
26, 0, 0, 1037.845703125
27, 0, 0, 1036.396606445312
28, 0, 0, 1045.511352539062
29, 0, 0, 1046.823486328125
30, 0, 0, 1046.885009765625
31, 0, 0, 1061.720458984375
32, 0, 0, 1067.017944335938
33, 0, 0, 1074.691772460938
34, 0, 0, 1079.2705078125
35, 0, 0, 1080.729736328125
36, 0, 0, 1080.820190429688
37, 0, 0, 1094.041259765625
38, 0, 0, 1093.554809570312
39, 0, 0, 1098.287719726562
40, 0, 0, 1104.788208007812
41, 0, 0, 1118.706909179688
42, 0, 0, 1124.651000976562
43, 0, 0, 1118.455200195312
44, 0, 0, 1129.402099609375
45, 0, 0, 1139.1044921875
46, 0, 0, 1146.289306640625
47, 0, 0, 1156.704467773438
48, 0, 0, 1158.315673828125
49, 0, 0, 1169.8984375
50, 0, 0, 1168.846435546875
51, 0, 0, 1188.25634765625
52, 0, 0, 1182.096557617188
53, 0, 0, 1202.767578125
54, 0, 0, 1209.478637695312
55, 0, 0, 1213.038452148438
56, 0, 0, 1227.827880859375
57, 0, 0, 1232.03125
58, 0, 0, 1244.71728515625
59, 0, 0, 1238.997192382812
60, 0, 0, 1257.513427734375
61, 0, 0, 1264.393432617188
62, 0, 0, 1280.12646484375
63, 0, 0, 1286.791625976562
64, 0, 0, 1303.228271484375
65, 0, 0, 1313.828247070312
66, 0, 0, 1313.25244140625
67, 0, 0, 1329.793090820312
68, 0, 0, 1344.896362304688
69, 0, 0, 1348.10498046875
70, 0, 0, 1372.939086914062
71, 0, 0, 1383.290405273438
72, 0, 0, 1386.323364257812
73, 0, 0, 1404.318237304688
74, 0, 0, 1419.858032226562
75, 0, 0, 1433.952880859375
76, 0, 0, 1457.613037109375
77, 0, 0, 1467.204467773438
78, 0, 0, 1480.377563476562
79, 0, 0, 1503.105346679688
80, 0, 0, 1518.99169921875
81, 0, 0, 1538.50341796875
82, 0, 0, 1562.293090820312
83, 0, 0, 1571.487915039062
84, 0, 0, 1600.375366210938
85, 0, 0, 1623.199951171875
86, 0, 0, 1644.010986328125
87, 0, 0, 1672.23828125
88, 0, 0, 1698.666137695312
89, 0, 0, 1726.614501953125
90, 0, 0, 1756.952758789062
91, 0, 0, 1783.400268554688
92, 0, 0, 1814.929443359375
93, 0, 0, 1855.175048828125
94, 0, 0, 1890.373901367188
95, 0, 0, 1933.0341796875
96, 0, 0, 1989.069213867188
97, 0, 0, 2033.120239257812
98, 0, 0, 2078.10546875
99, 0, 0, 2141.410888671875
100, 0, 0, 2201.8193359375
101, 0, 0, 2268.35009765625
102, 0, 0, 2356.064697265625
103, 0, 0, 2441.6435546875
104, 0, 0, 2539.673828125
105, 0, 0, 2656.826171875
106, 0, 0, 2794.375732421875
107, 0, 0, 2956.58447265625
108, 0, 0, 3171.828369140625
109, 0, 0, 3473.090576171875
110, 0, 0, 3825.8271484375
111, 0, 0, 4274.6083984375
112, 0, 0, 4901.775390625
113, 0, 0, 5401.4453125
114, 0, 0, 5451.9443359375
115, 0, 0, 4483.77783203125
116, 0, 0, 2621.1259765625
117, 0, 0, 1171.315551757812
118, 0, 0, 391.8746337890625
119, 0, 0, 86.47698974609375
120, 0, 0, 19.16806793212891
121, 0, 0, 0
122, 0, 0, 0.02949513867497444
123, 0, 0, 0
124, 0, 0, 0.007941634394228458
125, 0, 0, 0
126, 0, 0, 0
127, 0, 0, 0.005927017889916897
128, 0, 0, 0
129, 0, 0, 0
130, 0, 0, 0
131, 0, 0, 0
132, 0, 0, 0.0296416413038969
133, 0, 0, 0
134, 0, 0, 0
135, 0, 0, 0
136, 0, 0, 0
137, 0, 0, 0
138, 0, 0, 0
139, 0, 0, 0
140, 0, 0, 0
141, 0, 0, 0
142, 0, 0, 0
143, 0, 0, 0
144, 0, 0, 0
145, 0, 0, 0
146, 0, 0, 0
147, 0, 0, 0
148, 0, 0, 0
149, 0, 0, 0
150, 0, 0, 0
151, 0, 0, 0
152, 0, 0, 0
153, 0, 0, 0
154, 0, 0, 0
155, 0, 0, 0
156, 0, 0, 0
157, 0, 0, 0
158, 0, 0, 0
159, 0, 0, 0
160, 0, 0, 0
161, 0, 0, 0
162, 0, 0, 0
163, 0, 0, 0
164, 0, 0, 0
