# TOPAS Version: 3.3.p1
# Parameter File: Simple_Pattern.txt
# Results for scorer MLIC_Scorer
# Scored in component: MLIC
# X in 180 bins of 0.222222 cm
# Y in 1 bin  of 10 cm
# Z in 1 bin  of 10 cm
# EnergyDeposit ( MeV ) : Sum   
0, 0, 0, 44.01031875610352
1, 0, 0, 45.75394058227539
2, 0, 0, 45.05948257446289
3, 0, 0, 45.89037704467773
4, 0, 0, 45.72552871704102
5, 0, 0, 45.40522384643555
6, 0, 0, 45.60326385498047
7, 0, 0, 47.33307647705078
8, 0, 0, 46.40017318725586
9, 0, 0, 46.55908966064453
10, 0, 0, 47.70859909057617
11, 0, 0, 47.65317535400391
12, 0, 0, 47.84749221801758
13, 0, 0, 46.63465881347656
14, 0, 0, 45.79773330688477
15, 0, 0, 47.65285110473633
16, 0, 0, 47.53261947631836
17, 0, 0, 48.68672561645508
18, 0, 0, 48.05390167236328
19, 0, 0, 48.29921340942383
20, 0, 0, 48.76702117919922
21, 0, 0, 49.66529083251953
22, 0, 0, 49.82403945922852
23, 0, 0, 50.39541244506836
24, 0, 0, 50.47789764404297
25, 0, 0, 48.5853157043457
26, 0, 0, 50.19195938110352
27, 0, 0, 51.46506881713867
28, 0, 0, 52.50721740722656
29, 0, 0, 52.18618011474609
30, 0, 0, 51.27749252319336
31, 0, 0, 52.14159393310547
32, 0, 0, 52.4175910949707
33, 0, 0, 52.57340240478516
34, 0, 0, 53.59244918823242
35, 0, 0, 53.33977508544922
36, 0, 0, 55.5283317565918
37, 0, 0, 53.36242294311523
38, 0, 0, 53.54312133789062
39, 0, 0, 55.42888259887695
40, 0, 0, 57.38776016235352
41, 0, 0, 55.62250137329102
42, 0, 0, 57.18988418579102
43, 0, 0, 56.96574783325195
44, 0, 0, 56.60709762573242
45, 0, 0, 59.60996627807617
46, 0, 0, 58.78171920776367
47, 0, 0, 60.23080825805664
48, 0, 0, 60.98777389526367
49, 0, 0, 60.56514739990234
50, 0, 0, 61.25696182250977
51, 0, 0, 63.03349304199219
52, 0, 0, 63.02313613891602
53, 0, 0, 62.89754867553711
54, 0, 0, 64.90070343017578
55, 0, 0, 64.66268157958984
56, 0, 0, 64.60267639160156
57, 0, 0, 65.85191345214844
58, 0, 0, 66.89555358886719
59, 0, 0, 66.98835754394531
60, 0, 0, 67.41220092773438
61, 0, 0, 68.9312744140625
62, 0, 0, 68.5726318359375
63, 0, 0, 70.60628509521484
64, 0, 0, 71.21975708007812
65, 0, 0, 73.54075622558594
66, 0, 0, 75.15776062011719
67, 0, 0, 74.97322845458984
68, 0, 0, 76.71150970458984
69, 0, 0, 76.48706817626953
70, 0, 0, 78.21647644042969
71, 0, 0, 77.44687652587891
72, 0, 0, 81.55381011962891
73, 0, 0, 83.25888824462891
74, 0, 0, 84.22205352783203
75, 0, 0, 87.05979919433594
76, 0, 0, 89.21566772460938
77, 0, 0, 90.59926605224609
78, 0, 0, 93.64875030517578
79, 0, 0, 96.3846435546875
80, 0, 0, 98.85551452636719
81, 0, 0, 103.5947647094727
82, 0, 0, 108.5686264038086
83, 0, 0, 114.1769409179688
84, 0, 0, 118.0620422363281
85, 0, 0, 126.1184997558594
86, 0, 0, 135.2958679199219
87, 0, 0, 145.4546051025391
88, 0, 0, 162.8517303466797
89, 0, 0, 189.9986572265625
90, 0, 0, 222.9404754638672
91, 0, 0, 223.9638061523438
92, 0, 0, 250.8428497314453
93, 0, 0, 167.7607727050781
94, 0, 0, 97.55108642578125
95, 0, 0, 46.84965896606445
96, 0, 0, 0
97, 0, 0, 0
98, 0, 0, 0
99, 0, 0, 0
100, 0, 0, 0
101, 0, 0, 0
102, 0, 0, 0
103, 0, 0, 0
104, 0, 0, 0
105, 0, 0, 0
106, 0, 0, 0
107, 0, 0, 0
108, 0, 0, 0
109, 0, 0, 0
110, 0, 0, 0
111, 0, 0, 0
112, 0, 0, 0
113, 0, 0, 0
114, 0, 0, 0
115, 0, 0, 0
116, 0, 0, 0
117, 0, 0, 0
118, 0, 0, 0
119, 0, 0, 0
120, 0, 0, 0
121, 0, 0, 0
122, 0, 0, 0
123, 0, 0, 0
124, 0, 0, 0
125, 0, 0, 0
126, 0, 0, 0
127, 0, 0, 0
128, 0, 0, 0
129, 0, 0, 0
130, 0, 0, 0
131, 0, 0, 0
132, 0, 0, 0
133, 0, 0, 0
134, 0, 0, 0
135, 0, 0, 0
136, 0, 0, 0
137, 0, 0, 0
138, 0, 0, 0
139, 0, 0, 0
140, 0, 0, 0
141, 0, 0, 0
142, 0, 0, 0
143, 0, 0, 0
144, 0, 0, 0
145, 0, 0, 0
146, 0, 0, 0
147, 0, 0, 0
148, 0, 0, 0
149, 0, 0, 0
150, 0, 0, 0
151, 0, 0, 0
152, 0, 0, 0
153, 0, 0, 0
154, 0, 0, 0
155, 0, 0, 0
156, 0, 0, 0
157, 0, 0, 0
158, 0, 0, 0
159, 0, 0, 0
160, 0, 0, 0
161, 0, 0, 0
162, 0, 0, 0
163, 0, 0, 0
164, 0, 0, 0
165, 0, 0, 0
166, 0, 0, 0
167, 0, 0, 0
168, 0, 0, 0
169, 0, 0, 0
170, 0, 0, 0
171, 0, 0, 0
172, 0, 0, 0
173, 0, 0, 0
174, 0, 0, 0
175, 0, 0, 0
176, 0, 0, 0
177, 0, 0, 0
178, 0, 0, 0
179, 0, 0, 0
