# TOPAS Version: 3.3.p1
# Parameter File: Simple_Pattern.txt
# Results for scorer MLIC_Scorer
# Scored in component: MLIC
# X in 180 bins of 0.222222 cm
# Y in 1 bin  of 10 cm
# Z in 1 bin  of 10 cm
# EnergyDeposit ( MeV ) : Sum   
0, 0, 0, 1089.795288085938
1, 0, 0, 1090.287475585938
2, 0, 0, 1095.541137695312
3, 0, 0, 1097.630126953125
4, 0, 0, 1097.58203125
5, 0, 0, 1118.144287109375
6, 0, 0, 1116.115600585938
7, 0, 0, 1131.950073242188
8, 0, 0, 1125.097778320312
9, 0, 0, 1128.300659179688
10, 0, 0, 1136.000854492188
11, 0, 0, 1137.046508789062
12, 0, 0, 1149.83837890625
13, 0, 0, 1153.499633789062
14, 0, 0, 1156.736328125
15, 0, 0, 1166.1962890625
16, 0, 0, 1165.79296875
17, 0, 0, 1172.501220703125
18, 0, 0, 1183.114624023438
19, 0, 0, 1192.913330078125
20, 0, 0, 1189.659912109375
21, 0, 0, 1200.769287109375
22, 0, 0, 1200.147827148438
23, 0, 0, 1216.18408203125
24, 0, 0, 1221.759033203125
25, 0, 0, 1228.373291015625
26, 0, 0, 1238.352783203125
27, 0, 0, 1238.553833007812
28, 0, 0, 1253.293823242188
29, 0, 0, 1262.907470703125
30, 0, 0, 1264.056274414062
31, 0, 0, 1267.364868164062
32, 0, 0, 1292.843872070312
33, 0, 0, 1288.162109375
34, 0, 0, 1295.735595703125
35, 0, 0, 1304.375854492188
36, 0, 0, 1316.668701171875
37, 0, 0, 1319.464111328125
38, 0, 0, 1330.241333007812
39, 0, 0, 1344.481567382812
40, 0, 0, 1350.628051757812
41, 0, 0, 1367.431396484375
42, 0, 0, 1378.591796875
43, 0, 0, 1397.718017578125
44, 0, 0, 1398.609252929688
45, 0, 0, 1417.70703125
46, 0, 0, 1424.332763671875
47, 0, 0, 1444.185180664062
48, 0, 0, 1449.40087890625
49, 0, 0, 1469.08935546875
50, 0, 0, 1472.744018554688
51, 0, 0, 1490.636352539062
52, 0, 0, 1501.286865234375
53, 0, 0, 1515.60791015625
54, 0, 0, 1543.83447265625
55, 0, 0, 1563.535034179688
56, 0, 0, 1574.692016601562
57, 0, 0, 1592.30224609375
58, 0, 0, 1609.400634765625
59, 0, 0, 1634.662719726562
60, 0, 0, 1659.15966796875
61, 0, 0, 1679.923828125
62, 0, 0, 1692.322143554688
63, 0, 0, 1720.501342773438
64, 0, 0, 1742.290283203125
65, 0, 0, 1770.5078125
66, 0, 0, 1800.119750976562
67, 0, 0, 1829.45703125
68, 0, 0, 1853.201171875
69, 0, 0, 1892.587646484375
70, 0, 0, 1917.350341796875
71, 0, 0, 1961.809814453125
72, 0, 0, 2004.920288085938
73, 0, 0, 2052.13720703125
74, 0, 0, 2092.26904296875
75, 0, 0, 2140.563720703125
76, 0, 0, 2195.760986328125
77, 0, 0, 2259.531982421875
78, 0, 0, 2322.019775390625
79, 0, 0, 2392.065185546875
80, 0, 0, 2478.642333984375
81, 0, 0, 2570.996337890625
82, 0, 0, 2669.59375
83, 0, 0, 2783.896484375
84, 0, 0, 2918.281494140625
85, 0, 0, 3090.577392578125
86, 0, 0, 3310.838134765625
87, 0, 0, 3585.782958984375
88, 0, 0, 3972.826904296875
89, 0, 0, 4564.693359375
90, 0, 0, 5426.98291015625
91, 0, 0, 6019.21484375
92, 0, 0, 5835.89111328125
93, 0, 0, 4227.2724609375
94, 0, 0, 2317.4921875
95, 0, 0, 811.3777465820312
96, 0, 0, 193.84521484375
97, 0, 0, 67.40152740478516
98, 0, 0, 0.005533657036721706
99, 0, 0, 0
100, 0, 0, 0
101, 0, 0, 0.003158478764817119
102, 0, 0, 0
103, 0, 0, 0
104, 0, 0, 0
105, 0, 0, 0.02824030071496964
106, 0, 0, 0
107, 0, 0, 0
108, 0, 0, 0
109, 0, 0, 0
110, 0, 0, 0
111, 0, 0, 0
112, 0, 0, 0
113, 0, 0, 0
114, 0, 0, 0
115, 0, 0, 0
116, 0, 0, 0
117, 0, 0, 0
118, 0, 0, 0
119, 0, 0, 0
120, 0, 0, 0
121, 0, 0, 0
122, 0, 0, 0
123, 0, 0, 0
124, 0, 0, 0
125, 0, 0, 0
126, 0, 0, 0
127, 0, 0, 0
128, 0, 0, 0
129, 0, 0, 0
130, 0, 0, 0
131, 0, 0, 0
132, 0, 0, 0
133, 0, 0, 0
134, 0, 0, 0
135, 0, 0, 0
136, 0, 0, 0
137, 0, 0, 0
138, 0, 0, 0
139, 0, 0, 0
140, 0, 0, 0
141, 0, 0, 0
142, 0, 0, 0
143, 0, 0, 0
144, 0, 0, 0.02290141023695469
145, 0, 0, 0
146, 0, 0, 0
147, 0, 0, 0
148, 0, 0, 0
149, 0, 0, 0
150, 0, 0, 0.06247055158019066
151, 0, 0, 0
152, 0, 0, 0
153, 0, 0, 0
154, 0, 0, 0
155, 0, 0, 0
156, 0, 0, 0
157, 0, 0, 0
158, 0, 0, 0
159, 0, 0, 0
160, 0, 0, 0
161, 0, 0, 0
162, 0, 0, 0
163, 0, 0, 0
164, 0, 0, 0
165, 0, 0, 0
166, 0, 0, 0
167, 0, 0, 0
168, 0, 0, 0
169, 0, 0, 0
170, 0, 0, 0
171, 0, 0, 0
172, 0, 0, 0
173, 0, 0, 0
174, 0, 0, 0
175, 0, 0, 0
176, 0, 0, 0
177, 0, 0, 0
178, 0, 0, 0
179, 0, 0, 0
