# TOPAS Version: 3.3.p1
# Parameter File: Simple_Pattern.txt
# Results for scorer MLIC_Scorer
# Scored in component: MLIC
# X in 180 bins of 0.222222 cm
# Y in 1 bin  of 10 cm
# Z in 1 bin  of 10 cm
# EnergyDeposit ( MeV ) : Sum   
0, 0, 0, 66.40247344970703
1, 0, 0, 69.25514984130859
2, 0, 0, 67.40387725830078
3, 0, 0, 67.43140411376953
4, 0, 0, 70.05423736572266
5, 0, 0, 68.80265808105469
6, 0, 0, 70.54952239990234
7, 0, 0, 70.34900665283203
8, 0, 0, 70.49352264404297
9, 0, 0, 68.52634429931641
10, 0, 0, 71.62041473388672
11, 0, 0, 72.05590057373047
12, 0, 0, 69.93427276611328
13, 0, 0, 70.04949951171875
14, 0, 0, 71.45164489746094
15, 0, 0, 72.04844665527344
16, 0, 0, 72.94297027587891
17, 0, 0, 72.63600921630859
18, 0, 0, 74.79000854492188
19, 0, 0, 74.38962554931641
20, 0, 0, 75.64689636230469
21, 0, 0, 76.37578582763672
22, 0, 0, 75.80545043945312
23, 0, 0, 75.37181854248047
24, 0, 0, 76.56843566894531
25, 0, 0, 79.24782562255859
26, 0, 0, 76.72547149658203
27, 0, 0, 78.93679809570312
28, 0, 0, 79.53815460205078
29, 0, 0, 81.71944427490234
30, 0, 0, 81.29962921142578
31, 0, 0, 82.61720275878906
32, 0, 0, 83.91416931152344
33, 0, 0, 81.74030303955078
34, 0, 0, 82.12284088134766
35, 0, 0, 83.43577575683594
36, 0, 0, 85.51064300537109
37, 0, 0, 85.76799011230469
38, 0, 0, 88.51671600341797
39, 0, 0, 87.09738922119141
40, 0, 0, 89.26588439941406
41, 0, 0, 89.50742340087891
42, 0, 0, 90.79216003417969
43, 0, 0, 93.63257598876953
44, 0, 0, 94.77337646484375
45, 0, 0, 93.74823760986328
46, 0, 0, 93.53251647949219
47, 0, 0, 96.23960876464844
48, 0, 0, 97.18585968017578
49, 0, 0, 96.92752838134766
50, 0, 0, 100.8527374267578
51, 0, 0, 101.1640014648438
52, 0, 0, 104.3690414428711
53, 0, 0, 106.0454406738281
54, 0, 0, 107.6761322021484
55, 0, 0, 108.5493316650391
56, 0, 0, 108.682258605957
57, 0, 0, 110.8246383666992
58, 0, 0, 113.8639678955078
59, 0, 0, 118.5222015380859
60, 0, 0, 119.1894454956055
61, 0, 0, 121.8027572631836
62, 0, 0, 125.7297973632812
63, 0, 0, 126.5137481689453
64, 0, 0, 133.4392242431641
65, 0, 0, 135.8404388427734
66, 0, 0, 138.9886779785156
67, 0, 0, 146.4643707275391
68, 0, 0, 148.5013732910156
69, 0, 0, 156.4904632568359
70, 0, 0, 163.2107391357422
71, 0, 0, 173.6811370849609
72, 0, 0, 180.6248626708984
73, 0, 0, 194.2615661621094
74, 0, 0, 213.2890625
75, 0, 0, 234.9601745605469
76, 0, 0, 275.2224426269531
77, 0, 0, 309.074462890625
78, 0, 0, 342.5159606933594
79, 0, 0, 365.8964538574219
80, 0, 0, 305.2024230957031
81, 0, 0, 102.9059219360352
82, 0, 0, 31.20101928710938
83, 0, 0, 16.56456184387207
84, 0, 0, 7.782463550567627
85, 0, 0, 0
86, 0, 0, 0
87, 0, 0, 0
88, 0, 0, 0
89, 0, 0, 0
90, 0, 0, 0
91, 0, 0, 0
92, 0, 0, 0
93, 0, 0, 0
94, 0, 0, 0
95, 0, 0, 0
96, 0, 0, 0
97, 0, 0, 0
98, 0, 0, 0
99, 0, 0, 0
100, 0, 0, 0
101, 0, 0, 0
102, 0, 0, 0
103, 0, 0, 0
104, 0, 0, 0
105, 0, 0, 0
106, 0, 0, 0
107, 0, 0, 0
108, 0, 0, 0
109, 0, 0, 0
110, 0, 0, 0
111, 0, 0, 0
112, 0, 0, 0
113, 0, 0, 0
114, 0, 0, 0
115, 0, 0, 0
116, 0, 0, 0
117, 0, 0, 0
118, 0, 0, 0
119, 0, 0, 0
120, 0, 0, 0
121, 0, 0, 0
122, 0, 0, 0
123, 0, 0, 0
124, 0, 0, 0
125, 0, 0, 0
126, 0, 0, 0
127, 0, 0, 0
128, 0, 0, 0
129, 0, 0, 0
130, 0, 0, 0
131, 0, 0, 0
132, 0, 0, 0
133, 0, 0, 0
134, 0, 0, 0
135, 0, 0, 0
136, 0, 0, 0
137, 0, 0, 0
138, 0, 0, 0
139, 0, 0, 0
140, 0, 0, 0
141, 0, 0, 0
142, 0, 0, 0
143, 0, 0, 0
144, 0, 0, 0
145, 0, 0, 0
146, 0, 0, 0
147, 0, 0, 0
148, 0, 0, 0
149, 0, 0, 0
150, 0, 0, 0
151, 0, 0, 0
152, 0, 0, 0
153, 0, 0, 0
154, 0, 0, 0
155, 0, 0, 0
156, 0, 0, 0
157, 0, 0, 0
158, 0, 0, 0
159, 0, 0, 0
160, 0, 0, 0
161, 0, 0, 0
162, 0, 0, 0
163, 0, 0, 0
164, 0, 0, 0
165, 0, 0, 0
166, 0, 0, 0
167, 0, 0, 0
168, 0, 0, 0
169, 0, 0, 0
170, 0, 0, 0
171, 0, 0, 0
172, 0, 0, 0
173, 0, 0, 0
174, 0, 0, 0
175, 0, 0, 0
176, 0, 0, 0
177, 0, 0, 0
178, 0, 0, 0
179, 0, 0, 0
