# TOPAS Version: 3.3.p1
# Parameter File: Simple_Pattern.txt
# Results for scorer MLIC_Scorer
# Scored in component: MLIC
# X in 180 bins of 0.222222 cm
# Y in 1 bin  of 10 cm
# Z in 1 bin  of 10 cm
# EnergyDeposit ( MeV ) : Sum   
0, 0, 0, 120.6254577636719
1, 0, 0, 124.9944610595703
2, 0, 0, 121.9492340087891
3, 0, 0, 124.0515060424805
4, 0, 0, 123.2079010009766
5, 0, 0, 127.7556838989258
6, 0, 0, 125.7364501953125
7, 0, 0, 126.4186401367188
8, 0, 0, 126.328369140625
9, 0, 0, 126.5988845825195
10, 0, 0, 127.807746887207
11, 0, 0, 128.6742401123047
12, 0, 0, 127.5417785644531
13, 0, 0, 133.0234985351562
14, 0, 0, 131.3792724609375
15, 0, 0, 133.1311950683594
16, 0, 0, 131.95751953125
17, 0, 0, 135.1287078857422
18, 0, 0, 132.9301452636719
19, 0, 0, 134.6720123291016
20, 0, 0, 133.6370391845703
21, 0, 0, 134.5789489746094
22, 0, 0, 135.2501678466797
23, 0, 0, 136.355712890625
24, 0, 0, 135.7749633789062
25, 0, 0, 135.9273986816406
26, 0, 0, 137.5301055908203
27, 0, 0, 142.1298217773438
28, 0, 0, 141.0291748046875
29, 0, 0, 138.5997314453125
30, 0, 0, 141.4095916748047
31, 0, 0, 141.2003631591797
32, 0, 0, 144.9667205810547
33, 0, 0, 145.4148864746094
34, 0, 0, 143.9968109130859
35, 0, 0, 147.1290740966797
36, 0, 0, 148.2213134765625
37, 0, 0, 147.3450622558594
38, 0, 0, 145.7230834960938
39, 0, 0, 151.0092315673828
40, 0, 0, 152.3086242675781
41, 0, 0, 153.8749084472656
42, 0, 0, 153.2157440185547
43, 0, 0, 156.2172241210938
44, 0, 0, 157.5967864990234
45, 0, 0, 159.1066131591797
46, 0, 0, 157.5121917724609
47, 0, 0, 160.6184692382812
48, 0, 0, 161.8748321533203
49, 0, 0, 162.8106231689453
50, 0, 0, 165.1400146484375
51, 0, 0, 166.3110809326172
52, 0, 0, 165.7470855712891
53, 0, 0, 170.3208770751953
54, 0, 0, 171.0416259765625
55, 0, 0, 175.2351379394531
56, 0, 0, 176.0038452148438
57, 0, 0, 179.3887329101562
58, 0, 0, 178.0274353027344
59, 0, 0, 186.0116424560547
60, 0, 0, 183.9513397216797
61, 0, 0, 189.3384094238281
62, 0, 0, 189.3807525634766
63, 0, 0, 192.7640991210938
64, 0, 0, 195.2749786376953
65, 0, 0, 199.2583923339844
66, 0, 0, 199.8118591308594
67, 0, 0, 205.5066986083984
68, 0, 0, 209.8386840820312
69, 0, 0, 211.9491271972656
70, 0, 0, 213.5411987304688
71, 0, 0, 222.9228973388672
72, 0, 0, 225.5747680664062
73, 0, 0, 230.6741485595703
74, 0, 0, 234.7713928222656
75, 0, 0, 240.6188354492188
76, 0, 0, 244.8130798339844
77, 0, 0, 254.4368591308594
78, 0, 0, 256.860595703125
79, 0, 0, 265.4421691894531
80, 0, 0, 277.3870239257812
81, 0, 0, 288.609130859375
82, 0, 0, 298.9569702148438
83, 0, 0, 314.1870422363281
84, 0, 0, 325.9979248046875
85, 0, 0, 346.4175415039062
86, 0, 0, 372.384521484375
87, 0, 0, 401.7100524902344
88, 0, 0, 440.3838195800781
89, 0, 0, 504.5652160644531
90, 0, 0, 582.4028930664062
91, 0, 0, 673.2787475585938
92, 0, 0, 690.1951904296875
93, 0, 0, 573.89306640625
94, 0, 0, 291.6862182617188
95, 0, 0, 91.67816925048828
96, 0, 0, 41.68388748168945
97, 0, 0, 20.51901054382324
98, 0, 0, 0
99, 0, 0, 0
100, 0, 0, 0
101, 0, 0, 0
102, 0, 0, 0
103, 0, 0, 0
104, 0, 0, 0
105, 0, 0, 0.02380835078656673
106, 0, 0, 0
107, 0, 0, 0
108, 0, 0, 0
109, 0, 0, 0
110, 0, 0, 0
111, 0, 0, 0
112, 0, 0, 0
113, 0, 0, 0
114, 0, 0, 0
115, 0, 0, 0
116, 0, 0, 0
117, 0, 0, 0
118, 0, 0, 0
119, 0, 0, 0
120, 0, 0, 0
121, 0, 0, 0
122, 0, 0, 0
123, 0, 0, 0
124, 0, 0, 0
125, 0, 0, 0
126, 0, 0, 0
127, 0, 0, 0
128, 0, 0, 0
129, 0, 0, 0
130, 0, 0, 0
131, 0, 0, 0
132, 0, 0, 0
133, 0, 0, 0
134, 0, 0, 0
135, 0, 0, 0
136, 0, 0, 0
137, 0, 0, 0
138, 0, 0, 0
139, 0, 0, 0
140, 0, 0, 0
141, 0, 0, 0
142, 0, 0, 0
143, 0, 0, 0
144, 0, 0, 0
145, 0, 0, 0
146, 0, 0, 0
147, 0, 0, 0
148, 0, 0, 0
149, 0, 0, 0
150, 0, 0, 0
151, 0, 0, 0
152, 0, 0, 0
153, 0, 0, 0
154, 0, 0, 0
155, 0, 0, 0
156, 0, 0, 0
157, 0, 0, 0
158, 0, 0, 0
159, 0, 0, 0
160, 0, 0, 0
161, 0, 0, 0
162, 0, 0, 0
163, 0, 0, 0
164, 0, 0, 0
165, 0, 0, 0
166, 0, 0, 0
167, 0, 0, 0
168, 0, 0, 0
169, 0, 0, 0
170, 0, 0, 0
171, 0, 0, 0
172, 0, 0, 0
173, 0, 0, 0
174, 0, 0, 0
175, 0, 0, 0
176, 0, 0, 0
177, 0, 0, 0
178, 0, 0, 0
179, 0, 0, 0
