# TOPAS Version: 3.3.p1
# Parameter File: Simple_Pattern.txt
# Results for scorer MLIC_Scorer
# Scored in component: MLIC
# X in 180 bins of 0.222222 cm
# Y in 1 bin  of 10 cm
# Z in 1 bin  of 10 cm
# EnergyDeposit ( MeV ) : Sum   
0, 0, 0, 58.20394897460938
1, 0, 0, 58.69623947143555
2, 0, 0, 59.88821411132812
3, 0, 0, 59.89004516601562
4, 0, 0, 61.87831115722656
5, 0, 0, 62.8523063659668
6, 0, 0, 59.15740966796875
7, 0, 0, 61.34451675415039
8, 0, 0, 61.35610198974609
9, 0, 0, 61.80858993530273
10, 0, 0, 62.61003112792969
11, 0, 0, 64.97224426269531
12, 0, 0, 64.74128723144531
13, 0, 0, 63.34304428100586
14, 0, 0, 65.53202056884766
15, 0, 0, 66.48101043701172
16, 0, 0, 65.1590576171875
17, 0, 0, 64.54049682617188
18, 0, 0, 67.97333526611328
19, 0, 0, 67.05853271484375
20, 0, 0, 68.07327270507812
21, 0, 0, 66.49346160888672
22, 0, 0, 67.42134857177734
23, 0, 0, 66.09698486328125
24, 0, 0, 67.66932678222656
25, 0, 0, 68.60585784912109
26, 0, 0, 68.9307861328125
27, 0, 0, 71.07781982421875
28, 0, 0, 71.73854064941406
29, 0, 0, 69.79696655273438
30, 0, 0, 70.9271240234375
31, 0, 0, 70.04137420654297
32, 0, 0, 71.15444946289062
33, 0, 0, 72.80104064941406
34, 0, 0, 71.83948516845703
35, 0, 0, 72.84135437011719
36, 0, 0, 74.94949340820312
37, 0, 0, 74.82343292236328
38, 0, 0, 74.83601379394531
39, 0, 0, 75.72395324707031
40, 0, 0, 78.55651092529297
41, 0, 0, 77.10335540771484
42, 0, 0, 79.04398345947266
43, 0, 0, 78.88671875
44, 0, 0, 81.87992095947266
45, 0, 0, 79.07051086425781
46, 0, 0, 83.09628295898438
47, 0, 0, 81.81956481933594
48, 0, 0, 84.67340087890625
49, 0, 0, 84.76496887207031
50, 0, 0, 84.47621917724609
51, 0, 0, 87.30484008789062
52, 0, 0, 86.05429840087891
53, 0, 0, 89.59522247314453
54, 0, 0, 90.66159820556641
55, 0, 0, 89.77662658691406
56, 0, 0, 92.38816070556641
57, 0, 0, 95.38594818115234
58, 0, 0, 95.448974609375
59, 0, 0, 97.43995666503906
60, 0, 0, 99.81234741210938
61, 0, 0, 100.4256820678711
62, 0, 0, 101.6623992919922
63, 0, 0, 103.9600830078125
64, 0, 0, 107.0873565673828
65, 0, 0, 110.839714050293
66, 0, 0, 109.8958129882812
67, 0, 0, 115.6524047851562
68, 0, 0, 116.7122802734375
69, 0, 0, 121.9136047363281
70, 0, 0, 122.7889785766602
71, 0, 0, 129.0369567871094
72, 0, 0, 136.6088714599609
73, 0, 0, 141.8968811035156
74, 0, 0, 151.6990814208984
75, 0, 0, 164.4816284179688
76, 0, 0, 182.3649597167969
77, 0, 0, 199.2577972412109
78, 0, 0, 193.6006774902344
79, 0, 0, 191.1677551269531
80, 0, 0, 148.9625701904297
81, 0, 0, 122.7117233276367
82, 0, 0, 128.09814453125
83, 0, 0, 89.76031494140625
84, 0, 0, 93.65413665771484
85, 0, 0, 99.56890106201172
86, 0, 0, 104.4137344360352
87, 0, 0, 114.2837905883789
88, 0, 0, 124.0212707519531
89, 0, 0, 140.1535034179688
90, 0, 0, 166.9665222167969
91, 0, 0, 183.1597137451172
92, 0, 0, 218.9702301025391
93, 0, 0, 199.8313751220703
94, 0, 0, 72.38257598876953
95, 0, 0, 28.84964179992676
96, 0, 0, 0
97, 0, 0, 0
98, 0, 0, 0
99, 0, 0, 0
100, 0, 0, 0
101, 0, 0, 0
102, 0, 0, 0
103, 0, 0, 0
104, 0, 0, 0
105, 0, 0, 0
106, 0, 0, 0
107, 0, 0, 0
108, 0, 0, 0
109, 0, 0, 0
110, 0, 0, 0
111, 0, 0, 0
112, 0, 0, 0
113, 0, 0, 0
114, 0, 0, 0
115, 0, 0, 0
116, 0, 0, 0
117, 0, 0, 0
118, 0, 0, 0
119, 0, 0, 0
120, 0, 0, 0
121, 0, 0, 0
122, 0, 0, 0
123, 0, 0, 0
124, 0, 0, 0
125, 0, 0, 0
126, 0, 0, 0
127, 0, 0, 0
128, 0, 0, 0
129, 0, 0, 0
130, 0, 0, 0
131, 0, 0, 0
132, 0, 0, 0
133, 0, 0, 0
134, 0, 0, 0
135, 0, 0, 0
136, 0, 0, 0
137, 0, 0, 0
138, 0, 0, 0
139, 0, 0, 0
140, 0, 0, 0
141, 0, 0, 0
142, 0, 0, 0
143, 0, 0, 0
144, 0, 0, 0
145, 0, 0, 0
146, 0, 0, 0
147, 0, 0, 0
148, 0, 0, 0
149, 0, 0, 0
150, 0, 0, 0
151, 0, 0, 0
152, 0, 0, 0
153, 0, 0, 0
154, 0, 0, 0
155, 0, 0, 0
156, 0, 0, 0
157, 0, 0, 0
158, 0, 0, 0
159, 0, 0, 0
160, 0, 0, 0
161, 0, 0, 0
162, 0, 0, 0
163, 0, 0, 0
164, 0, 0, 0
165, 0, 0, 0
166, 0, 0, 0
167, 0, 0, 0
168, 0, 0, 0
169, 0, 0, 0
170, 0, 0, 0
171, 0, 0, 0
172, 0, 0, 0
173, 0, 0, 0
174, 0, 0, 0
175, 0, 0, 0
176, 0, 0, 0
177, 0, 0, 0
178, 0, 0, 0
179, 0, 0, 0
