# TOPAS Version: 3.3.p1
# Parameter File: Simple_Pattern.txt
# Results for scorer MLIC_Scorer
# Scored in component: MLIC
# X in 180 bins of 0.222222 cm
# Y in 1 bin  of 10 cm
# Z in 1 bin  of 10 cm
# EnergyDeposit ( MeV ) : Sum   
0, 0, 0, 1087.030517578125
1, 0, 0, 1091.530151367188
2, 0, 0, 1086.976684570312
3, 0, 0, 1099.057861328125
4, 0, 0, 1102.23828125
5, 0, 0, 1103.253295898438
6, 0, 0, 1111.49853515625
7, 0, 0, 1111.927734375
8, 0, 0, 1114.524658203125
9, 0, 0, 1121.82861328125
10, 0, 0, 1132.982788085938
11, 0, 0, 1136.640747070312
12, 0, 0, 1142.897094726562
13, 0, 0, 1142.2802734375
14, 0, 0, 1142.7880859375
15, 0, 0, 1140.1640625
16, 0, 0, 1154.413940429688
17, 0, 0, 1162.4892578125
18, 0, 0, 1167.588989257812
19, 0, 0, 1163.391967773438
20, 0, 0, 1174.488159179688
21, 0, 0, 1182.032836914062
22, 0, 0, 1186.181274414062
23, 0, 0, 1187.171630859375
24, 0, 0, 1187.670654296875
25, 0, 0, 1205.841674804688
26, 0, 0, 1199.7294921875
27, 0, 0, 1207.970092773438
28, 0, 0, 1211.21923828125
29, 0, 0, 1211.396118164062
30, 0, 0, 1227.610717773438
31, 0, 0, 1227.420288085938
32, 0, 0, 1235.307983398438
33, 0, 0, 1235.275146484375
34, 0, 0, 1242.254028320312
35, 0, 0, 1247.719116210938
36, 0, 0, 1261.731323242188
37, 0, 0, 1258.784790039062
38, 0, 0, 1251.997680664062
39, 0, 0, 1262.34814453125
40, 0, 0, 1265.383911132812
41, 0, 0, 1266.774169921875
42, 0, 0, 1279.197631835938
43, 0, 0, 1274.54345703125
44, 0, 0, 1287.993041992188
45, 0, 0, 1288.11083984375
46, 0, 0, 1301.979125976562
47, 0, 0, 1306.80712890625
48, 0, 0, 1311.849243164062
49, 0, 0, 1322.15869140625
50, 0, 0, 1328.1650390625
51, 0, 0, 1328.062377929688
52, 0, 0, 1333.544311523438
53, 0, 0, 1343.8818359375
54, 0, 0, 1348.688354492188
55, 0, 0, 1362.042724609375
56, 0, 0, 1387.439086914062
57, 0, 0, 1384.566162109375
58, 0, 0, 1407.953002929688
59, 0, 0, 1404.633666992188
60, 0, 0, 1420.321533203125
61, 0, 0, 1438.266967773438
62, 0, 0, 1447.874755859375
63, 0, 0, 1465.263671875
64, 0, 0, 1480.665161132812
65, 0, 0, 1494.263793945312
66, 0, 0, 1503.888427734375
67, 0, 0, 1531.489501953125
68, 0, 0, 1538.101928710938
69, 0, 0, 1556.625366210938
70, 0, 0, 1582.08251953125
71, 0, 0, 1600.674194335938
72, 0, 0, 1624.87548828125
73, 0, 0, 1646.650024414062
74, 0, 0, 1680.003662109375
75, 0, 0, 1708.551879882812
76, 0, 0, 1743.598388671875
77, 0, 0, 1786.54638671875
78, 0, 0, 1829.123901367188
79, 0, 0, 1877.192626953125
80, 0, 0, 1931.923217773438
81, 0, 0, 2009.659790039062
82, 0, 0, 2076.461181640625
83, 0, 0, 2155.88037109375
84, 0, 0, 2251.86474609375
85, 0, 0, 2375.064208984375
86, 0, 0, 2537.81689453125
87, 0, 0, 2731.533447265625
88, 0, 0, 3006.552490234375
89, 0, 0, 3427.04541015625
90, 0, 0, 4070.40869140625
91, 0, 0, 4585.0390625
92, 0, 0, 4393.1748046875
93, 0, 0, 3254.91845703125
94, 0, 0, 1806.801879882812
95, 0, 0, 581.00341796875
96, 0, 0, 103.3823852539062
97, 0, 0, 0.01717309094965458
98, 0, 0, 0
99, 0, 0, 0
100, 0, 0, 0.001982638379558921
101, 0, 0, 0.0779130682349205
102, 0, 0, 0.001934192841872573
103, 0, 0, 0.01817821152508259
104, 0, 0, 0.04156824946403503
105, 0, 0, 0.03187999501824379
106, 0, 0, 0.007235221099108458
107, 0, 0, 1.669449090957642
108, 0, 0, 0.2041437923908234
109, 0, 0, 0
110, 0, 0, 0
111, 0, 0, 0.05783385038375854
112, 0, 0, 0.03178989514708519
113, 0, 0, 0.06975936889648438
114, 0, 0, 0.124673418700695
115, 0, 0, 0
116, 0, 0, 0
117, 0, 0, 0.01258198451250792
118, 0, 0, 0.0915144681930542
119, 0, 0, 0
120, 0, 0, 0
121, 0, 0, 0.01876619271934032
122, 0, 0, 0.01353816222399473
123, 0, 0, 0.07158387452363968
124, 0, 0, 0
125, 0, 0, 0
126, 0, 0, 0
127, 0, 0, 0
128, 0, 0, 0
129, 0, 0, 0.02610193006694317
130, 0, 0, 0
131, 0, 0, 0
132, 0, 0, 0
133, 0, 0, 0
134, 0, 0, 0
135, 0, 0, 0
136, 0, 0, 0
137, 0, 0, 0
138, 0, 0, 0.02192202396690845
139, 0, 0, 0.09563153237104416
140, 0, 0, 0
141, 0, 0, 0
142, 0, 0, 0
143, 0, 0, 0
144, 0, 0, 0.01263877470046282
145, 0, 0, 0
146, 0, 0, 0
147, 0, 0, 0
148, 0, 0, 0.02387898229062557
149, 0, 0, 0
150, 0, 0, 0.1818144768476486
151, 0, 0, 0
152, 0, 0, 0
153, 0, 0, 0.01544298138469458
154, 0, 0, 0.01142951101064682
155, 0, 0, 0
156, 0, 0, 0.01408061012625694
157, 0, 0, 0
158, 0, 0, 0
159, 0, 0, 0
160, 0, 0, 0
161, 0, 0, 0.1234386339783669
162, 0, 0, 0
163, 0, 0, 0.1159929111599922
164, 0, 0, 0
165, 0, 0, 0
166, 0, 0, 0
167, 0, 0, 0
168, 0, 0, 0
169, 0, 0, 0
170, 0, 0, 0
171, 0, 0, 0.03093423880636692
172, 0, 0, 0
173, 0, 0, 0
174, 0, 0, 0
175, 0, 0, 0
176, 0, 0, 0
177, 0, 0, 0
178, 0, 0, 0
179, 0, 0, 0.001225737854838371
