# TOPAS Version: 3.3.p1
# Parameter File: Simple_Pattern.txt
# Results for scorer MLIC_Scorer
# Scored in component: MLIC
# X in 180 bins of 0.222222 cm
# Y in 1 bin  of 10 cm
# Z in 1 bin  of 10 cm
# EnergyDeposit ( MeV ) : Sum   
0, 0, 0, 41.25891876220703
1, 0, 0, 39.74082946777344
2, 0, 0, 38.81791305541992
3, 0, 0, 41.26851654052734
4, 0, 0, 38.85661697387695
5, 0, 0, 39.84010696411133
6, 0, 0, 40.77116012573242
7, 0, 0, 41.79016494750977
8, 0, 0, 40.64053344726562
9, 0, 0, 43.11792755126953
10, 0, 0, 43.0975341796875
11, 0, 0, 43.62119293212891
12, 0, 0, 41.03739547729492
13, 0, 0, 43.90100860595703
14, 0, 0, 42.47403717041016
15, 0, 0, 41.31336212158203
16, 0, 0, 42.80599594116211
17, 0, 0, 42.03570556640625
18, 0, 0, 42.38689041137695
19, 0, 0, 40.62336730957031
20, 0, 0, 40.84599304199219
21, 0, 0, 42.81444931030273
22, 0, 0, 41.67242050170898
23, 0, 0, 41.66408538818359
24, 0, 0, 40.44936752319336
25, 0, 0, 41.37416839599609
26, 0, 0, 42.04407119750977
27, 0, 0, 43.52502059936523
28, 0, 0, 42.59892272949219
29, 0, 0, 41.77797698974609
30, 0, 0, 43.23257827758789
31, 0, 0, 46.03715515136719
32, 0, 0, 42.68952560424805
33, 0, 0, 43.49015045166016
34, 0, 0, 44.23101806640625
35, 0, 0, 44.37418365478516
36, 0, 0, 45.08761978149414
37, 0, 0, 44.88204574584961
38, 0, 0, 45.79290008544922
39, 0, 0, 44.88887023925781
40, 0, 0, 45.27688980102539
41, 0, 0, 46.02750396728516
42, 0, 0, 44.00379943847656
43, 0, 0, 43.6909294128418
44, 0, 0, 46.95848846435547
45, 0, 0, 45.05315399169922
46, 0, 0, 45.78575897216797
47, 0, 0, 47.43634414672852
48, 0, 0, 44.33319091796875
49, 0, 0, 44.31644439697266
50, 0, 0, 45.16778945922852
51, 0, 0, 42.97793197631836
52, 0, 0, 44.18864440917969
53, 0, 0, 43.42171859741211
54, 0, 0, 44.64499282836914
55, 0, 0, 45.33111572265625
56, 0, 0, 46.75446319580078
57, 0, 0, 45.28305816650391
58, 0, 0, 46.65572738647461
59, 0, 0, 46.05642318725586
60, 0, 0, 47.39486312866211
61, 0, 0, 47.45275115966797
62, 0, 0, 48.06791305541992
63, 0, 0, 48.23149108886719
64, 0, 0, 49.64900207519531
65, 0, 0, 50.4449348449707
66, 0, 0, 49.65652847290039
67, 0, 0, 52.32069778442383
68, 0, 0, 51.87022018432617
69, 0, 0, 52.452392578125
70, 0, 0, 54.99625015258789
71, 0, 0, 56.76763534545898
72, 0, 0, 57.08920288085938
73, 0, 0, 59.54506301879883
74, 0, 0, 58.91749572753906
75, 0, 0, 63.01903915405273
76, 0, 0, 63.225830078125
77, 0, 0, 63.33338928222656
78, 0, 0, 66.43088531494141
79, 0, 0, 67.46051025390625
80, 0, 0, 67.99639129638672
81, 0, 0, 70.17878723144531
82, 0, 0, 73.75438690185547
83, 0, 0, 74.61966705322266
84, 0, 0, 78.30921173095703
85, 0, 0, 82.14804077148438
86, 0, 0, 89.40215301513672
87, 0, 0, 94.49176025390625
88, 0, 0, 103.2586059570312
89, 0, 0, 118.1263809204102
90, 0, 0, 150.7738800048828
91, 0, 0, 176.7195281982422
92, 0, 0, 175.1004486083984
93, 0, 0, 82.23171234130859
94, 0, 0, 15.91117191314697
95, 0, 0, 0
96, 0, 0, 0
97, 0, 0, 0
98, 0, 0, 0
99, 0, 0, 0
100, 0, 0, 0
101, 0, 0, 0
102, 0, 0, 0
103, 0, 0, 0
104, 0, 0, 0
105, 0, 0, 0
106, 0, 0, 0
107, 0, 0, 0
108, 0, 0, 0
109, 0, 0, 0
110, 0, 0, 0
111, 0, 0, 0
112, 0, 0, 0
113, 0, 0, 0
114, 0, 0, 0
115, 0, 0, 0
116, 0, 0, 0
117, 0, 0, 0
118, 0, 0, 0
119, 0, 0, 0
120, 0, 0, 0
121, 0, 0, 0
122, 0, 0, 0
123, 0, 0, 0
124, 0, 0, 0
125, 0, 0, 0
126, 0, 0, 0
127, 0, 0, 0
128, 0, 0, 0
129, 0, 0, 0
130, 0, 0, 0
131, 0, 0, 0
132, 0, 0, 0
133, 0, 0, 0
134, 0, 0, 0
135, 0, 0, 0
136, 0, 0, 0
137, 0, 0, 0
138, 0, 0, 0
139, 0, 0, 0
140, 0, 0, 0
141, 0, 0, 0
142, 0, 0, 0
143, 0, 0, 0
144, 0, 0, 0
145, 0, 0, 0
146, 0, 0, 0
147, 0, 0, 0
148, 0, 0, 0
149, 0, 0, 0
150, 0, 0, 0
151, 0, 0, 0
152, 0, 0, 0
153, 0, 0, 0
154, 0, 0, 0
155, 0, 0, 0
156, 0, 0, 0
157, 0, 0, 0
158, 0, 0, 0
159, 0, 0, 0
160, 0, 0, 0
161, 0, 0, 0
162, 0, 0, 0
163, 0, 0, 0
164, 0, 0, 0
165, 0, 0, 0
166, 0, 0, 0
167, 0, 0, 0
168, 0, 0, 0
169, 0, 0, 0
170, 0, 0, 0
171, 0, 0, 0
172, 0, 0, 0
173, 0, 0, 0
174, 0, 0, 0
175, 0, 0, 0
176, 0, 0, 0
177, 0, 0, 0
178, 0, 0, 0
179, 0, 0, 0
