# TOPAS Version: 3.3.p1
# Parameter File: Simple_Pattern.txt
# Results for scorer MLIC_Scorer
# Scored in component: MLIC
# X in 180 bins of 0.222222 cm
# Y in 1 bin  of 10 cm
# Z in 1 bin  of 10 cm
# EnergyDeposit ( MeV ) : Sum   
0, 0, 0, 1082.140869140625
1, 0, 0, 1097.740112304688
2, 0, 0, 1090.41162109375
3, 0, 0, 1095.921142578125
4, 0, 0, 1094.87255859375
5, 0, 0, 1112.825927734375
6, 0, 0, 1113.708129882812
7, 0, 0, 1120.334716796875
8, 0, 0, 1134.5146484375
9, 0, 0, 1132.813354492188
10, 0, 0, 1131.450561523438
11, 0, 0, 1143.413330078125
12, 0, 0, 1142.905883789062
13, 0, 0, 1149.068603515625
14, 0, 0, 1161.4052734375
15, 0, 0, 1153.738403320312
16, 0, 0, 1168.195068359375
17, 0, 0, 1174.959350585938
18, 0, 0, 1194.009399414062
19, 0, 0, 1197.299926757812
20, 0, 0, 1194.783325195312
21, 0, 0, 1201.421752929688
22, 0, 0, 1202.77197265625
23, 0, 0, 1222.315185546875
24, 0, 0, 1226.675415039062
25, 0, 0, 1232.893920898438
26, 0, 0, 1228.03759765625
27, 0, 0, 1242.900390625
28, 0, 0, 1249.622192382812
29, 0, 0, 1258.36865234375
30, 0, 0, 1267.8388671875
31, 0, 0, 1270.292358398438
32, 0, 0, 1280.899169921875
33, 0, 0, 1288.7080078125
34, 0, 0, 1301.397216796875
35, 0, 0, 1310.545532226562
36, 0, 0, 1323.054809570312
37, 0, 0, 1332.046020507812
38, 0, 0, 1340.1318359375
39, 0, 0, 1346.231567382812
40, 0, 0, 1367.957763671875
41, 0, 0, 1365.271240234375
42, 0, 0, 1384.658569335938
43, 0, 0, 1395.679931640625
44, 0, 0, 1407.205932617188
45, 0, 0, 1418.155639648438
46, 0, 0, 1426.483764648438
47, 0, 0, 1437.532836914062
48, 0, 0, 1454.530151367188
49, 0, 0, 1467.868286132812
50, 0, 0, 1485.387451171875
51, 0, 0, 1493.747802734375
52, 0, 0, 1510.734985351562
53, 0, 0, 1524.376708984375
54, 0, 0, 1545.710327148438
55, 0, 0, 1561.184204101562
56, 0, 0, 1583.3779296875
57, 0, 0, 1601.990844726562
58, 0, 0, 1620.0693359375
59, 0, 0, 1631.034912109375
60, 0, 0, 1655.37353515625
61, 0, 0, 1682.032958984375
62, 0, 0, 1691.159912109375
63, 0, 0, 1725.0419921875
64, 0, 0, 1750.089233398438
65, 0, 0, 1781.33544921875
66, 0, 0, 1806.607543945312
67, 0, 0, 1830.8115234375
68, 0, 0, 1867.640380859375
69, 0, 0, 1898.411987304688
70, 0, 0, 1935.428100585938
71, 0, 0, 1976.19384765625
72, 0, 0, 2008.798950195312
73, 0, 0, 2047.817260742188
74, 0, 0, 2095.130615234375
75, 0, 0, 2144.015380859375
76, 0, 0, 2212.694580078125
77, 0, 0, 2270.57373046875
78, 0, 0, 2325.819580078125
79, 0, 0, 2408.5634765625
80, 0, 0, 2493.377197265625
81, 0, 0, 2581.03564453125
82, 0, 0, 2696.86279296875
83, 0, 0, 2810.427001953125
84, 0, 0, 2946.200927734375
85, 0, 0, 3134.213623046875
86, 0, 0, 3354.9267578125
87, 0, 0, 3634.53466796875
88, 0, 0, 4035.58984375
89, 0, 0, 4654.916015625
90, 0, 0, 5406.92626953125
91, 0, 0, 6089.66064453125
92, 0, 0, 5926.86376953125
93, 0, 0, 4607.77978515625
94, 0, 0, 2139.198974609375
95, 0, 0, 687.4334716796875
96, 0, 0, 120.9228973388672
97, 0, 0, 4.367274761199951
98, 0, 0, 0.03452983871102333
99, 0, 0, 0
100, 0, 0, 0
101, 0, 0, 0
102, 0, 0, 0
103, 0, 0, 0
104, 0, 0, 0
105, 0, 0, 0
106, 0, 0, 0
107, 0, 0, 0
108, 0, 0, 0
109, 0, 0, 0
110, 0, 0, 0
111, 0, 0, 0
112, 0, 0, 0
113, 0, 0, 0
114, 0, 0, 0
115, 0, 0, 0
116, 0, 0, 0
117, 0, 0, 0
118, 0, 0, 0
119, 0, 0, 0
120, 0, 0, 0
121, 0, 0, 0
122, 0, 0, 0
123, 0, 0, 0
124, 0, 0, 0
125, 0, 0, 0.004133513197302818
126, 0, 0, 0
127, 0, 0, 0
128, 0, 0, 0
129, 0, 0, 0
130, 0, 0, 0
131, 0, 0, 0
132, 0, 0, 0
133, 0, 0, 0
134, 0, 0, 0
135, 0, 0, 0
136, 0, 0, 0
137, 0, 0, 0
138, 0, 0, 0
139, 0, 0, 0
140, 0, 0, 0
141, 0, 0, 0
142, 0, 0, 0
143, 0, 0, 0
144, 0, 0, 0
145, 0, 0, 0
146, 0, 0, 0
147, 0, 0, 0
148, 0, 0, 0
149, 0, 0, 0
150, 0, 0, 0
151, 0, 0, 0
152, 0, 0, 0
153, 0, 0, 0
154, 0, 0, 0
155, 0, 0, 0
156, 0, 0, 0
157, 0, 0, 0
158, 0, 0, 0
159, 0, 0, 0
160, 0, 0, 0
161, 0, 0, 0
162, 0, 0, 0
163, 0, 0, 0
164, 0, 0, 0
165, 0, 0, 0
166, 0, 0, 0
167, 0, 0, 0
168, 0, 0, 0
169, 0, 0, 0
170, 0, 0, 0
171, 0, 0, 0
172, 0, 0, 0
173, 0, 0, 0
174, 0, 0, 0
175, 0, 0, 0
176, 0, 0, 0
177, 0, 0, 0
178, 0, 0, 0
179, 0, 0, 0
