# TOPAS Version: 3.3.p1
# Parameter File: Simple_Pattern.txt
# Results for scorer MLIC_Scorer
# Scored in component: MLIC
# X in 180 bins of 0.222222 cm
# Y in 1 bin  of 10 cm
# Z in 1 bin  of 10 cm
# EnergyDeposit ( MeV ) : Sum   
0, 0, 0, 50.42153167724609
1, 0, 0, 49.65638732910156
2, 0, 0, 50.11295700073242
3, 0, 0, 49.80348968505859
4, 0, 0, 50.59405899047852
5, 0, 0, 52.09577178955078
6, 0, 0, 49.41026306152344
7, 0, 0, 51.95938110351562
8, 0, 0, 52.82246398925781
9, 0, 0, 51.80592727661133
10, 0, 0, 52.28123474121094
11, 0, 0, 51.31963348388672
12, 0, 0, 53.44813919067383
13, 0, 0, 53.00520706176758
14, 0, 0, 52.71382522583008
15, 0, 0, 53.58517074584961
16, 0, 0, 53.21837615966797
17, 0, 0, 55.20191955566406
18, 0, 0, 54.73307418823242
19, 0, 0, 54.29196166992188
20, 0, 0, 54.54861450195312
21, 0, 0, 55.52354049682617
22, 0, 0, 55.60350799560547
23, 0, 0, 56.0142936706543
24, 0, 0, 55.78047561645508
25, 0, 0, 57.64448165893555
26, 0, 0, 57.92053985595703
27, 0, 0, 55.24517822265625
28, 0, 0, 55.92158889770508
29, 0, 0, 58.07893371582031
30, 0, 0, 58.88853454589844
31, 0, 0, 58.44273376464844
32, 0, 0, 58.51172256469727
33, 0, 0, 57.46490478515625
34, 0, 0, 59.80651473999023
35, 0, 0, 59.26733779907227
36, 0, 0, 61.5291748046875
37, 0, 0, 60.974609375
38, 0, 0, 62.15727996826172
39, 0, 0, 63.05054473876953
40, 0, 0, 62.77895736694336
41, 0, 0, 63.29575729370117
42, 0, 0, 63.06537246704102
43, 0, 0, 62.75164794921875
44, 0, 0, 65.28672790527344
45, 0, 0, 65.28939819335938
46, 0, 0, 66.77336883544922
47, 0, 0, 66.13765716552734
48, 0, 0, 66.10706329345703
49, 0, 0, 69.93442535400391
50, 0, 0, 67.48491668701172
51, 0, 0, 69.49872589111328
52, 0, 0, 69.8323974609375
53, 0, 0, 69.95708465576172
54, 0, 0, 72.08096313476562
55, 0, 0, 73.35617828369141
56, 0, 0, 74.01852416992188
57, 0, 0, 75.10751342773438
58, 0, 0, 74.90029907226562
59, 0, 0, 75.78844451904297
60, 0, 0, 75.50379943847656
61, 0, 0, 76.20806121826172
62, 0, 0, 80.32807159423828
63, 0, 0, 77.66990661621094
64, 0, 0, 80.48293304443359
65, 0, 0, 81.94683074951172
66, 0, 0, 83.55760192871094
67, 0, 0, 85.20661163330078
68, 0, 0, 85.71893310546875
69, 0, 0, 88.08742523193359
70, 0, 0, 88.53598785400391
71, 0, 0, 92.29007720947266
72, 0, 0, 93.36689758300781
73, 0, 0, 96.07295989990234
74, 0, 0, 96.368896484375
75, 0, 0, 100.2985305786133
76, 0, 0, 102.7485885620117
77, 0, 0, 105.9501571655273
78, 0, 0, 107.9040756225586
79, 0, 0, 112.1628799438477
80, 0, 0, 115.769157409668
81, 0, 0, 121.5723876953125
82, 0, 0, 126.4990463256836
83, 0, 0, 130.4477081298828
84, 0, 0, 138.0956420898438
85, 0, 0, 146.3063201904297
86, 0, 0, 158.1825408935547
87, 0, 0, 172.3295288085938
88, 0, 0, 192.1422271728516
89, 0, 0, 234.7065887451172
90, 0, 0, 244.8038482666016
91, 0, 0, 296.5994567871094
92, 0, 0, 281.9751892089844
93, 0, 0, 170.6577911376953
94, 0, 0, 73.14933013916016
95, 0, 0, 36.0737419128418
96, 0, 0, 3.99127197265625
97, 0, 0, 0
98, 0, 0, 0
99, 0, 0, 0
100, 0, 0, 0
101, 0, 0, 0
102, 0, 0, 0
103, 0, 0, 0
104, 0, 0, 0
105, 0, 0, 0
106, 0, 0, 0
107, 0, 0, 0
108, 0, 0, 0
109, 0, 0, 0
110, 0, 0, 0
111, 0, 0, 0
112, 0, 0, 0
113, 0, 0, 0
114, 0, 0, 0
115, 0, 0, 0
116, 0, 0, 0
117, 0, 0, 0
118, 0, 0, 0
119, 0, 0, 0
120, 0, 0, 0
121, 0, 0, 0
122, 0, 0, 0
123, 0, 0, 0
124, 0, 0, 0
125, 0, 0, 0
126, 0, 0, 0
127, 0, 0, 0
128, 0, 0, 0
129, 0, 0, 0
130, 0, 0, 0
131, 0, 0, 0
132, 0, 0, 0
133, 0, 0, 0
134, 0, 0, 0
135, 0, 0, 0
136, 0, 0, 0
137, 0, 0, 0
138, 0, 0, 0
139, 0, 0, 0
140, 0, 0, 0
141, 0, 0, 0
142, 0, 0, 0
143, 0, 0, 0
144, 0, 0, 0
145, 0, 0, 0
146, 0, 0, 0
147, 0, 0, 0
148, 0, 0, 0
149, 0, 0, 0
150, 0, 0, 0
151, 0, 0, 0
152, 0, 0, 0
153, 0, 0, 0
154, 0, 0, 0
155, 0, 0, 0
156, 0, 0, 0
157, 0, 0, 0
158, 0, 0, 0
159, 0, 0, 0
160, 0, 0, 0
161, 0, 0, 0
162, 0, 0, 0
163, 0, 0, 0
164, 0, 0, 0
165, 0, 0, 0
166, 0, 0, 0
167, 0, 0, 0
168, 0, 0, 0
169, 0, 0, 0
170, 0, 0, 0
171, 0, 0, 0
172, 0, 0, 0
173, 0, 0, 0
174, 0, 0, 0
175, 0, 0, 0
176, 0, 0, 0
177, 0, 0, 0
178, 0, 0, 0
179, 0, 0, 0
