# TOPAS Version: 3.3.p1
# Parameter File: Simple_Pattern.txt
# Results for scorer MLIC_Scorer
# Scored in component: MLIC
# X in 180 bins of 0.222222 cm
# Y in 1 bin  of 10 cm
# Z in 1 bin  of 10 cm
# EnergyDeposit ( MeV ) : Sum   
0, 0, 0, 1082.700561523438
1, 0, 0, 1096.5966796875
2, 0, 0, 1098.298950195312
3, 0, 0, 1099.723266601562
4, 0, 0, 1104.5771484375
5, 0, 0, 1110.149169921875
6, 0, 0, 1117.35888671875
7, 0, 0, 1124.16455078125
8, 0, 0, 1120.428466796875
9, 0, 0, 1128.706909179688
10, 0, 0, 1143.786987304688
11, 0, 0, 1131.155883789062
12, 0, 0, 1149.76806640625
13, 0, 0, 1146.260375976562
14, 0, 0, 1153.945068359375
15, 0, 0, 1159.3955078125
16, 0, 0, 1166.74609375
17, 0, 0, 1173.564331054688
18, 0, 0, 1184.60498046875
19, 0, 0, 1189.481567382812
20, 0, 0, 1195.127807617188
21, 0, 0, 1201.300659179688
22, 0, 0, 1205.736938476562
23, 0, 0, 1214.216796875
24, 0, 0, 1223.164916992188
25, 0, 0, 1224.156494140625
26, 0, 0, 1234.15283203125
27, 0, 0, 1239.260620117188
28, 0, 0, 1249.749145507812
29, 0, 0, 1255.536254882812
30, 0, 0, 1262.496337890625
31, 0, 0, 1275.696411132812
32, 0, 0, 1287.396118164062
33, 0, 0, 1289.043701171875
34, 0, 0, 1296.458862304688
35, 0, 0, 1305.015502929688
36, 0, 0, 1327.318359375
37, 0, 0, 1334.47216796875
38, 0, 0, 1340.713500976562
39, 0, 0, 1352.821655273438
40, 0, 0, 1357.677734375
41, 0, 0, 1372.89453125
42, 0, 0, 1397.564086914062
43, 0, 0, 1397.836791992188
44, 0, 0, 1400.246704101562
45, 0, 0, 1414.376098632812
46, 0, 0, 1433.634155273438
47, 0, 0, 1441.247924804688
48, 0, 0, 1448.078247070312
49, 0, 0, 1470.318115234375
50, 0, 0, 1480.674194335938
51, 0, 0, 1497.434692382812
52, 0, 0, 1513.052612304688
53, 0, 0, 1524.562133789062
54, 0, 0, 1544.547607421875
55, 0, 0, 1563.133178710938
56, 0, 0, 1572.642456054688
57, 0, 0, 1601.040771484375
58, 0, 0, 1618.301025390625
59, 0, 0, 1642.28857421875
60, 0, 0, 1649.794555664062
61, 0, 0, 1675.865234375
62, 0, 0, 1708.153076171875
63, 0, 0, 1729.719970703125
64, 0, 0, 1743.097778320312
65, 0, 0, 1783.450927734375
66, 0, 0, 1814.993530273438
67, 0, 0, 1833.599243164062
68, 0, 0, 1871.14013671875
69, 0, 0, 1905.33984375
70, 0, 0, 1936.172729492188
71, 0, 0, 1972.534423828125
72, 0, 0, 2019.590698242188
73, 0, 0, 2065.405517578125
74, 0, 0, 2115.101318359375
75, 0, 0, 2155.71728515625
76, 0, 0, 2211.8662109375
77, 0, 0, 2280.389892578125
78, 0, 0, 2340.826171875
79, 0, 0, 2416.58935546875
80, 0, 0, 2499.4326171875
81, 0, 0, 2599.60693359375
82, 0, 0, 2701.78564453125
83, 0, 0, 2824.257080078125
84, 0, 0, 2985.095947265625
85, 0, 0, 3153.69775390625
86, 0, 0, 3378.016845703125
87, 0, 0, 3667.018798828125
88, 0, 0, 4062.06103515625
89, 0, 0, 4652.5546875
90, 0, 0, 5344.38330078125
91, 0, 0, 6185.99072265625
92, 0, 0, 6142.041015625
93, 0, 0, 4545.7763671875
94, 0, 0, 2214.0166015625
95, 0, 0, 688.6929321289062
96, 0, 0, 123.9921188354492
97, 0, 0, 11.50124073028564
98, 0, 0, 0
99, 0, 0, 0
100, 0, 0, 0
101, 0, 0, 0
102, 0, 0, 0
103, 0, 0, 0
104, 0, 0, 0.04069499671459198
105, 0, 0, 0
106, 0, 0, 0
107, 0, 0, 0
108, 0, 0, 0
109, 0, 0, 0
110, 0, 0, 0
111, 0, 0, 0
112, 0, 0, 0
113, 0, 0, 0
114, 0, 0, 0
115, 0, 0, 0
116, 0, 0, 0
117, 0, 0, 0
118, 0, 0, 0
119, 0, 0, 0
120, 0, 0, 0
121, 0, 0, 0
122, 0, 0, 0
123, 0, 0, 0
124, 0, 0, 0
125, 0, 0, 0
126, 0, 0, 0
127, 0, 0, 0
128, 0, 0, 0
129, 0, 0, 0
130, 0, 0, 0
131, 0, 0, 0
132, 0, 0, 0
133, 0, 0, 0
134, 0, 0, 0
135, 0, 0, 0
136, 0, 0, 0
137, 0, 0, 0
138, 0, 0, 0
139, 0, 0, 0
140, 0, 0, 0
141, 0, 0, 0
142, 0, 0, 0
143, 0, 0, 0
144, 0, 0, 0
145, 0, 0, 0
146, 0, 0, 0
147, 0, 0, 0
148, 0, 0, 0
149, 0, 0, 0
150, 0, 0, 0
151, 0, 0, 0
152, 0, 0, 0
153, 0, 0, 0
154, 0, 0, 0
155, 0, 0, 0
156, 0, 0, 0
157, 0, 0, 0
158, 0, 0, 0
159, 0, 0, 0
160, 0, 0, 0
161, 0, 0, 0
162, 0, 0, 0
163, 0, 0, 0
164, 0, 0, 0
165, 0, 0, 0
166, 0, 0, 0
167, 0, 0, 0
168, 0, 0, 0
169, 0, 0, 0
170, 0, 0, 0
171, 0, 0, 0
172, 0, 0, 0
173, 0, 0, 0
174, 0, 0, 0
175, 0, 0, 0
176, 0, 0, 0
177, 0, 0, 0
178, 0, 0, 0
179, 0, 0, 0
