# TOPAS Version: 3.3.p1
# Parameter File: Simple_Pattern.txt
# Results for scorer MLIC_Scorer
# Scored in component: MLIC
# X in 180 bins of 0.222222 cm
# Y in 1 bin  of 10 cm
# Z in 1 bin  of 10 cm
# EnergyDeposit ( MeV ) : Sum   
0, 0, 0, 45.04914093017578
1, 0, 0, 44.69013977050781
2, 0, 0, 46.3643798828125
3, 0, 0, 44.62542343139648
4, 0, 0, 43.56116485595703
5, 0, 0, 45.11163330078125
6, 0, 0, 44.35285568237305
7, 0, 0, 46.34988021850586
8, 0, 0, 45.8172492980957
9, 0, 0, 46.28857421875
10, 0, 0, 46.40151977539062
11, 0, 0, 47.23897171020508
12, 0, 0, 46.26140594482422
13, 0, 0, 47.90287017822266
14, 0, 0, 47.21420669555664
15, 0, 0, 48.13679885864258
16, 0, 0, 48.38594055175781
17, 0, 0, 48.30508041381836
18, 0, 0, 50.19656372070312
19, 0, 0, 48.37885665893555
20, 0, 0, 47.89861297607422
21, 0, 0, 49.10422515869141
22, 0, 0, 49.26319122314453
23, 0, 0, 48.60400772094727
24, 0, 0, 52.54917526245117
25, 0, 0, 49.10733413696289
26, 0, 0, 50.35739898681641
27, 0, 0, 52.01354598999023
28, 0, 0, 50.57110595703125
29, 0, 0, 53.18003082275391
30, 0, 0, 52.74410629272461
31, 0, 0, 52.19076156616211
32, 0, 0, 51.90556335449219
33, 0, 0, 52.62197113037109
34, 0, 0, 53.64651870727539
35, 0, 0, 51.88612747192383
36, 0, 0, 52.68043899536133
37, 0, 0, 53.25765609741211
38, 0, 0, 55.08747863769531
39, 0, 0, 56.0417366027832
40, 0, 0, 55.21561050415039
41, 0, 0, 56.29970550537109
42, 0, 0, 55.57415771484375
43, 0, 0, 57.9005241394043
44, 0, 0, 56.07027053833008
45, 0, 0, 56.82991027832031
46, 0, 0, 58.93729782104492
47, 0, 0, 59.27954483032227
48, 0, 0, 58.65814590454102
49, 0, 0, 59.26618957519531
50, 0, 0, 61.19171524047852
51, 0, 0, 60.92845916748047
52, 0, 0, 63.39977264404297
53, 0, 0, 63.2815055847168
54, 0, 0, 62.03933715820312
55, 0, 0, 61.75882339477539
56, 0, 0, 63.38433837890625
57, 0, 0, 65.92815399169922
58, 0, 0, 67.18878936767578
59, 0, 0, 67.34461212158203
60, 0, 0, 67.75469207763672
61, 0, 0, 68.63906097412109
62, 0, 0, 68.43285369873047
63, 0, 0, 71.23069763183594
64, 0, 0, 70.71738433837891
65, 0, 0, 72.75578308105469
66, 0, 0, 72.79219818115234
67, 0, 0, 75.87935638427734
68, 0, 0, 75.47322082519531
69, 0, 0, 77.31915283203125
70, 0, 0, 79.56837463378906
71, 0, 0, 81.84520721435547
72, 0, 0, 81.59304046630859
73, 0, 0, 84.09934234619141
74, 0, 0, 86.67429351806641
75, 0, 0, 87.68841552734375
76, 0, 0, 90.07279205322266
77, 0, 0, 92.01859283447266
78, 0, 0, 95.6370849609375
79, 0, 0, 97.88695526123047
80, 0, 0, 103.7426147460938
81, 0, 0, 104.4261474609375
82, 0, 0, 111.2458343505859
83, 0, 0, 114.8170623779297
84, 0, 0, 120.2876510620117
85, 0, 0, 128.0402679443359
86, 0, 0, 136.0297698974609
87, 0, 0, 144.84423828125
88, 0, 0, 160.8037719726562
89, 0, 0, 186.5863800048828
90, 0, 0, 217.9189910888672
91, 0, 0, 241.2871856689453
92, 0, 0, 273.9588928222656
93, 0, 0, 218.2167358398438
94, 0, 0, 113.4015731811523
95, 0, 0, 24.53709602355957
96, 0, 0, 0
97, 0, 0, 0
98, 0, 0, 0
99, 0, 0, 0
100, 0, 0, 0
101, 0, 0, 0
102, 0, 0, 0
103, 0, 0, 0
104, 0, 0, 0
105, 0, 0, 0
106, 0, 0, 0
107, 0, 0, 0
108, 0, 0, 0
109, 0, 0, 0
110, 0, 0, 0
111, 0, 0, 0
112, 0, 0, 0
113, 0, 0, 0
114, 0, 0, 0
115, 0, 0, 0
116, 0, 0, 0
117, 0, 0, 0
118, 0, 0, 0
119, 0, 0, 0
120, 0, 0, 0
121, 0, 0, 0
122, 0, 0, 0
123, 0, 0, 0
124, 0, 0, 0
125, 0, 0, 0
126, 0, 0, 0
127, 0, 0, 0
128, 0, 0, 0
129, 0, 0, 0
130, 0, 0, 0
131, 0, 0, 0
132, 0, 0, 0
133, 0, 0, 0
134, 0, 0, 0
135, 0, 0, 0
136, 0, 0, 0
137, 0, 0, 0
138, 0, 0, 0
139, 0, 0, 0
140, 0, 0, 0
141, 0, 0, 0
142, 0, 0, 0
143, 0, 0, 0
144, 0, 0, 0
145, 0, 0, 0
146, 0, 0, 0
147, 0, 0, 0
148, 0, 0, 0
149, 0, 0, 0
150, 0, 0, 0
151, 0, 0, 0
152, 0, 0, 0
153, 0, 0, 0
154, 0, 0, 0
155, 0, 0, 0
156, 0, 0, 0
157, 0, 0, 0
158, 0, 0, 0
159, 0, 0, 0
160, 0, 0, 0
161, 0, 0, 0
162, 0, 0, 0
163, 0, 0, 0
164, 0, 0, 0
165, 0, 0, 0
166, 0, 0, 0
167, 0, 0, 0
168, 0, 0, 0
169, 0, 0, 0
170, 0, 0, 0
171, 0, 0, 0
172, 0, 0, 0
173, 0, 0, 0
174, 0, 0, 0
175, 0, 0, 0
176, 0, 0, 0
177, 0, 0, 0
178, 0, 0, 0
179, 0, 0, 0
