# TOPAS Version: 3.3.p1
# Parameter File: Simple_Pattern.txt
# Results for scorer MLIC_Scorer
# Scored in component: MLIC
# X in 180 bins of 0.222222 cm
# Y in 1 bin  of 10 cm
# Z in 1 bin  of 10 cm
# EnergyDeposit ( MeV ) : Sum   
0, 0, 0, 52.07385635375977
1, 0, 0, 51.80891036987305
2, 0, 0, 51.73735427856445
3, 0, 0, 54.63035583496094
4, 0, 0, 54.42221069335938
5, 0, 0, 54.49191284179688
6, 0, 0, 54.09945678710938
7, 0, 0, 53.42070770263672
8, 0, 0, 52.63112258911133
9, 0, 0, 54.59393692016602
10, 0, 0, 54.68203735351562
11, 0, 0, 55.46722030639648
12, 0, 0, 56.62508392333984
13, 0, 0, 55.30747604370117
14, 0, 0, 56.99066543579102
15, 0, 0, 54.94488906860352
16, 0, 0, 55.76003265380859
17, 0, 0, 55.45174789428711
18, 0, 0, 57.75790786743164
19, 0, 0, 57.53729629516602
20, 0, 0, 57.28404235839844
21, 0, 0, 56.97890090942383
22, 0, 0, 57.84545516967773
23, 0, 0, 58.99614334106445
24, 0, 0, 58.71060943603516
25, 0, 0, 59.0004768371582
26, 0, 0, 59.6568489074707
27, 0, 0, 58.41264343261719
28, 0, 0, 61.16703796386719
29, 0, 0, 61.17360687255859
30, 0, 0, 60.41287231445312
31, 0, 0, 60.96197509765625
32, 0, 0, 62.23659133911133
33, 0, 0, 60.92533874511719
34, 0, 0, 63.16556167602539
35, 0, 0, 64.25603485107422
36, 0, 0, 61.805419921875
37, 0, 0, 64.14404296875
38, 0, 0, 63.50308609008789
39, 0, 0, 63.84547424316406
40, 0, 0, 64.22635650634766
41, 0, 0, 65.95771026611328
42, 0, 0, 66.86859130859375
43, 0, 0, 66.08686065673828
44, 0, 0, 66.56834411621094
45, 0, 0, 68.32200622558594
46, 0, 0, 68.31913757324219
47, 0, 0, 69.08422088623047
48, 0, 0, 68.29188537597656
49, 0, 0, 69.89558410644531
50, 0, 0, 72.83840942382812
51, 0, 0, 72.67436981201172
52, 0, 0, 73.43852996826172
53, 0, 0, 74.65397644042969
54, 0, 0, 75.08429718017578
55, 0, 0, 74.59789276123047
56, 0, 0, 76.49557495117188
57, 0, 0, 78.14928436279297
58, 0, 0, 78.93427276611328
59, 0, 0, 79.16160583496094
60, 0, 0, 80.14987945556641
61, 0, 0, 80.17026519775391
62, 0, 0, 80.92059326171875
63, 0, 0, 82.16708374023438
64, 0, 0, 82.57242584228516
65, 0, 0, 86.45943450927734
66, 0, 0, 86.87290191650391
67, 0, 0, 88.24882507324219
68, 0, 0, 91.97053527832031
69, 0, 0, 91.26040649414062
70, 0, 0, 91.88484954833984
71, 0, 0, 93.92425537109375
72, 0, 0, 95.89253234863281
73, 0, 0, 99.40132904052734
74, 0, 0, 100.7207489013672
75, 0, 0, 102.1492156982422
76, 0, 0, 104.8647079467773
77, 0, 0, 111.3013076782227
78, 0, 0, 112.3860702514648
79, 0, 0, 115.7507171630859
80, 0, 0, 119.1645431518555
81, 0, 0, 124.1527099609375
82, 0, 0, 128.2079925537109
83, 0, 0, 134.2973937988281
84, 0, 0, 143.4931793212891
85, 0, 0, 149.782958984375
86, 0, 0, 161.5572814941406
87, 0, 0, 173.5289459228516
88, 0, 0, 194.1279296875
89, 0, 0, 223.5956878662109
90, 0, 0, 246.9549102783203
91, 0, 0, 316.9080200195312
92, 0, 0, 297.4226684570312
93, 0, 0, 221.9560699462891
94, 0, 0, 118.9908294677734
95, 0, 0, 29.39080047607422
96, 0, 0, 0
97, 0, 0, 0
98, 0, 0, 0
99, 0, 0, 0
100, 0, 0, 0
101, 0, 0, 0
102, 0, 0, 0
103, 0, 0, 0
104, 0, 0, 0
105, 0, 0, 0
106, 0, 0, 0
107, 0, 0, 0
108, 0, 0, 0
109, 0, 0, 0
110, 0, 0, 0
111, 0, 0, 0
112, 0, 0, 0
113, 0, 0, 0
114, 0, 0, 0
115, 0, 0, 0
116, 0, 0, 0
117, 0, 0, 0
118, 0, 0, 0
119, 0, 0, 0
120, 0, 0, 0
121, 0, 0, 0
122, 0, 0, 0
123, 0, 0, 0
124, 0, 0, 0
125, 0, 0, 0
126, 0, 0, 0
127, 0, 0, 0
128, 0, 0, 0
129, 0, 0, 0
130, 0, 0, 0
131, 0, 0, 0
132, 0, 0, 0
133, 0, 0, 0
134, 0, 0, 0
135, 0, 0, 0
136, 0, 0, 0
137, 0, 0, 0
138, 0, 0, 0
139, 0, 0, 0
140, 0, 0, 0
141, 0, 0, 0
142, 0, 0, 0
143, 0, 0, 0
144, 0, 0, 0
145, 0, 0, 0
146, 0, 0, 0
147, 0, 0, 0
148, 0, 0, 0
149, 0, 0, 0
150, 0, 0, 0
151, 0, 0, 0
152, 0, 0, 0
153, 0, 0, 0
154, 0, 0, 0
155, 0, 0, 0
156, 0, 0, 0
157, 0, 0, 0
158, 0, 0, 0
159, 0, 0, 0
160, 0, 0, 0
161, 0, 0, 0
162, 0, 0, 0
163, 0, 0, 0
164, 0, 0, 0
165, 0, 0, 0
166, 0, 0, 0
167, 0, 0, 0
168, 0, 0, 0
169, 0, 0, 0
170, 0, 0, 0
171, 0, 0, 0
172, 0, 0, 0
173, 0, 0, 0
174, 0, 0, 0
175, 0, 0, 0
176, 0, 0, 0
177, 0, 0, 0
178, 0, 0, 0
179, 0, 0, 0
