# TOPAS Version: 3.3.p1
# Parameter File: Simple_Pattern.txt
# Results for scorer MLIC_Scorer
# Scored in component: MLIC
# X in 180 bins of 0.222222 cm
# Y in 1 bin  of 10 cm
# Z in 1 bin  of 10 cm
# EnergyDeposit ( MeV ) : Sum   
0, 0, 0, 1090.940795898438
1, 0, 0, 1087.1845703125
2, 0, 0, 1095.67333984375
3, 0, 0, 1101.931274414062
4, 0, 0, 1103.207153320312
5, 0, 0, 1104.183349609375
6, 0, 0, 1115.7490234375
7, 0, 0, 1116.815063476562
8, 0, 0, 1115.050659179688
9, 0, 0, 1121.65283203125
10, 0, 0, 1132.944580078125
11, 0, 0, 1126.368041992188
12, 0, 0, 1143.10595703125
13, 0, 0, 1142.2861328125
14, 0, 0, 1144.935668945312
15, 0, 0, 1153.69677734375
16, 0, 0, 1158.693115234375
17, 0, 0, 1159.608154296875
18, 0, 0, 1157.199584960938
19, 0, 0, 1167.49755859375
20, 0, 0, 1174.919311523438
21, 0, 0, 1175.9052734375
22, 0, 0, 1196.06640625
23, 0, 0, 1181.126953125
24, 0, 0, 1190.250244140625
25, 0, 0, 1192.494750976562
26, 0, 0, 1195.031127929688
27, 0, 0, 1196.1142578125
28, 0, 0, 1200.856079101562
29, 0, 0, 1203.741333007812
30, 0, 0, 1212.15087890625
31, 0, 0, 1209.701049804688
32, 0, 0, 1227.064208984375
33, 0, 0, 1214.497802734375
34, 0, 0, 1219.7568359375
35, 0, 0, 1233.137817382812
36, 0, 0, 1227.177368164062
37, 0, 0, 1238.865966796875
38, 0, 0, 1237.344970703125
39, 0, 0, 1239.649291992188
40, 0, 0, 1243.58447265625
41, 0, 0, 1250.994018554688
42, 0, 0, 1263.037475585938
43, 0, 0, 1264.228271484375
44, 0, 0, 1277.661254882812
45, 0, 0, 1271.562377929688
46, 0, 0, 1284.447875976562
47, 0, 0, 1293.26611328125
48, 0, 0, 1291.401489257812
49, 0, 0, 1294.390014648438
50, 0, 0, 1311.049560546875
51, 0, 0, 1311.364624023438
52, 0, 0, 1307.295776367188
53, 0, 0, 1327.290283203125
54, 0, 0, 1338.256469726562
55, 0, 0, 1347.993408203125
56, 0, 0, 1361.643310546875
57, 0, 0, 1359.018188476562
58, 0, 0, 1372.999755859375
59, 0, 0, 1384.777587890625
60, 0, 0, 1401.619262695312
61, 0, 0, 1412.64306640625
62, 0, 0, 1429.248657226562
63, 0, 0, 1441.212524414062
64, 0, 0, 1459.415405273438
65, 0, 0, 1472.100341796875
66, 0, 0, 1498.596069335938
67, 0, 0, 1529.889282226562
68, 0, 0, 1535.491943359375
69, 0, 0, 1560.655395507812
70, 0, 0, 1574.433227539062
71, 0, 0, 1588.014282226562
72, 0, 0, 1612.31103515625
73, 0, 0, 1653.5703125
74, 0, 0, 1687.345947265625
75, 0, 0, 1702.535278320312
76, 0, 0, 1740.683837890625
77, 0, 0, 1773.9677734375
78, 0, 0, 1835.109008789062
79, 0, 0, 1872.404907226562
80, 0, 0, 1937.299438476562
81, 0, 0, 1999.027954101562
82, 0, 0, 2071.32666015625
83, 0, 0, 2156.948486328125
84, 0, 0, 2263.3134765625
85, 0, 0, 2377.94580078125
86, 0, 0, 2540.633544921875
87, 0, 0, 2753.01513671875
88, 0, 0, 3038.6943359375
89, 0, 0, 3446.017333984375
90, 0, 0, 4094.41259765625
91, 0, 0, 4453.29638671875
92, 0, 0, 4201.26171875
93, 0, 0, 3402.4482421875
94, 0, 0, 1721.815063476562
95, 0, 0, 544.708984375
96, 0, 0, 97.11402893066406
97, 0, 0, 0.2883076667785645
98, 0, 0, 0.01205063331872225
99, 0, 0, 0
100, 0, 0, 0.003487205831333995
101, 0, 0, 0
102, 0, 0, 0.03859315067529678
103, 0, 0, 0
104, 0, 0, 0.01543971989303827
105, 0, 0, 0.005435653030872345
106, 0, 0, 0.01823977939784527
107, 0, 0, 0
108, 0, 0, 0.0458623431622982
109, 0, 0, 0
110, 0, 0, 0
111, 0, 0, 0
112, 0, 0, 0.07686194777488708
113, 0, 0, 0
114, 0, 0, 0.06109904497861862
115, 0, 0, 0
116, 0, 0, 0.03407379984855652
117, 0, 0, 0.04088976606726646
118, 0, 0, 0
119, 0, 0, 0.01837962679564953
120, 0, 0, 0.01574800536036491
121, 0, 0, 0
122, 0, 0, 0.01978767663240433
123, 0, 0, 0
124, 0, 0, 0
125, 0, 0, 0.001738259801641107
126, 0, 0, 0
127, 0, 0, 0
128, 0, 0, 0.03079219907522202
129, 0, 0, 0
130, 0, 0, 0
131, 0, 0, 0
132, 0, 0, 0.1514887660741806
133, 0, 0, 0
134, 0, 0, 0
135, 0, 0, 0.06700558960437775
136, 0, 0, 0.001718252431601286
137, 0, 0, 0
138, 0, 0, 0
139, 0, 0, 0.01000087987631559
140, 0, 0, 0.05815493687987328
141, 0, 0, 0.01887350715696812
142, 0, 0, 0
143, 0, 0, 0
144, 0, 0, 0
145, 0, 0, 0
146, 0, 0, 0.04040778428316116
147, 0, 0, 0.0003903395845554769
148, 0, 0, 0
149, 0, 0, 0.002109831431880593
150, 0, 0, 0
151, 0, 0, 0
152, 0, 0, 0.07549285143613815
153, 0, 0, 0.08202660083770752
154, 0, 0, 0
155, 0, 0, 0
156, 0, 0, 0
157, 0, 0, 0.02924772538244724
158, 0, 0, 0
159, 0, 0, 0
160, 0, 0, 0
161, 0, 0, 0
162, 0, 0, 0.09528741240501404
163, 0, 0, 0
164, 0, 0, 0
165, 0, 0, 0.001520014018751681
166, 0, 0, 0
167, 0, 0, 0
168, 0, 0, 0
169, 0, 0, 0
170, 0, 0, 0
171, 0, 0, 0
172, 0, 0, 0
173, 0, 0, 0
174, 0, 0, 0
175, 0, 0, 0
176, 0, 0, 0
177, 0, 0, 0
178, 0, 0, 0.03176967799663544
179, 0, 0, 0
