# TOPAS Version: 3.3.p1
# Parameter File: Simple_Pattern.txt
# Results for scorer MLIC_Scorer
# Scored in component: MLIC
# X in 180 bins of 0.222222 cm
# Y in 1 bin  of 10 cm
# Z in 1 bin  of 10 cm
# EnergyDeposit ( MeV ) : Sum   
0, 0, 0, 32.54780197143555
1, 0, 0, 32.64043045043945
2, 0, 0, 33.61877822875977
3, 0, 0, 33.32854461669922
4, 0, 0, 32.43840789794922
5, 0, 0, 32.83475875854492
6, 0, 0, 34.90007400512695
7, 0, 0, 34.85379791259766
8, 0, 0, 33.29692840576172
9, 0, 0, 33.26757049560547
10, 0, 0, 34.90034866333008
11, 0, 0, 33.95018768310547
12, 0, 0, 32.48915100097656
13, 0, 0, 35.79208755493164
14, 0, 0, 34.95367813110352
15, 0, 0, 34.04843521118164
16, 0, 0, 35.21941375732422
17, 0, 0, 36.20388031005859
18, 0, 0, 35.69606018066406
19, 0, 0, 37.08367538452148
20, 0, 0, 35.71120071411133
21, 0, 0, 36.58854675292969
22, 0, 0, 35.93611526489258
23, 0, 0, 37.33806228637695
24, 0, 0, 35.75051498413086
25, 0, 0, 36.7974853515625
26, 0, 0, 38.11212921142578
27, 0, 0, 37.39031982421875
28, 0, 0, 38.52688598632812
29, 0, 0, 38.77820587158203
30, 0, 0, 38.24816513061523
31, 0, 0, 38.93816757202148
32, 0, 0, 37.55712509155273
33, 0, 0, 38.00014495849609
34, 0, 0, 35.53983688354492
35, 0, 0, 34.68325805664062
36, 0, 0, 36.96788024902344
37, 0, 0, 36.96066284179688
38, 0, 0, 37.25866317749023
39, 0, 0, 38.83869552612305
40, 0, 0, 37.99235534667969
41, 0, 0, 37.45603179931641
42, 0, 0, 34.88841247558594
43, 0, 0, 35.28636169433594
44, 0, 0, 35.63749694824219
45, 0, 0, 37.66944885253906
46, 0, 0, 37.07334899902344
47, 0, 0, 36.74410629272461
48, 0, 0, 36.46767807006836
49, 0, 0, 36.97623825073242
50, 0, 0, 36.15806579589844
51, 0, 0, 37.45943450927734
52, 0, 0, 37.85669326782227
53, 0, 0, 38.8198127746582
54, 0, 0, 36.89772796630859
55, 0, 0, 37.58159637451172
56, 0, 0, 38.55188751220703
57, 0, 0, 39.14763641357422
58, 0, 0, 39.06473159790039
59, 0, 0, 38.79739379882812
60, 0, 0, 39.52341079711914
61, 0, 0, 41.96967697143555
62, 0, 0, 41.07109069824219
63, 0, 0, 41.47788238525391
64, 0, 0, 42.3684196472168
65, 0, 0, 42.53024291992188
66, 0, 0, 43.50601577758789
67, 0, 0, 43.98761367797852
68, 0, 0, 44.05703735351562
69, 0, 0, 44.60131072998047
70, 0, 0, 46.34616470336914
71, 0, 0, 48.68558502197266
72, 0, 0, 48.64198684692383
73, 0, 0, 49.44690322875977
74, 0, 0, 49.03670501708984
75, 0, 0, 52.1578254699707
76, 0, 0, 52.31122589111328
77, 0, 0, 54.00438690185547
78, 0, 0, 54.2047233581543
79, 0, 0, 57.38181304931641
80, 0, 0, 57.62583541870117
81, 0, 0, 59.07816696166992
82, 0, 0, 61.64226913452148
83, 0, 0, 62.28814697265625
84, 0, 0, 65.01845550537109
85, 0, 0, 69.10976409912109
86, 0, 0, 74.18716430664062
87, 0, 0, 80.14868927001953
88, 0, 0, 90.13509368896484
89, 0, 0, 104.4673538208008
90, 0, 0, 118.4702911376953
91, 0, 0, 127.2247161865234
92, 0, 0, 150.5405731201172
93, 0, 0, 90.87129211425781
94, 0, 0, 48.22360610961914
95, 0, 0, 18.82842254638672
96, 0, 0, 0
97, 0, 0, 0
98, 0, 0, 0
99, 0, 0, 0
100, 0, 0, 0
101, 0, 0, 0
102, 0, 0, 0
103, 0, 0, 0
104, 0, 0, 0
105, 0, 0, 0
106, 0, 0, 0
107, 0, 0, 0
108, 0, 0, 0
109, 0, 0, 0
110, 0, 0, 0
111, 0, 0, 0
112, 0, 0, 0.04211491346359253
113, 0, 0, 0
114, 0, 0, 0
115, 0, 0, 0
116, 0, 0, 0
117, 0, 0, 0
118, 0, 0, 0
119, 0, 0, 0
120, 0, 0, 0
121, 0, 0, 0
122, 0, 0, 0
123, 0, 0, 0
124, 0, 0, 0
125, 0, 0, 0
126, 0, 0, 0
127, 0, 0, 0
128, 0, 0, 0
129, 0, 0, 0
130, 0, 0, 0
131, 0, 0, 0
132, 0, 0, 0
133, 0, 0, 0
134, 0, 0, 0.01323323510587215
135, 0, 0, 0
136, 0, 0, 0
137, 0, 0, 0
138, 0, 0, 0
139, 0, 0, 0
140, 0, 0, 0
141, 0, 0, 0
142, 0, 0, 0
143, 0, 0, 0
144, 0, 0, 0
145, 0, 0, 0
146, 0, 0, 0
147, 0, 0, 0
148, 0, 0, 0
149, 0, 0, 0
150, 0, 0, 0
151, 0, 0, 0
152, 0, 0, 0
153, 0, 0, 0
154, 0, 0, 0
155, 0, 0, 0
156, 0, 0, 0
157, 0, 0, 0
158, 0, 0, 0
159, 0, 0, 0
160, 0, 0, 0
161, 0, 0, 0
162, 0, 0, 0
163, 0, 0, 0
164, 0, 0, 0
165, 0, 0, 0
166, 0, 0, 0
167, 0, 0, 0
168, 0, 0, 0
169, 0, 0, 0
170, 0, 0, 0
171, 0, 0, 0
172, 0, 0, 0
173, 0, 0, 0
174, 0, 0, 0
175, 0, 0, 0
176, 0, 0, 0
177, 0, 0, 0
178, 0, 0, 0
179, 0, 0, 0
