# TOPAS Version: 3.3.p1
# Parameter File: Simple_Pattern.txt
# Results for scorer MLIC_Scorer
# Scored in component: MLIC
# X in 165 bins of 0.2 cm
# Y in 1 bin  of 10 cm
# Z in 1 bin  of 10 cm
# EnergyDeposit ( MeV ) : Sum   
0, 0, 0, 0
1, 0, 0, 0
2, 0, 0, 0
3, 0, 0, 0
4, 0, 0, 0
5, 0, 0, 0
6, 0, 0, 0
7, 0, 0, 0
8, 0, 0, 0
9, 0, 0, 0
10, 0, 0, 0
11, 0, 0, 0
12, 0, 0, 0
13, 0, 0, 0
14, 0, 0, 0
15, 0, 0, 0
16, 0, 0, 0
17, 0, 0, 0
18, 0, 0, 0
19, 0, 0, 0
20, 0, 0, 0
21, 0, 0, 0
22, 0, 0, 0
23, 0, 0, 0
24, 0, 0, 0
25, 0, 0, 0
26, 0, 0, 0
27, 0, 0, 0
28, 0, 0, 0
29, 0, 0, 0
30, 0, 0, 0
31, 0, 0, 0
32, 0, 0, 0
33, 0, 0, 0.01584982685744762
34, 0, 0, 0
35, 0, 0, 0
36, 0, 0, 0
37, 0, 0, 0
38, 0, 0, 0
39, 0, 0, 0
40, 0, 0, 0
41, 0, 0, 0
42, 0, 0, 0
43, 0, 0, 16.36006355285645
44, 0, 0, 40.00071716308594
45, 0, 0, 165.52880859375
46, 0, 0, 547.7040405273438
47, 0, 0, 1522.880004882812
48, 0, 0, 2868.012939453125
49, 0, 0, 4602.66064453125
50, 0, 0, 5526.42333984375
51, 0, 0, 5568.69091796875
52, 0, 0, 4889.40966796875
53, 0, 0, 4204.16259765625
54, 0, 0, 3690.085205078125
55, 0, 0, 3340.108154296875
56, 0, 0, 3095.024658203125
57, 0, 0, 2909.34130859375
58, 0, 0, 2752.60009765625
59, 0, 0, 2614.036376953125
60, 0, 0, 2502.061767578125
61, 0, 0, 2412.3193359375
62, 0, 0, 2330.22314453125
63, 0, 0, 2257.741943359375
64, 0, 0, 2188.35205078125
65, 0, 0, 2129.074462890625
66, 0, 0, 2068.56298828125
67, 0, 0, 2020.394409179688
68, 0, 0, 1966.653930664062
69, 0, 0, 1926.824462890625
70, 0, 0, 1887.609252929688
71, 0, 0, 1847.849487304688
72, 0, 0, 1814.643676757812
73, 0, 0, 1779.569091796875
74, 0, 0, 1749.81396484375
75, 0, 0, 1717.591186523438
76, 0, 0, 1698.905517578125
77, 0, 0, 1658.731811523438
78, 0, 0, 1639.777954101562
79, 0, 0, 1615.002807617188
80, 0, 0, 1585.383178710938
81, 0, 0, 1573.704223632812
82, 0, 0, 1551.744873046875
83, 0, 0, 1529.867065429688
84, 0, 0, 1518.659423828125
85, 0, 0, 1496.483764648438
86, 0, 0, 1484.83154296875
87, 0, 0, 1457.545532226562
88, 0, 0, 1446.364379882812
89, 0, 0, 1435.935791015625
90, 0, 0, 1417.274658203125
91, 0, 0, 1401.742431640625
92, 0, 0, 1387.255493164062
93, 0, 0, 1373.636474609375
94, 0, 0, 1359.37890625
95, 0, 0, 1356.294555664062
96, 0, 0, 1339.179321289062
97, 0, 0, 1329.593505859375
98, 0, 0, 1309.5576171875
99, 0, 0, 1299.2353515625
100, 0, 0, 1291.750854492188
101, 0, 0, 1288.1123046875
102, 0, 0, 1266.118530273438
103, 0, 0, 1258.731323242188
104, 0, 0, 1251.556518554688
105, 0, 0, 1239.474853515625
106, 0, 0, 1227.243774414062
107, 0, 0, 1221.331909179688
108, 0, 0, 1220.831298828125
109, 0, 0, 1214.299438476562
110, 0, 0, 1194.291259765625
111, 0, 0, 1187.604614257812
112, 0, 0, 1184.78369140625
113, 0, 0, 1177.373413085938
114, 0, 0, 1175.78125
115, 0, 0, 1172.524780273438
116, 0, 0, 1151.385131835938
117, 0, 0, 1147.717651367188
118, 0, 0, 1144.760620117188
119, 0, 0, 1142.060302734375
120, 0, 0, 1129.7109375
121, 0, 0, 1121.828857421875
122, 0, 0, 1120.501708984375
123, 0, 0, 1116.665771484375
124, 0, 0, 1108.350952148438
125, 0, 0, 1102.311279296875
126, 0, 0, 1106.105590820312
127, 0, 0, 1080.684814453125
128, 0, 0, 1079.25537109375
129, 0, 0, 1085.127197265625
130, 0, 0, 1067.808349609375
131, 0, 0, 1067.85302734375
132, 0, 0, 1061.727661132812
133, 0, 0, 1055.822265625
134, 0, 0, 1052.268920898438
135, 0, 0, 1047.025634765625
136, 0, 0, 1040.102661132812
137, 0, 0, 1035.340698242188
138, 0, 0, 1034.997924804688
139, 0, 0, 1030.302734375
140, 0, 0, 1023.436462402344
141, 0, 0, 1028.4013671875
142, 0, 0, 1013.259521484375
143, 0, 0, 1015.429138183594
144, 0, 0, 1012.349792480469
145, 0, 0, 1002.316284179688
146, 0, 0, 996.8843383789062
147, 0, 0, 990.8709106445312
148, 0, 0, 990.7704467773438
149, 0, 0, 990.9833374023438
150, 0, 0, 985.5618896484375
151, 0, 0, 979.7869873046875
152, 0, 0, 972.4605102539062
153, 0, 0, 973.8403930664062
154, 0, 0, 971.1689453125
155, 0, 0, 974.4883422851562
156, 0, 0, 960.9664306640625
157, 0, 0, 962.4190063476562
158, 0, 0, 960.7874755859375
159, 0, 0, 953.0691528320312
160, 0, 0, 948.9799194335938
161, 0, 0, 940.4617919921875
162, 0, 0, 943.9321899414062
163, 0, 0, 940.7992553710938
164, 0, 0, 936.1344604492188
