# TOPAS Version: 3.3.p1
# Parameter File: Simple_Pattern.txt
# Results for scorer MLIC_Scorer
# Scored in component: MLIC
# X in 180 bins of 0.222222 cm
# Y in 1 bin  of 10 cm
# Z in 1 bin  of 10 cm
# EnergyDeposit ( MeV ) : Sum   
0, 0, 0, 42.76758575439453
1, 0, 0, 43.5919189453125
2, 0, 0, 44.43216323852539
3, 0, 0, 43.58930206298828
4, 0, 0, 44.949951171875
5, 0, 0, 43.76296615600586
6, 0, 0, 42.748046875
7, 0, 0, 45.70534133911133
8, 0, 0, 45.42755889892578
9, 0, 0, 45.24678421020508
10, 0, 0, 45.49367141723633
11, 0, 0, 43.46597671508789
12, 0, 0, 45.7635612487793
13, 0, 0, 46.95019149780273
14, 0, 0, 47.46865463256836
15, 0, 0, 45.89260482788086
16, 0, 0, 47.0562858581543
17, 0, 0, 47.62370681762695
18, 0, 0, 46.38784790039062
19, 0, 0, 48.0714225769043
20, 0, 0, 47.27001953125
21, 0, 0, 47.50122451782227
22, 0, 0, 48.26633453369141
23, 0, 0, 47.9267692565918
24, 0, 0, 48.6630744934082
25, 0, 0, 49.53929901123047
26, 0, 0, 51.22161102294922
27, 0, 0, 50.00011825561523
28, 0, 0, 48.89117813110352
29, 0, 0, 51.10023498535156
30, 0, 0, 51.44234848022461
31, 0, 0, 54.30987167358398
32, 0, 0, 52.35627365112305
33, 0, 0, 52.5523567199707
34, 0, 0, 50.79435729980469
35, 0, 0, 53.63328170776367
36, 0, 0, 54.21681594848633
37, 0, 0, 53.85280990600586
38, 0, 0, 54.08150863647461
39, 0, 0, 54.11149597167969
40, 0, 0, 55.58608627319336
41, 0, 0, 55.94965744018555
42, 0, 0, 57.7950439453125
43, 0, 0, 57.87192153930664
44, 0, 0, 57.06890487670898
45, 0, 0, 57.90750885009766
46, 0, 0, 57.59494400024414
47, 0, 0, 58.58147430419922
48, 0, 0, 59.40719604492188
49, 0, 0, 59.93136215209961
50, 0, 0, 60.74654006958008
51, 0, 0, 61.04615783691406
52, 0, 0, 61.54682922363281
53, 0, 0, 63.31572723388672
54, 0, 0, 64.37454986572266
55, 0, 0, 65.34686279296875
56, 0, 0, 66.05078125
57, 0, 0, 65.78254699707031
58, 0, 0, 68.22140502929688
59, 0, 0, 70.15866088867188
60, 0, 0, 72.17078399658203
61, 0, 0, 71.73632049560547
62, 0, 0, 70.57640838623047
63, 0, 0, 72.26149749755859
64, 0, 0, 74.93345642089844
65, 0, 0, 76.75641632080078
66, 0, 0, 78.30389404296875
67, 0, 0, 80.11940765380859
68, 0, 0, 81.66527557373047
69, 0, 0, 84.85230255126953
70, 0, 0, 87.99852752685547
71, 0, 0, 90.76253509521484
72, 0, 0, 91.95355987548828
73, 0, 0, 97.83351898193359
74, 0, 0, 100.4084014892578
75, 0, 0, 107.7947540283203
76, 0, 0, 114.1216278076172
77, 0, 0, 126.6037292480469
78, 0, 0, 133.5561981201172
79, 0, 0, 152.9417877197266
80, 0, 0, 124.089111328125
81, 0, 0, 91.10183715820312
82, 0, 0, 95.14250946044922
83, 0, 0, 78.9036865234375
84, 0, 0, 84.30799865722656
85, 0, 0, 86.84024047851562
86, 0, 0, 96.06620025634766
87, 0, 0, 104.0866241455078
88, 0, 0, 119.699821472168
89, 0, 0, 125.6632843017578
90, 0, 0, 160.8939819335938
91, 0, 0, 175.9762420654297
92, 0, 0, 149.3357696533203
93, 0, 0, 80.672119140625
94, 0, 0, 47.19049072265625
95, 0, 0, 5.361786365509033
96, 0, 0, 0
97, 0, 0, 0
98, 0, 0, 0
99, 0, 0, 0
100, 0, 0, 0
101, 0, 0, 0
102, 0, 0, 0
103, 0, 0, 0
104, 0, 0, 0
105, 0, 0, 0
106, 0, 0, 0
107, 0, 0, 0
108, 0, 0, 0
109, 0, 0, 0
110, 0, 0, 0
111, 0, 0, 0
112, 0, 0, 0
113, 0, 0, 0
114, 0, 0, 0
115, 0, 0, 0
116, 0, 0, 0
117, 0, 0, 0
118, 0, 0, 0
119, 0, 0, 0
120, 0, 0, 0
121, 0, 0, 0
122, 0, 0, 0
123, 0, 0, 0
124, 0, 0, 0
125, 0, 0, 0
126, 0, 0, 0
127, 0, 0, 0
128, 0, 0, 0
129, 0, 0, 0
130, 0, 0, 0
131, 0, 0, 0
132, 0, 0, 0
133, 0, 0, 0
134, 0, 0, 0
135, 0, 0, 0
136, 0, 0, 0
137, 0, 0, 0
138, 0, 0, 0
139, 0, 0, 0
140, 0, 0, 0
141, 0, 0, 0
142, 0, 0, 0
143, 0, 0, 0
144, 0, 0, 0
145, 0, 0, 0
146, 0, 0, 0
147, 0, 0, 0
148, 0, 0, 0
149, 0, 0, 0
150, 0, 0, 0
151, 0, 0, 0
152, 0, 0, 0
153, 0, 0, 0
154, 0, 0, 0
155, 0, 0, 0
156, 0, 0, 0
157, 0, 0, 0
158, 0, 0, 0
159, 0, 0, 0
160, 0, 0, 0
161, 0, 0, 0
162, 0, 0, 0
163, 0, 0, 0
164, 0, 0, 0
165, 0, 0, 0
166, 0, 0, 0
167, 0, 0, 0
168, 0, 0, 0
169, 0, 0, 0
170, 0, 0, 0
171, 0, 0, 0
172, 0, 0, 0
173, 0, 0, 0
174, 0, 0, 0
175, 0, 0, 0
176, 0, 0, 0
177, 0, 0, 0
178, 0, 0, 0
179, 0, 0, 0
