# TOPAS Version: 3.3.p1
# Parameter File: Simple_Pattern.txt
# Results for scorer MLIC_Scorer
# Scored in component: MLIC
# X in 180 bins of 0.222222 cm
# Y in 1 bin  of 10 cm
# Z in 1 bin  of 10 cm
# EnergyDeposit ( MeV ) : Sum   
0, 0, 0, 46.15525436401367
1, 0, 0, 47.55508422851562
2, 0, 0, 46.19521713256836
3, 0, 0, 47.41991424560547
4, 0, 0, 46.82632827758789
5, 0, 0, 45.97109603881836
6, 0, 0, 49.43563461303711
7, 0, 0, 47.94770812988281
8, 0, 0, 48.84249114990234
9, 0, 0, 49.15446472167969
10, 0, 0, 49.1436767578125
11, 0, 0, 49.54714584350586
12, 0, 0, 50.06806182861328
13, 0, 0, 50.43333435058594
14, 0, 0, 51.7333984375
15, 0, 0, 49.66614532470703
16, 0, 0, 49.63275527954102
17, 0, 0, 51.00099182128906
18, 0, 0, 50.91531753540039
19, 0, 0, 49.64252471923828
20, 0, 0, 51.17151641845703
21, 0, 0, 51.42913055419922
22, 0, 0, 50.30329513549805
23, 0, 0, 53.19721221923828
24, 0, 0, 52.68489074707031
25, 0, 0, 54.27693176269531
26, 0, 0, 52.64381790161133
27, 0, 0, 54.26453018188477
28, 0, 0, 52.23287582397461
29, 0, 0, 55.00951766967773
30, 0, 0, 54.99786376953125
31, 0, 0, 54.25358200073242
32, 0, 0, 54.65310668945312
33, 0, 0, 55.9830207824707
34, 0, 0, 56.53092575073242
35, 0, 0, 55.93471908569336
36, 0, 0, 56.96872329711914
37, 0, 0, 55.88627243041992
38, 0, 0, 55.74912261962891
39, 0, 0, 58.54129409790039
40, 0, 0, 58.12678527832031
41, 0, 0, 59.34979629516602
42, 0, 0, 59.23899078369141
43, 0, 0, 60.80123138427734
44, 0, 0, 59.71078872680664
45, 0, 0, 60.33243942260742
46, 0, 0, 62.40400314331055
47, 0, 0, 60.86087036132812
48, 0, 0, 62.60477066040039
49, 0, 0, 64.31615447998047
50, 0, 0, 63.66255569458008
51, 0, 0, 63.656982421875
52, 0, 0, 63.49664688110352
53, 0, 0, 65.07302856445312
54, 0, 0, 65.55084228515625
55, 0, 0, 67.37925720214844
56, 0, 0, 67.54163360595703
57, 0, 0, 68.42276763916016
58, 0, 0, 69.60035705566406
59, 0, 0, 72.26062774658203
60, 0, 0, 71.25630950927734
61, 0, 0, 71.12790679931641
62, 0, 0, 73.11873626708984
63, 0, 0, 74.6912841796875
64, 0, 0, 76.04298400878906
65, 0, 0, 75.80139923095703
66, 0, 0, 76.84909820556641
67, 0, 0, 77.35533905029297
68, 0, 0, 78.00643920898438
69, 0, 0, 81.91349029541016
70, 0, 0, 83.72060394287109
71, 0, 0, 84.06745147705078
72, 0, 0, 85.91815948486328
73, 0, 0, 88.4495849609375
74, 0, 0, 89.96221160888672
75, 0, 0, 92.14434051513672
76, 0, 0, 95.74824523925781
77, 0, 0, 97.36906433105469
78, 0, 0, 100.409553527832
79, 0, 0, 105.0248260498047
80, 0, 0, 110.4933929443359
81, 0, 0, 110.9447479248047
82, 0, 0, 115.1155319213867
83, 0, 0, 121.075813293457
84, 0, 0, 127.7530288696289
85, 0, 0, 134.6642150878906
86, 0, 0, 142.3731994628906
87, 0, 0, 154.8480529785156
88, 0, 0, 172.5071563720703
89, 0, 0, 196.3844451904297
90, 0, 0, 245.1440734863281
91, 0, 0, 261.4383239746094
92, 0, 0, 249.7380676269531
93, 0, 0, 180.8409271240234
94, 0, 0, 112.9628448486328
95, 0, 0, 53.27022552490234
96, 0, 0, 17.69571876525879
97, 0, 0, 0
98, 0, 0, 0
99, 0, 0, 0
100, 0, 0, 0
101, 0, 0, 0
102, 0, 0, 0
103, 0, 0, 0
104, 0, 0, 0
105, 0, 0, 0
106, 0, 0, 0
107, 0, 0, 0
108, 0, 0, 0
109, 0, 0, 0
110, 0, 0, 0
111, 0, 0, 0
112, 0, 0, 0
113, 0, 0, 0
114, 0, 0, 0
115, 0, 0, 0
116, 0, 0, 0
117, 0, 0, 0
118, 0, 0, 0
119, 0, 0, 0
120, 0, 0, 0
121, 0, 0, 0
122, 0, 0, 0
123, 0, 0, 0
124, 0, 0, 0
125, 0, 0, 0
126, 0, 0, 0
127, 0, 0, 0
128, 0, 0, 0
129, 0, 0, 0
130, 0, 0, 0
131, 0, 0, 0
132, 0, 0, 0
133, 0, 0, 0
134, 0, 0, 0
135, 0, 0, 0
136, 0, 0, 0
137, 0, 0, 0
138, 0, 0, 0
139, 0, 0, 0
140, 0, 0, 0
141, 0, 0, 0
142, 0, 0, 0
143, 0, 0, 0
144, 0, 0, 0
145, 0, 0, 0
146, 0, 0, 0
147, 0, 0, 0
148, 0, 0, 0
149, 0, 0, 0
150, 0, 0, 0
151, 0, 0, 0
152, 0, 0, 0
153, 0, 0, 0
154, 0, 0, 0
155, 0, 0, 0
156, 0, 0, 0
157, 0, 0, 0
158, 0, 0, 0
159, 0, 0, 0
160, 0, 0, 0
161, 0, 0, 0
162, 0, 0, 0
163, 0, 0, 0
164, 0, 0, 0
165, 0, 0, 0
166, 0, 0, 0
167, 0, 0, 0
168, 0, 0, 0
169, 0, 0, 0
170, 0, 0, 0
171, 0, 0, 0
172, 0, 0, 0
173, 0, 0, 0
174, 0, 0, 0
175, 0, 0, 0
176, 0, 0, 0
177, 0, 0, 0
178, 0, 0, 0
179, 0, 0, 0
