# TOPAS Version: 3.3.p1
# Parameter File: Simple_Pattern.txt
# Results for scorer MLIC_Scorer
# Scored in component: MLIC
# X in 180 bins of 0.222222 cm
# Y in 1 bin  of 10 cm
# Z in 1 bin  of 10 cm
# EnergyDeposit ( MeV ) : Sum   
0, 0, 0, 55.63199615478516
1, 0, 0, 53.82899475097656
2, 0, 0, 55.02493667602539
3, 0, 0, 53.90614700317383
4, 0, 0, 55.12038803100586
5, 0, 0, 55.13086700439453
6, 0, 0, 55.8082160949707
7, 0, 0, 56.09877777099609
8, 0, 0, 56.50855255126953
9, 0, 0, 56.16362380981445
10, 0, 0, 55.98811340332031
11, 0, 0, 55.52624893188477
12, 0, 0, 60.26325225830078
13, 0, 0, 56.95782470703125
14, 0, 0, 56.60711669921875
15, 0, 0, 59.78546142578125
16, 0, 0, 57.73206329345703
17, 0, 0, 59.56780624389648
18, 0, 0, 57.89620971679688
19, 0, 0, 58.20767211914062
20, 0, 0, 60.26962280273438
21, 0, 0, 59.41194534301758
22, 0, 0, 59.36020278930664
23, 0, 0, 60.59201049804688
24, 0, 0, 60.95468902587891
25, 0, 0, 60.55648803710938
26, 0, 0, 61.22943496704102
27, 0, 0, 63.87580490112305
28, 0, 0, 62.76899719238281
29, 0, 0, 62.90298843383789
30, 0, 0, 63.70731353759766
31, 0, 0, 65.46353912353516
32, 0, 0, 63.33786010742188
33, 0, 0, 62.73167037963867
34, 0, 0, 64.45095825195312
35, 0, 0, 65.28457641601562
36, 0, 0, 64.69281768798828
37, 0, 0, 65.92538452148438
38, 0, 0, 67.60535430908203
39, 0, 0, 67.10720825195312
40, 0, 0, 67.98800659179688
41, 0, 0, 67.51346588134766
42, 0, 0, 69.47956085205078
43, 0, 0, 69.85488128662109
44, 0, 0, 69.75045776367188
45, 0, 0, 71.28777313232422
46, 0, 0, 70.51769256591797
47, 0, 0, 72.40164947509766
48, 0, 0, 71.89485931396484
49, 0, 0, 74.76470947265625
50, 0, 0, 73.47407531738281
51, 0, 0, 74.26689910888672
52, 0, 0, 76.45919799804688
53, 0, 0, 76.08870697021484
54, 0, 0, 77.41659545898438
55, 0, 0, 76.79550170898438
56, 0, 0, 78.72289276123047
57, 0, 0, 80.38980102539062
58, 0, 0, 79.37821197509766
59, 0, 0, 83.07921600341797
60, 0, 0, 83.87825775146484
61, 0, 0, 83.94563293457031
62, 0, 0, 85.52169799804688
63, 0, 0, 86.09519958496094
64, 0, 0, 87.81636047363281
65, 0, 0, 87.72660827636719
66, 0, 0, 90.38534545898438
67, 0, 0, 92.01905059814453
68, 0, 0, 91.89337158203125
69, 0, 0, 94.71082305908203
70, 0, 0, 96.39316558837891
71, 0, 0, 99.0450439453125
72, 0, 0, 101.3599014282227
73, 0, 0, 103.0092086791992
74, 0, 0, 105.0331573486328
75, 0, 0, 106.6718978881836
76, 0, 0, 109.1122207641602
77, 0, 0, 114.995361328125
78, 0, 0, 117.1102752685547
79, 0, 0, 120.9079284667969
80, 0, 0, 126.037727355957
81, 0, 0, 128.28857421875
82, 0, 0, 135.6915283203125
83, 0, 0, 140.0936126708984
84, 0, 0, 148.9465179443359
85, 0, 0, 155.7241058349609
86, 0, 0, 168.0967559814453
87, 0, 0, 181.5879364013672
88, 0, 0, 200.7105407714844
89, 0, 0, 230.9974365234375
90, 0, 0, 280.964111328125
91, 0, 0, 304.1576538085938
92, 0, 0, 327.8902893066406
93, 0, 0, 201.9959869384766
94, 0, 0, 117.3286972045898
95, 0, 0, 43.68313217163086
96, 0, 0, 12.21020889282227
97, 0, 0, 0.02701643109321594
98, 0, 0, 0
99, 0, 0, 0
100, 0, 0, 0
101, 0, 0, 0
102, 0, 0, 0
103, 0, 0, 0
104, 0, 0, 0
105, 0, 0, 0.0001102865135180764
106, 0, 0, 0
107, 0, 0, 0
108, 0, 0, 0
109, 0, 0, 0
110, 0, 0, 0
111, 0, 0, 0
112, 0, 0, 0
113, 0, 0, 0
114, 0, 0, 0
115, 0, 0, 0
116, 0, 0, 0
117, 0, 0, 0.03800160065293312
118, 0, 0, 0
119, 0, 0, 0
120, 0, 0, 0.005653638392686844
121, 0, 0, 0
122, 0, 0, 0
123, 0, 0, 0
124, 0, 0, 0
125, 0, 0, 0
126, 0, 0, 0
127, 0, 0, 0
128, 0, 0, 0
129, 0, 0, 0
130, 0, 0, 0
131, 0, 0, 0
132, 0, 0, 0
133, 0, 0, 0
134, 0, 0, 0
135, 0, 0, 0
136, 0, 0, 0
137, 0, 0, 0
138, 0, 0, 0
139, 0, 0, 0
140, 0, 0, 0
141, 0, 0, 0
142, 0, 0, 0
143, 0, 0, 0
144, 0, 0, 0
145, 0, 0, 0
146, 0, 0, 0
147, 0, 0, 0
148, 0, 0, 0
149, 0, 0, 0
150, 0, 0, 0
151, 0, 0, 0
152, 0, 0, 0
153, 0, 0, 0
154, 0, 0, 0
155, 0, 0, 0
156, 0, 0, 0
157, 0, 0, 0
158, 0, 0, 0
159, 0, 0, 0
160, 0, 0, 0
161, 0, 0, 0
162, 0, 0, 0
163, 0, 0, 0
164, 0, 0, 0
165, 0, 0, 0
166, 0, 0, 0
167, 0, 0, 0
168, 0, 0, 0
169, 0, 0, 0
170, 0, 0, 0
171, 0, 0, 0
172, 0, 0, 0
173, 0, 0, 0
174, 0, 0, 0
175, 0, 0, 0
176, 0, 0, 0
177, 0, 0, 0
178, 0, 0, 0
179, 0, 0, 0
