# TOPAS Version: 3.3.p1
# Parameter File: Simple_Pattern.txt
# Results for scorer MLIC_Scorer
# Scored in component: MLIC
# X in 180 bins of 0.222222 cm
# Y in 1 bin  of 10 cm
# Z in 1 bin  of 10 cm
# EnergyDeposit ( MeV ) : Sum   
0, 0, 0, 43.54484176635742
1, 0, 0, 41.59253692626953
2, 0, 0, 42.82237243652344
3, 0, 0, 42.48404312133789
4, 0, 0, 43.09696960449219
5, 0, 0, 43.60171508789062
6, 0, 0, 42.86063003540039
7, 0, 0, 42.20598220825195
8, 0, 0, 43.25714492797852
9, 0, 0, 44.81204986572266
10, 0, 0, 45.4298095703125
11, 0, 0, 44.53973007202148
12, 0, 0, 45.07578659057617
13, 0, 0, 43.84461975097656
14, 0, 0, 44.41332626342773
15, 0, 0, 44.31880187988281
16, 0, 0, 46.11357498168945
17, 0, 0, 45.52037048339844
18, 0, 0, 45.95372772216797
19, 0, 0, 45.88408279418945
20, 0, 0, 46.55985260009766
21, 0, 0, 46.93479156494141
22, 0, 0, 48.38144683837891
23, 0, 0, 47.05237197875977
24, 0, 0, 46.8324089050293
25, 0, 0, 49.79455947875977
26, 0, 0, 48.35060119628906
27, 0, 0, 50.25856781005859
28, 0, 0, 48.84847640991211
29, 0, 0, 50.50573348999023
30, 0, 0, 48.79711151123047
31, 0, 0, 48.44449234008789
32, 0, 0, 49.99721908569336
33, 0, 0, 50.01680755615234
34, 0, 0, 50.02446365356445
35, 0, 0, 52.45375823974609
36, 0, 0, 52.24991989135742
37, 0, 0, 53.2026481628418
38, 0, 0, 52.88152313232422
39, 0, 0, 54.1841926574707
40, 0, 0, 52.82686996459961
41, 0, 0, 53.15825271606445
42, 0, 0, 54.15212631225586
43, 0, 0, 54.20326232910156
44, 0, 0, 54.00318908691406
45, 0, 0, 54.68289184570312
46, 0, 0, 55.41231155395508
47, 0, 0, 57.17892837524414
48, 0, 0, 57.36898803710938
49, 0, 0, 56.77092742919922
50, 0, 0, 58.087158203125
51, 0, 0, 57.89126586914062
52, 0, 0, 59.49613189697266
53, 0, 0, 60.29535675048828
54, 0, 0, 59.50458908081055
55, 0, 0, 60.16926956176758
56, 0, 0, 61.23467636108398
57, 0, 0, 61.74739456176758
58, 0, 0, 64.14813232421875
59, 0, 0, 65.27669525146484
60, 0, 0, 65.33095550537109
61, 0, 0, 64.98678588867188
62, 0, 0, 64.86861419677734
63, 0, 0, 67.73036956787109
64, 0, 0, 68.44563293457031
65, 0, 0, 70.2996826171875
66, 0, 0, 69.18865203857422
67, 0, 0, 71.96662902832031
68, 0, 0, 73.11496734619141
69, 0, 0, 75.11322784423828
70, 0, 0, 77.47673034667969
71, 0, 0, 75.92597961425781
72, 0, 0, 77.25835418701172
73, 0, 0, 80.49638366699219
74, 0, 0, 82.92156982421875
75, 0, 0, 85.57110595703125
76, 0, 0, 86.79737854003906
77, 0, 0, 89.51748657226562
78, 0, 0, 91.43119812011719
79, 0, 0, 95.05793762207031
80, 0, 0, 98.65044403076172
81, 0, 0, 102.0514450073242
82, 0, 0, 106.8423843383789
83, 0, 0, 110.8059539794922
84, 0, 0, 116.2214889526367
85, 0, 0, 125.3393478393555
86, 0, 0, 134.3604278564453
87, 0, 0, 144.0473785400391
88, 0, 0, 162.2972564697266
89, 0, 0, 188.3088684082031
90, 0, 0, 225.1612091064453
91, 0, 0, 230.7558135986328
92, 0, 0, 268.0276184082031
93, 0, 0, 112.1885299682617
94, 0, 0, 83.51824188232422
95, 0, 0, 24.59976959228516
96, 0, 0, 10.67510604858398
97, 0, 0, 0
98, 0, 0, 0
99, 0, 0, 0
100, 0, 0, 0
101, 0, 0, 0
102, 0, 0, 0
103, 0, 0, 0
104, 0, 0, 0
105, 0, 0, 0
106, 0, 0, 0
107, 0, 0, 0
108, 0, 0, 0
109, 0, 0, 0
110, 0, 0, 0
111, 0, 0, 0
112, 0, 0, 0
113, 0, 0, 0
114, 0, 0, 0
115, 0, 0, 0
116, 0, 0, 0
117, 0, 0, 0
118, 0, 0, 0
119, 0, 0, 0
120, 0, 0, 0
121, 0, 0, 0
122, 0, 0, 0
123, 0, 0, 0
124, 0, 0, 0
125, 0, 0, 0
126, 0, 0, 0
127, 0, 0, 0
128, 0, 0, 0
129, 0, 0, 0
130, 0, 0, 0
131, 0, 0, 0
132, 0, 0, 0
133, 0, 0, 0
134, 0, 0, 0
135, 0, 0, 0
136, 0, 0, 0
137, 0, 0, 0
138, 0, 0, 0
139, 0, 0, 0
140, 0, 0, 0
141, 0, 0, 0
142, 0, 0, 0
143, 0, 0, 0
144, 0, 0, 0
145, 0, 0, 0
146, 0, 0, 0
147, 0, 0, 0
148, 0, 0, 0
149, 0, 0, 0
150, 0, 0, 0
151, 0, 0, 0
152, 0, 0, 0
153, 0, 0, 0
154, 0, 0, 0
155, 0, 0, 0
156, 0, 0, 0
157, 0, 0, 0
158, 0, 0, 0
159, 0, 0, 0
160, 0, 0, 0
161, 0, 0, 0
162, 0, 0, 0
163, 0, 0, 0
164, 0, 0, 0
165, 0, 0, 0
166, 0, 0, 0
167, 0, 0, 0
168, 0, 0, 0
169, 0, 0, 0
170, 0, 0, 0
171, 0, 0, 0
172, 0, 0, 0
173, 0, 0, 0
174, 0, 0, 0
175, 0, 0, 0
176, 0, 0, 0
177, 0, 0, 0
178, 0, 0, 0
179, 0, 0, 0
