# TOPAS Version: 3.3.p1
# Parameter File: Simple_Pattern.txt
# Results for scorer MLIC_Scorer
# Scored in component: MLIC
# X in 180 bins of 0.222222 cm
# Y in 1 bin  of 10 cm
# Z in 1 bin  of 10 cm
# EnergyDeposit ( MeV ) : Sum   
0, 0, 0, 100.3311080932617
1, 0, 0, 102.3873443603516
2, 0, 0, 100.1512298583984
3, 0, 0, 98.81407165527344
4, 0, 0, 101.8783721923828
5, 0, 0, 103.7859725952148
6, 0, 0, 100.8776779174805
7, 0, 0, 101.4258880615234
8, 0, 0, 102.9801025390625
9, 0, 0, 105.5023574829102
10, 0, 0, 106.7249908447266
11, 0, 0, 102.1156845092773
12, 0, 0, 102.9991836547852
13, 0, 0, 105.2709121704102
14, 0, 0, 106.6822128295898
15, 0, 0, 107.6115875244141
16, 0, 0, 107.3064651489258
17, 0, 0, 107.2946624755859
18, 0, 0, 110.4429473876953
19, 0, 0, 108.3491058349609
20, 0, 0, 107.8742904663086
21, 0, 0, 112.0664672851562
22, 0, 0, 110.7838897705078
23, 0, 0, 111.2991790771484
24, 0, 0, 111.2715072631836
25, 0, 0, 113.0072860717773
26, 0, 0, 115.1871948242188
27, 0, 0, 115.6800689697266
28, 0, 0, 112.1744155883789
29, 0, 0, 115.3114242553711
30, 0, 0, 115.600700378418
31, 0, 0, 115.7317810058594
32, 0, 0, 119.4035797119141
33, 0, 0, 118.8369140625
34, 0, 0, 120.556510925293
35, 0, 0, 119.7678451538086
36, 0, 0, 121.642333984375
37, 0, 0, 122.8734741210938
38, 0, 0, 122.3527984619141
39, 0, 0, 123.5759735107422
40, 0, 0, 126.562873840332
41, 0, 0, 126.0324783325195
42, 0, 0, 126.5598983764648
43, 0, 0, 127.7667694091797
44, 0, 0, 130.0728759765625
45, 0, 0, 131.8937072753906
46, 0, 0, 130.1989593505859
47, 0, 0, 132.0968475341797
48, 0, 0, 134.1777191162109
49, 0, 0, 132.2590942382812
50, 0, 0, 135.1840515136719
51, 0, 0, 136.5113983154297
52, 0, 0, 136.0738983154297
53, 0, 0, 140.2784423828125
54, 0, 0, 141.0555877685547
55, 0, 0, 141.7645263671875
56, 0, 0, 146.8633117675781
57, 0, 0, 146.5711669921875
58, 0, 0, 149.4529418945312
59, 0, 0, 150.4810333251953
60, 0, 0, 151.3870849609375
61, 0, 0, 153.5865325927734
62, 0, 0, 155.6647033691406
63, 0, 0, 157.7292633056641
64, 0, 0, 159.6090545654297
65, 0, 0, 162.2431640625
66, 0, 0, 166.4401550292969
67, 0, 0, 169.5648803710938
68, 0, 0, 173.6341705322266
69, 0, 0, 176.7453460693359
70, 0, 0, 178.5761260986328
71, 0, 0, 181.8974304199219
72, 0, 0, 185.7501068115234
73, 0, 0, 188.1116333007812
74, 0, 0, 193.0672149658203
75, 0, 0, 197.3955535888672
76, 0, 0, 204.4478454589844
77, 0, 0, 208.1406860351562
78, 0, 0, 213.5414276123047
79, 0, 0, 216.9176788330078
80, 0, 0, 230.075927734375
81, 0, 0, 235.2947540283203
82, 0, 0, 246.8124389648438
83, 0, 0, 256.5228881835938
84, 0, 0, 267.7143859863281
85, 0, 0, 284.336669921875
86, 0, 0, 302.8507995605469
87, 0, 0, 327.6584167480469
88, 0, 0, 360.1730041503906
89, 0, 0, 406.0826110839844
90, 0, 0, 478.4080810546875
91, 0, 0, 540.0331420898438
92, 0, 0, 523.8040771484375
93, 0, 0, 452.5690002441406
94, 0, 0, 215.9134216308594
95, 0, 0, 68.11924743652344
96, 0, 0, 25.13166046142578
97, 0, 0, 4.095376014709473
98, 0, 0, 0
99, 0, 0, 0
100, 0, 0, 0
101, 0, 0, 0
102, 0, 0, 0
103, 0, 0, 0
104, 0, 0, 0
105, 0, 0, 0
106, 0, 0, 0
107, 0, 0, 0
108, 0, 0, 0.009374223649501801
109, 0, 0, 0
110, 0, 0, 0
111, 0, 0, 0
112, 0, 0, 0
113, 0, 0, 0
114, 0, 0, 0
115, 0, 0, 0
116, 0, 0, 0
117, 0, 0, 0
118, 0, 0, 0
119, 0, 0, 0
120, 0, 0, 0
121, 0, 0, 0
122, 0, 0, 0
123, 0, 0, 0
124, 0, 0, 0
125, 0, 0, 0
126, 0, 0, 0
127, 0, 0, 0
128, 0, 0, 0
129, 0, 0, 0
130, 0, 0, 0
131, 0, 0, 0
132, 0, 0, 0
133, 0, 0, 0
134, 0, 0, 0
135, 0, 0, 0
136, 0, 0, 0
137, 0, 0, 0
138, 0, 0, 0
139, 0, 0, 0
140, 0, 0, 0
141, 0, 0, 0
142, 0, 0, 0
143, 0, 0, 0
144, 0, 0, 0
145, 0, 0, 0
146, 0, 0, 0
147, 0, 0, 0
148, 0, 0, 0
149, 0, 0, 0
150, 0, 0, 0
151, 0, 0, 0
152, 0, 0, 0
153, 0, 0, 0
154, 0, 0, 0
155, 0, 0, 0
156, 0, 0, 0
157, 0, 0, 0
158, 0, 0, 0
159, 0, 0, 0
160, 0, 0, 0
161, 0, 0, 0
162, 0, 0, 0
163, 0, 0, 0
164, 0, 0, 0
165, 0, 0, 0
166, 0, 0, 0
167, 0, 0, 0
168, 0, 0, 0
169, 0, 0, 0
170, 0, 0, 0
171, 0, 0, 0
172, 0, 0, 0
173, 0, 0, 0
174, 0, 0, 0
175, 0, 0, 0
176, 0, 0, 0
177, 0, 0, 0
178, 0, 0, 0
179, 0, 0, 0
