# TOPAS Version: 3.3.p1
# Parameter File: Simple_Pattern.txt
# Results for scorer MLIC_Scorer
# Scored in component: MLIC
# X in 180 bins of 0.222222 cm
# Y in 1 bin  of 10 cm
# Z in 1 bin  of 10 cm
# EnergyDeposit ( MeV ) : Sum   
0, 0, 0, 1121.291625976562
1, 0, 0, 1124.802001953125
2, 0, 0, 1130.873168945312
3, 0, 0, 1132.53125
4, 0, 0, 1132.2568359375
5, 0, 0, 1150.977783203125
6, 0, 0, 1144.096435546875
7, 0, 0, 1163.014892578125
8, 0, 0, 1161.222412109375
9, 0, 0, 1164.7978515625
10, 0, 0, 1168.954833984375
11, 0, 0, 1177.8876953125
12, 0, 0, 1179.65771484375
13, 0, 0, 1189.887939453125
14, 0, 0, 1205.177001953125
15, 0, 0, 1206.3916015625
16, 0, 0, 1217.058471679688
17, 0, 0, 1209.15576171875
18, 0, 0, 1230.674194335938
19, 0, 0, 1225.816162109375
20, 0, 0, 1238.742919921875
21, 0, 0, 1256.020874023438
22, 0, 0, 1265.97900390625
23, 0, 0, 1265.856079101562
24, 0, 0, 1272.811889648438
25, 0, 0, 1278.038330078125
26, 0, 0, 1288.929565429688
27, 0, 0, 1293.395141601562
28, 0, 0, 1308.74560546875
29, 0, 0, 1316.1015625
30, 0, 0, 1325.232421875
31, 0, 0, 1339.576049804688
32, 0, 0, 1346.1103515625
33, 0, 0, 1359.182983398438
34, 0, 0, 1370.661987304688
35, 0, 0, 1374.765869140625
36, 0, 0, 1387.2578125
37, 0, 0, 1411.871459960938
38, 0, 0, 1418.630493164062
39, 0, 0, 1427.304321289062
40, 0, 0, 1439.16455078125
41, 0, 0, 1461.5087890625
42, 0, 0, 1467.275146484375
43, 0, 0, 1483.62744140625
44, 0, 0, 1496.744262695312
45, 0, 0, 1511.592529296875
46, 0, 0, 1530.561767578125
47, 0, 0, 1545.725341796875
48, 0, 0, 1567.900146484375
49, 0, 0, 1584.622436523438
50, 0, 0, 1598.717529296875
51, 0, 0, 1618.740478515625
52, 0, 0, 1640.293090820312
53, 0, 0, 1660.738159179688
54, 0, 0, 1683.935302734375
55, 0, 0, 1706.853759765625
56, 0, 0, 1733.36572265625
57, 0, 0, 1762.383911132812
58, 0, 0, 1795.279907226562
59, 0, 0, 1814.61328125
60, 0, 0, 1850.530029296875
61, 0, 0, 1887.665161132812
62, 0, 0, 1924.146118164062
63, 0, 0, 1960.437622070312
64, 0, 0, 1997.08056640625
65, 0, 0, 2050.71484375
66, 0, 0, 2100.1279296875
67, 0, 0, 2147.9501953125
68, 0, 0, 2215.921142578125
69, 0, 0, 2283.08251953125
70, 0, 0, 2370.625732421875
71, 0, 0, 2451.549560546875
72, 0, 0, 2559.5341796875
73, 0, 0, 2684.474365234375
74, 0, 0, 2841.625
75, 0, 0, 3055.227294921875
76, 0, 0, 3310.329345703125
77, 0, 0, 3723.648193359375
78, 0, 0, 4204.970703125
79, 0, 0, 4179.91650390625
80, 0, 0, 3621.647705078125
81, 0, 0, 2532.45751953125
82, 0, 0, 1907.256591796875
83, 0, 0, 1716.119995117188
84, 0, 0, 1713.404296875
85, 0, 0, 1818.966186523438
86, 0, 0, 1905.333374023438
87, 0, 0, 1954.61669921875
88, 0, 0, 2084.075927734375
89, 0, 0, 2374.879150390625
90, 0, 0, 2670.910888671875
91, 0, 0, 2970.28173828125
92, 0, 0, 2817.746826171875
93, 0, 0, 2085.96142578125
94, 0, 0, 1246.135986328125
95, 0, 0, 456.9864807128906
96, 0, 0, 84.39067077636719
97, 0, 0, 3.307077884674072
98, 0, 0, 0.001435802201740444
99, 0, 0, 0
100, 0, 0, 0
101, 0, 0, 0
102, 0, 0, 0
103, 0, 0, 0
104, 0, 0, 0
105, 0, 0, 0
106, 0, 0, 0
107, 0, 0, 0
108, 0, 0, 0
109, 0, 0, 0
110, 0, 0, 0
111, 0, 0, 0
112, 0, 0, 0
113, 0, 0, 0
114, 0, 0, 0
115, 0, 0, 0
116, 0, 0, 0
117, 0, 0, 0
118, 0, 0, 0
119, 0, 0, 0
120, 0, 0, 0
121, 0, 0, 0
122, 0, 0, 0
123, 0, 0, 0
124, 0, 0, 0
125, 0, 0, 0
126, 0, 0, 0
127, 0, 0, 0
128, 0, 0, 0
129, 0, 0, 0
130, 0, 0, 0
131, 0, 0, 0
132, 0, 0, 0
133, 0, 0, 0
134, 0, 0, 0
135, 0, 0, 0
136, 0, 0, 0
137, 0, 0, 0
138, 0, 0, 0
139, 0, 0, 0
140, 0, 0, 0
141, 0, 0, 0
142, 0, 0, 0
143, 0, 0, 0
144, 0, 0, 0
145, 0, 0, 0
146, 0, 0, 0
147, 0, 0, 0
148, 0, 0, 0
149, 0, 0, 0
150, 0, 0, 0
151, 0, 0, 0
152, 0, 0, 0
153, 0, 0, 0
154, 0, 0, 0
155, 0, 0, 0
156, 0, 0, 0
157, 0, 0, 0
158, 0, 0, 0
159, 0, 0, 0
160, 0, 0, 0
161, 0, 0, 0
162, 0, 0, 0
163, 0, 0, 0
164, 0, 0, 0
165, 0, 0, 0
166, 0, 0, 0
167, 0, 0, 0
168, 0, 0, 0
169, 0, 0, 0
170, 0, 0, 0
171, 0, 0, 0
172, 0, 0, 0
173, 0, 0, 0
174, 0, 0, 0
175, 0, 0, 0
176, 0, 0, 0
177, 0, 0, 0
178, 0, 0, 0
179, 0, 0, 0
