# TOPAS Version: 3.3.p1
# Parameter File: Simple_Pattern.txt
# Results for scorer MLIC_Scorer
# Scored in component: MLIC
# X in 180 bins of 0.222222 cm
# Y in 1 bin  of 10 cm
# Z in 1 bin  of 10 cm
# EnergyDeposit ( MeV ) : Sum   
0, 0, 0, 26.64104080200195
1, 0, 0, 26.75621223449707
2, 0, 0, 27.06335639953613
3, 0, 0, 25.99553871154785
4, 0, 0, 26.15063667297363
5, 0, 0, 26.55776786804199
6, 0, 0, 26.2208251953125
7, 0, 0, 26.69779014587402
8, 0, 0, 26.22201347351074
9, 0, 0, 26.18813323974609
10, 0, 0, 28.22939109802246
11, 0, 0, 27.41281127929688
12, 0, 0, 27.3189868927002
13, 0, 0, 27.6970386505127
14, 0, 0, 26.99374198913574
15, 0, 0, 27.85222244262695
16, 0, 0, 28.39974594116211
17, 0, 0, 28.45381355285645
18, 0, 0, 27.47333526611328
19, 0, 0, 28.39669609069824
20, 0, 0, 27.57211303710938
21, 0, 0, 27.36842727661133
22, 0, 0, 28.3067455291748
23, 0, 0, 27.24868392944336
24, 0, 0, 28.22131538391113
25, 0, 0, 29.72451972961426
26, 0, 0, 30.47890281677246
27, 0, 0, 31.23716163635254
28, 0, 0, 29.5462703704834
29, 0, 0, 30.02493286132812
30, 0, 0, 29.5051326751709
31, 0, 0, 31.1375904083252
32, 0, 0, 30.34694290161133
33, 0, 0, 32.75042724609375
34, 0, 0, 30.69994735717773
35, 0, 0, 31.27120399475098
36, 0, 0, 31.69645690917969
37, 0, 0, 31.68778800964355
38, 0, 0, 31.89153480529785
39, 0, 0, 31.82259941101074
40, 0, 0, 33.39653778076172
41, 0, 0, 33.29941940307617
42, 0, 0, 32.78485488891602
43, 0, 0, 33.64617538452148
44, 0, 0, 33.96871566772461
45, 0, 0, 32.51755142211914
46, 0, 0, 33.38469696044922
47, 0, 0, 35.55538177490234
48, 0, 0, 33.80964279174805
49, 0, 0, 36.01463317871094
50, 0, 0, 35.40935516357422
51, 0, 0, 35.62007904052734
52, 0, 0, 35.10239028930664
53, 0, 0, 36.91464614868164
54, 0, 0, 36.87849426269531
55, 0, 0, 36.70297241210938
56, 0, 0, 39.79046630859375
57, 0, 0, 38.16049575805664
58, 0, 0, 39.59717559814453
59, 0, 0, 39.89516448974609
60, 0, 0, 40.61214828491211
61, 0, 0, 41.1147575378418
62, 0, 0, 43.02370452880859
63, 0, 0, 41.31377029418945
64, 0, 0, 41.45973205566406
65, 0, 0, 42.1204719543457
66, 0, 0, 42.30782699584961
67, 0, 0, 42.75822067260742
68, 0, 0, 45.12478637695312
69, 0, 0, 45.15889358520508
70, 0, 0, 46.65392303466797
71, 0, 0, 46.91937637329102
72, 0, 0, 48.99837112426758
73, 0, 0, 49.19430541992188
74, 0, 0, 50.3200569152832
75, 0, 0, 51.58178329467773
76, 0, 0, 53.21823501586914
77, 0, 0, 53.75625991821289
78, 0, 0, 56.20957946777344
79, 0, 0, 57.3220329284668
80, 0, 0, 57.86195373535156
81, 0, 0, 59.66654968261719
82, 0, 0, 61.64367294311523
83, 0, 0, 63.4946403503418
84, 0, 0, 67.55852508544922
85, 0, 0, 70.10780334472656
86, 0, 0, 75.99111175537109
87, 0, 0, 81.77076721191406
88, 0, 0, 90.33491516113281
89, 0, 0, 101.6322402954102
90, 0, 0, 126.2151184082031
91, 0, 0, 140.3582153320312
92, 0, 0, 136.8744506835938
93, 0, 0, 112.0622940063477
94, 0, 0, 56.94700241088867
95, 0, 0, 38.76392364501953
96, 0, 0, 9.994451522827148
97, 0, 0, 0
98, 0, 0, 0
99, 0, 0, 0
100, 0, 0, 0
101, 0, 0, 0
102, 0, 0, 0
103, 0, 0, 0
104, 0, 0, 0
105, 0, 0, 0
106, 0, 0, 0
107, 0, 0, 0
108, 0, 0, 0
109, 0, 0, 0
110, 0, 0, 0
111, 0, 0, 0
112, 0, 0, 0
113, 0, 0, 0
114, 0, 0, 0
115, 0, 0, 0
116, 0, 0, 0
117, 0, 0, 0
118, 0, 0, 0
119, 0, 0, 0
120, 0, 0, 0
121, 0, 0, 0
122, 0, 0, 0
123, 0, 0, 0
124, 0, 0, 0
125, 0, 0, 0
126, 0, 0, 0
127, 0, 0, 0
128, 0, 0, 0
129, 0, 0, 0
130, 0, 0, 0
131, 0, 0, 0
132, 0, 0, 0
133, 0, 0, 0
134, 0, 0, 0
135, 0, 0, 0
136, 0, 0, 0
137, 0, 0, 0
138, 0, 0, 0
139, 0, 0, 0
140, 0, 0, 0
141, 0, 0, 0
142, 0, 0, 0
143, 0, 0, 0
144, 0, 0, 0
145, 0, 0, 0
146, 0, 0, 0
147, 0, 0, 0
148, 0, 0, 0
149, 0, 0, 0
150, 0, 0, 0
151, 0, 0, 0
152, 0, 0, 0
153, 0, 0, 0
154, 0, 0, 0
155, 0, 0, 0
156, 0, 0, 0
157, 0, 0, 0
158, 0, 0, 0
159, 0, 0, 0
160, 0, 0, 0
161, 0, 0, 0
162, 0, 0, 0
163, 0, 0, 0
164, 0, 0, 0
165, 0, 0, 0
166, 0, 0, 0
167, 0, 0, 0
168, 0, 0, 0
169, 0, 0, 0
170, 0, 0, 0
171, 0, 0, 0
172, 0, 0, 0
173, 0, 0, 0
174, 0, 0, 0
175, 0, 0, 0
176, 0, 0, 0
177, 0, 0, 0
178, 0, 0, 0
179, 0, 0, 0
