# TOPAS Version: 3.3.p1
# Parameter File: Simple_Pattern.txt
# Results for scorer MLIC_Scorer
# Scored in component: MLIC
# X in 180 bins of 0.222222 cm
# Y in 1 bin  of 10 cm
# Z in 1 bin  of 10 cm
# EnergyDeposit ( MeV ) : Sum   
0, 0, 0, 28.00548553466797
1, 0, 0, 29.7744312286377
2, 0, 0, 28.38492012023926
3, 0, 0, 27.80728721618652
4, 0, 0, 28.54257392883301
5, 0, 0, 28.6279182434082
6, 0, 0, 29.26343536376953
7, 0, 0, 29.29623794555664
8, 0, 0, 28.3748836517334
9, 0, 0, 29.13549423217773
10, 0, 0, 28.31072616577148
11, 0, 0, 29.94692420959473
12, 0, 0, 29.35762214660645
13, 0, 0, 29.29436111450195
14, 0, 0, 29.57385635375977
15, 0, 0, 29.80710220336914
16, 0, 0, 28.77800369262695
17, 0, 0, 30.32759475708008
18, 0, 0, 33.28546142578125
19, 0, 0, 31.41923522949219
20, 0, 0, 31.53083419799805
21, 0, 0, 30.75629043579102
22, 0, 0, 33.07682037353516
23, 0, 0, 32.12255477905273
24, 0, 0, 32.51837539672852
25, 0, 0, 31.13431930541992
26, 0, 0, 31.73703002929688
27, 0, 0, 31.45805358886719
28, 0, 0, 31.90381240844727
29, 0, 0, 32.22373199462891
30, 0, 0, 34.27222442626953
31, 0, 0, 33.40996170043945
32, 0, 0, 32.94647979736328
33, 0, 0, 33.55410003662109
34, 0, 0, 35.79335403442383
35, 0, 0, 34.04847717285156
36, 0, 0, 34.73162078857422
37, 0, 0, 33.30344009399414
38, 0, 0, 34.03837203979492
39, 0, 0, 34.69359970092773
40, 0, 0, 35.44631958007812
41, 0, 0, 36.23335266113281
42, 0, 0, 35.363037109375
43, 0, 0, 37.19227981567383
44, 0, 0, 37.25260543823242
45, 0, 0, 38.05259323120117
46, 0, 0, 37.85192108154297
47, 0, 0, 37.19791030883789
48, 0, 0, 37.08957672119141
49, 0, 0, 37.90827178955078
50, 0, 0, 37.69707489013672
51, 0, 0, 38.60531234741211
52, 0, 0, 39.93251037597656
53, 0, 0, 40.1962776184082
54, 0, 0, 40.06068801879883
55, 0, 0, 39.47381591796875
56, 0, 0, 41.1030387878418
57, 0, 0, 41.3091926574707
58, 0, 0, 43.47649002075195
59, 0, 0, 41.58256149291992
60, 0, 0, 42.71859359741211
61, 0, 0, 42.16401290893555
62, 0, 0, 44.30146789550781
63, 0, 0, 44.66823196411133
64, 0, 0, 45.61674499511719
65, 0, 0, 45.85948944091797
66, 0, 0, 47.76282119750977
67, 0, 0, 47.17655181884766
68, 0, 0, 47.4246826171875
69, 0, 0, 48.83733367919922
70, 0, 0, 49.49739456176758
71, 0, 0, 51.39551162719727
72, 0, 0, 53.41146087646484
73, 0, 0, 52.86675643920898
74, 0, 0, 54.92417907714844
75, 0, 0, 54.92601013183594
76, 0, 0, 58.95527648925781
77, 0, 0, 59.3508186340332
78, 0, 0, 60.35031890869141
79, 0, 0, 62.21282577514648
80, 0, 0, 64.19319152832031
81, 0, 0, 68.05410003662109
82, 0, 0, 70.0643310546875
83, 0, 0, 73.45347595214844
84, 0, 0, 75.66746520996094
85, 0, 0, 81.46503448486328
86, 0, 0, 86.5126953125
87, 0, 0, 91.90191650390625
88, 0, 0, 101.4427337646484
89, 0, 0, 115.002197265625
90, 0, 0, 141.1307983398438
91, 0, 0, 159.7882843017578
92, 0, 0, 181.3958892822266
93, 0, 0, 115.1137390136719
94, 0, 0, 73.91575622558594
95, 0, 0, 23.85565757751465
96, 0, 0, 0
97, 0, 0, 0
98, 0, 0, 0
99, 0, 0, 0
100, 0, 0, 0
101, 0, 0, 0
102, 0, 0, 0
103, 0, 0, 0
104, 0, 0, 0
105, 0, 0, 0
106, 0, 0, 0
107, 0, 0, 0
108, 0, 0, 0
109, 0, 0, 0
110, 0, 0, 0
111, 0, 0, 0
112, 0, 0, 0
113, 0, 0, 0
114, 0, 0, 0
115, 0, 0, 0
116, 0, 0, 0
117, 0, 0, 0
118, 0, 0, 0
119, 0, 0, 0
120, 0, 0, 0
121, 0, 0, 0
122, 0, 0, 0
123, 0, 0, 0
124, 0, 0, 0
125, 0, 0, 0
126, 0, 0, 0
127, 0, 0, 0
128, 0, 0, 0
129, 0, 0, 0
130, 0, 0, 0
131, 0, 0, 0
132, 0, 0, 0
133, 0, 0, 0
134, 0, 0, 0
135, 0, 0, 0
136, 0, 0, 0
137, 0, 0, 0
138, 0, 0, 0
139, 0, 0, 0
140, 0, 0, 0
141, 0, 0, 0
142, 0, 0, 0
143, 0, 0, 0
144, 0, 0, 0
145, 0, 0, 0
146, 0, 0, 0
147, 0, 0, 0
148, 0, 0, 0
149, 0, 0, 0
150, 0, 0, 0
151, 0, 0, 0
152, 0, 0, 0
153, 0, 0, 0
154, 0, 0, 0
155, 0, 0, 0
156, 0, 0, 0
157, 0, 0, 0
158, 0, 0, 0
159, 0, 0, 0
160, 0, 0, 0
161, 0, 0, 0
162, 0, 0, 0
163, 0, 0, 0
164, 0, 0, 0
165, 0, 0, 0
166, 0, 0, 0
167, 0, 0, 0
168, 0, 0, 0
169, 0, 0, 0
170, 0, 0, 0
171, 0, 0, 0
172, 0, 0, 0
173, 0, 0, 0
174, 0, 0, 0
175, 0, 0, 0
176, 0, 0, 0
177, 0, 0, 0
178, 0, 0, 0
179, 0, 0, 0
