# TOPAS Version: 3.3.p1
# Parameter File: Simple_Pattern.txt
# Results for scorer MLIC_Scorer
# Scored in component: MLIC
# X in 180 bins of 0.222222 cm
# Y in 1 bin  of 10 cm
# Z in 1 bin  of 10 cm
# EnergyDeposit ( MeV ) : Sum   
0, 0, 0, 57.32311248779297
1, 0, 0, 58.24098587036133
2, 0, 0, 57.83317947387695
3, 0, 0, 58.02161026000977
4, 0, 0, 57.33367156982422
5, 0, 0, 58.19112014770508
6, 0, 0, 57.94305801391602
7, 0, 0, 59.57231140136719
8, 0, 0, 61.34555053710938
9, 0, 0, 59.48428726196289
10, 0, 0, 59.78246307373047
11, 0, 0, 59.22473526000977
12, 0, 0, 59.55279922485352
13, 0, 0, 61.61075973510742
14, 0, 0, 60.17192459106445
15, 0, 0, 60.61581039428711
16, 0, 0, 61.29116439819336
17, 0, 0, 60.97985076904297
18, 0, 0, 59.80293655395508
19, 0, 0, 60.71840667724609
20, 0, 0, 63.33287048339844
21, 0, 0, 62.49320220947266
22, 0, 0, 62.786865234375
23, 0, 0, 62.99502563476562
24, 0, 0, 64.24772644042969
25, 0, 0, 65.85336303710938
26, 0, 0, 62.59741973876953
27, 0, 0, 64.23473358154297
28, 0, 0, 64.80254364013672
29, 0, 0, 65.37371826171875
30, 0, 0, 66.59204864501953
31, 0, 0, 67.0279541015625
32, 0, 0, 67.10821533203125
33, 0, 0, 69.6632080078125
34, 0, 0, 68.24012756347656
35, 0, 0, 69.87014007568359
36, 0, 0, 69.81526184082031
37, 0, 0, 71.05687713623047
38, 0, 0, 70.83686828613281
39, 0, 0, 73.64167022705078
40, 0, 0, 71.84077453613281
41, 0, 0, 74.44439697265625
42, 0, 0, 72.29106903076172
43, 0, 0, 75.37671661376953
44, 0, 0, 74.88803100585938
45, 0, 0, 76.71240234375
46, 0, 0, 79.74399566650391
47, 0, 0, 77.78532409667969
48, 0, 0, 78.00064849853516
49, 0, 0, 81.30081176757812
50, 0, 0, 79.83892059326172
51, 0, 0, 78.9957275390625
52, 0, 0, 82.18669128417969
53, 0, 0, 83.68531799316406
54, 0, 0, 84.19026947021484
55, 0, 0, 84.65107727050781
56, 0, 0, 88.31660461425781
57, 0, 0, 90.80622100830078
58, 0, 0, 90.16537475585938
59, 0, 0, 88.91500091552734
60, 0, 0, 92.87586212158203
61, 0, 0, 95.74262237548828
62, 0, 0, 98.79821014404297
63, 0, 0, 99.45148468017578
64, 0, 0, 100.3889312744141
65, 0, 0, 104.0174713134766
66, 0, 0, 106.433464050293
67, 0, 0, 109.3805541992188
68, 0, 0, 111.1918182373047
69, 0, 0, 114.5626602172852
70, 0, 0, 119.5505599975586
71, 0, 0, 125.494270324707
72, 0, 0, 129.1753540039062
73, 0, 0, 136.5598602294922
74, 0, 0, 146.4543304443359
75, 0, 0, 155.0915985107422
76, 0, 0, 175.5385131835938
77, 0, 0, 211.7736358642578
78, 0, 0, 220.9222564697266
79, 0, 0, 189.4249420166016
80, 0, 0, 178.8649749755859
81, 0, 0, 98.50419616699219
82, 0, 0, 88.64424896240234
83, 0, 0, 84.42337036132812
84, 0, 0, 76.78452301025391
85, 0, 0, 81.67823028564453
86, 0, 0, 88.77267456054688
87, 0, 0, 97.50487518310547
88, 0, 0, 114.8141098022461
89, 0, 0, 119.0086135864258
90, 0, 0, 127.6045837402344
91, 0, 0, 145.9625701904297
92, 0, 0, 171.5630798339844
93, 0, 0, 74.14208984375
94, 0, 0, 36.05035018920898
95, 0, 0, 11.0161018371582
96, 0, 0, 9.867467880249023
97, 0, 0, 0
98, 0, 0, 0
99, 0, 0, 0
100, 0, 0, 0
101, 0, 0, 0
102, 0, 0, 0
103, 0, 0, 0
104, 0, 0, 0
105, 0, 0, 0
106, 0, 0, 0
107, 0, 0, 0
108, 0, 0, 0
109, 0, 0, 0
110, 0, 0, 0
111, 0, 0, 0
112, 0, 0, 0
113, 0, 0, 0
114, 0, 0, 0
115, 0, 0, 0
116, 0, 0, 0
117, 0, 0, 0
118, 0, 0, 0
119, 0, 0, 0
120, 0, 0, 0
121, 0, 0, 0
122, 0, 0, 0
123, 0, 0, 0
124, 0, 0, 0
125, 0, 0, 0
126, 0, 0, 0
127, 0, 0, 0
128, 0, 0, 0
129, 0, 0, 0
130, 0, 0, 0
131, 0, 0, 0
132, 0, 0, 0
133, 0, 0, 0
134, 0, 0, 0
135, 0, 0, 0
136, 0, 0, 0
137, 0, 0, 0
138, 0, 0, 0
139, 0, 0, 0
140, 0, 0, 0
141, 0, 0, 0
142, 0, 0, 0
143, 0, 0, 0
144, 0, 0, 0
145, 0, 0, 0
146, 0, 0, 0
147, 0, 0, 0
148, 0, 0, 0
149, 0, 0, 0
150, 0, 0, 0
151, 0, 0, 0
152, 0, 0, 0
153, 0, 0, 0
154, 0, 0, 0
155, 0, 0, 0
156, 0, 0, 0
157, 0, 0, 0
158, 0, 0, 0
159, 0, 0, 0
160, 0, 0, 0
161, 0, 0, 0
162, 0, 0, 0
163, 0, 0, 0
164, 0, 0, 0
165, 0, 0, 0
166, 0, 0, 0
167, 0, 0, 0
168, 0, 0, 0
169, 0, 0, 0
170, 0, 0, 0
171, 0, 0, 0
172, 0, 0, 0
173, 0, 0, 0
174, 0, 0, 0
175, 0, 0, 0
176, 0, 0, 0
177, 0, 0, 0
178, 0, 0, 0
179, 0, 0, 0
