# TOPAS Version: 3.3.p1
# Parameter File: Simple_Pattern.txt
# Results for scorer MLIC_Scorer
# Scored in component: MLIC
# X in 180 bins of 0.222222 cm
# Y in 1 bin  of 10 cm
# Z in 1 bin  of 10 cm
# EnergyDeposit ( MeV ) : Sum   
0, 0, 0, 42.36817932128906
1, 0, 0, 42.43447875976562
2, 0, 0, 40.89945602416992
3, 0, 0, 40.58363342285156
4, 0, 0, 42.81355285644531
5, 0, 0, 42.04582595825195
6, 0, 0, 41.30202865600586
7, 0, 0, 41.53934097290039
8, 0, 0, 40.88352584838867
9, 0, 0, 43.62168121337891
10, 0, 0, 44.00425720214844
11, 0, 0, 44.38731384277344
12, 0, 0, 43.37694549560547
13, 0, 0, 44.33353042602539
14, 0, 0, 44.16744613647461
15, 0, 0, 45.55041122436523
16, 0, 0, 44.33614730834961
17, 0, 0, 46.0308723449707
18, 0, 0, 44.97727966308594
19, 0, 0, 45.27408218383789
20, 0, 0, 45.99286651611328
21, 0, 0, 46.77971267700195
22, 0, 0, 45.22358322143555
23, 0, 0, 45.86939239501953
24, 0, 0, 47.07019805908203
25, 0, 0, 46.5552864074707
26, 0, 0, 45.30210876464844
27, 0, 0, 48.54111099243164
28, 0, 0, 48.76052093505859
29, 0, 0, 48.01918029785156
30, 0, 0, 47.97051239013672
31, 0, 0, 48.08395767211914
32, 0, 0, 49.24064636230469
33, 0, 0, 48.85800552368164
34, 0, 0, 47.14073944091797
35, 0, 0, 48.32847595214844
36, 0, 0, 49.73851013183594
37, 0, 0, 49.76523590087891
38, 0, 0, 51.20825958251953
39, 0, 0, 50.40503692626953
40, 0, 0, 51.70865631103516
41, 0, 0, 51.95121383666992
42, 0, 0, 51.17671585083008
43, 0, 0, 54.43477630615234
44, 0, 0, 53.27286529541016
45, 0, 0, 54.64900207519531
46, 0, 0, 54.62942504882812
47, 0, 0, 54.73270034790039
48, 0, 0, 54.19291687011719
49, 0, 0, 55.38108444213867
50, 0, 0, 57.65877914428711
51, 0, 0, 56.62387084960938
52, 0, 0, 58.28076553344727
53, 0, 0, 58.26742553710938
54, 0, 0, 58.66863250732422
55, 0, 0, 58.64978408813477
56, 0, 0, 60.11435317993164
57, 0, 0, 59.44476318359375
58, 0, 0, 61.89643478393555
59, 0, 0, 62.48094177246094
60, 0, 0, 62.00059127807617
61, 0, 0, 64.31880187988281
62, 0, 0, 64.40975189208984
63, 0, 0, 64.24057006835938
64, 0, 0, 68.96924591064453
65, 0, 0, 66.79296875
66, 0, 0, 68.12094116210938
67, 0, 0, 69.63020324707031
68, 0, 0, 69.02310180664062
69, 0, 0, 73.83139038085938
70, 0, 0, 72.99691772460938
71, 0, 0, 74.33834838867188
72, 0, 0, 76.09618377685547
73, 0, 0, 77.44532012939453
74, 0, 0, 79.24877166748047
75, 0, 0, 83.38703918457031
76, 0, 0, 84.43059539794922
77, 0, 0, 85.98175048828125
78, 0, 0, 89.79074096679688
79, 0, 0, 91.95111083984375
80, 0, 0, 95.11105346679688
81, 0, 0, 99.38951873779297
82, 0, 0, 101.9559936523438
83, 0, 0, 107.2374038696289
84, 0, 0, 113.0090408325195
85, 0, 0, 118.1862335205078
86, 0, 0, 126.8469314575195
87, 0, 0, 137.6736450195312
88, 0, 0, 152.1200408935547
89, 0, 0, 174.5083312988281
90, 0, 0, 210.1744689941406
91, 0, 0, 234.1082763671875
92, 0, 0, 236.7210083007812
93, 0, 0, 177.3448486328125
94, 0, 0, 88.57388305664062
95, 0, 0, 29.54452133178711
96, 0, 0, 8.762508392333984
97, 0, 0, 0
98, 0, 0, 0
99, 0, 0, 0
100, 0, 0, 0
101, 0, 0, 0
102, 0, 0, 0
103, 0, 0, 0
104, 0, 0, 0
105, 0, 0, 0
106, 0, 0, 0
107, 0, 0, 0
108, 0, 0, 0
109, 0, 0, 0
110, 0, 0, 0
111, 0, 0, 0
112, 0, 0, 0
113, 0, 0, 0
114, 0, 0, 0
115, 0, 0, 0
116, 0, 0, 0
117, 0, 0, 0
118, 0, 0, 0
119, 0, 0, 0
120, 0, 0, 0
121, 0, 0, 0
122, 0, 0, 0
123, 0, 0, 0
124, 0, 0, 0
125, 0, 0, 0
126, 0, 0, 0
127, 0, 0, 0
128, 0, 0, 0
129, 0, 0, 0
130, 0, 0, 0
131, 0, 0, 0
132, 0, 0, 0
133, 0, 0, 0
134, 0, 0, 0
135, 0, 0, 0
136, 0, 0, 0
137, 0, 0, 0
138, 0, 0, 0
139, 0, 0, 0
140, 0, 0, 0
141, 0, 0, 0
142, 0, 0, 0
143, 0, 0, 0
144, 0, 0, 0
145, 0, 0, 0
146, 0, 0, 0
147, 0, 0, 0
148, 0, 0, 0
149, 0, 0, 0
150, 0, 0, 0
151, 0, 0, 0
152, 0, 0, 0
153, 0, 0, 0
154, 0, 0, 0
155, 0, 0, 0
156, 0, 0, 0
157, 0, 0, 0
158, 0, 0, 0
159, 0, 0, 0
160, 0, 0, 0
161, 0, 0, 0
162, 0, 0, 0
163, 0, 0, 0
164, 0, 0, 0
165, 0, 0, 0
166, 0, 0, 0
167, 0, 0, 0
168, 0, 0, 0
169, 0, 0, 0
170, 0, 0, 0
171, 0, 0, 0
172, 0, 0, 0
173, 0, 0, 0
174, 0, 0, 0
175, 0, 0, 0
176, 0, 0, 0
177, 0, 0, 0
178, 0, 0, 0
179, 0, 0, 0
