# TOPAS Version: 3.3.p1
# Parameter File: Simple_Pattern.txt
# Results for scorer MLIC_Scorer
# Scored in component: MLIC
# X in 180 bins of 0.222222 cm
# Y in 1 bin  of 10 cm
# Z in 1 bin  of 10 cm
# EnergyDeposit ( MeV ) : Sum   
0, 0, 0, 1097.27197265625
1, 0, 0, 1097.826904296875
2, 0, 0, 1096.663818359375
3, 0, 0, 1097.6474609375
4, 0, 0, 1114.994750976562
5, 0, 0, 1108.798095703125
6, 0, 0, 1111.37939453125
7, 0, 0, 1116.80419921875
8, 0, 0, 1126.25927734375
9, 0, 0, 1134.675659179688
10, 0, 0, 1143.96044921875
11, 0, 0, 1147.120971679688
12, 0, 0, 1143.49658203125
13, 0, 0, 1155.187622070312
14, 0, 0, 1148.87841796875
15, 0, 0, 1163.693359375
16, 0, 0, 1176.011840820312
17, 0, 0, 1172.677001953125
18, 0, 0, 1184.12255859375
19, 0, 0, 1188.618286132812
20, 0, 0, 1194.942749023438
21, 0, 0, 1206.101318359375
22, 0, 0, 1212.486328125
23, 0, 0, 1218.347778320312
24, 0, 0, 1219.883178710938
25, 0, 0, 1224.976928710938
26, 0, 0, 1237.049072265625
27, 0, 0, 1244.996826171875
28, 0, 0, 1251.409057617188
29, 0, 0, 1262.32666015625
30, 0, 0, 1266.864624023438
31, 0, 0, 1270.312255859375
32, 0, 0, 1277.50927734375
33, 0, 0, 1287.519897460938
34, 0, 0, 1296.39453125
35, 0, 0, 1304.813232421875
36, 0, 0, 1315.209716796875
37, 0, 0, 1330.101928710938
38, 0, 0, 1341.810668945312
39, 0, 0, 1349.30712890625
40, 0, 0, 1357.826782226562
41, 0, 0, 1371.900024414062
42, 0, 0, 1381.318115234375
43, 0, 0, 1390.783569335938
44, 0, 0, 1409.059692382812
45, 0, 0, 1407.962280273438
46, 0, 0, 1434.652099609375
47, 0, 0, 1439.870239257812
48, 0, 0, 1458.288330078125
49, 0, 0, 1467.593872070312
50, 0, 0, 1484.47412109375
51, 0, 0, 1500.556030273438
52, 0, 0, 1513.847290039062
53, 0, 0, 1526.527709960938
54, 0, 0, 1539.139770507812
55, 0, 0, 1552.002563476562
56, 0, 0, 1582.572875976562
57, 0, 0, 1598.399536132812
58, 0, 0, 1619.680419921875
59, 0, 0, 1627.476318359375
60, 0, 0, 1659.071411132812
61, 0, 0, 1672.39306640625
62, 0, 0, 1697.185424804688
63, 0, 0, 1722.787841796875
64, 0, 0, 1740.7578125
65, 0, 0, 1773.052001953125
66, 0, 0, 1796.313232421875
67, 0, 0, 1826.1259765625
68, 0, 0, 1868.808959960938
69, 0, 0, 1901.382934570312
70, 0, 0, 1934.57568359375
71, 0, 0, 1965.999877929688
72, 0, 0, 2012.615966796875
73, 0, 0, 2048.05126953125
74, 0, 0, 2093.044921875
75, 0, 0, 2147.630859375
76, 0, 0, 2198.8427734375
77, 0, 0, 2253.399169921875
78, 0, 0, 2321.612060546875
79, 0, 0, 2401.928466796875
80, 0, 0, 2476.977294921875
81, 0, 0, 2575.0751953125
82, 0, 0, 2677.94775390625
83, 0, 0, 2796.085205078125
84, 0, 0, 2934.057861328125
85, 0, 0, 3119.633544921875
86, 0, 0, 3327.429443359375
87, 0, 0, 3593.02783203125
88, 0, 0, 3995.37353515625
89, 0, 0, 4558.95458984375
90, 0, 0, 5457.65283203125
91, 0, 0, 5989.19873046875
92, 0, 0, 5907.10009765625
93, 0, 0, 4157.02734375
94, 0, 0, 2128.0986328125
95, 0, 0, 651.6627807617188
96, 0, 0, 138.1345672607422
97, 0, 0, 30.93605804443359
98, 0, 0, 0
99, 0, 0, 0
100, 0, 0, 0
101, 0, 0, 0
102, 0, 0, 0
103, 0, 0, 0
104, 0, 0, 0
105, 0, 0, 0.03237176686525345
106, 0, 0, 0.0008751183631829917
107, 0, 0, 0
108, 0, 0, 0
109, 0, 0, 0
110, 0, 0, 0
111, 0, 0, 0
112, 0, 0, 0
113, 0, 0, 0
114, 0, 0, 0.05194599181413651
115, 0, 0, 0
116, 0, 0, 0
117, 0, 0, 0
118, 0, 0, 0
119, 0, 0, 0
120, 0, 0, 0
121, 0, 0, 0
122, 0, 0, 0
123, 0, 0, 0
124, 0, 0, 0
125, 0, 0, 0
126, 0, 0, 0
127, 0, 0, 0
128, 0, 0, 0
129, 0, 0, 0
130, 0, 0, 0.09752814471721649
131, 0, 0, 0
132, 0, 0, 0
133, 0, 0, 0
134, 0, 0, 0
135, 0, 0, 0
136, 0, 0, 0
137, 0, 0, 0
138, 0, 0, 0
139, 0, 0, 0
140, 0, 0, 0
141, 0, 0, 0
142, 0, 0, 0
143, 0, 0, 0
144, 0, 0, 0
145, 0, 0, 0
146, 0, 0, 0
147, 0, 0, 0
148, 0, 0, 0
149, 0, 0, 0
150, 0, 0, 0
151, 0, 0, 0
152, 0, 0, 0
153, 0, 0, 0
154, 0, 0, 0
155, 0, 0, 0
156, 0, 0, 0
157, 0, 0, 0
158, 0, 0, 0
159, 0, 0, 0
160, 0, 0, 0
161, 0, 0, 0
162, 0, 0, 0
163, 0, 0, 0
164, 0, 0, 0
165, 0, 0, 0
166, 0, 0, 0
167, 0, 0, 0
168, 0, 0, 0
169, 0, 0, 0
170, 0, 0, 0
171, 0, 0, 0
172, 0, 0, 0
173, 0, 0, 0
174, 0, 0, 0
175, 0, 0, 0
176, 0, 0, 0
177, 0, 0, 0
178, 0, 0, 0
179, 0, 0, 0
