# TOPAS Version: 3.3.p1
# Parameter File: Simple_Pattern.txt
# Results for scorer MLIC_Scorer
# Scored in component: MLIC
# X in 180 bins of 0.222222 cm
# Y in 1 bin  of 10 cm
# Z in 1 bin  of 10 cm
# EnergyDeposit ( MeV ) : Sum   
0, 0, 0, 86.95067596435547
1, 0, 0, 88.85282135009766
2, 0, 0, 89.74787139892578
3, 0, 0, 89.56478881835938
4, 0, 0, 88.47411346435547
5, 0, 0, 88.1007080078125
6, 0, 0, 89.79802703857422
7, 0, 0, 89.87017822265625
8, 0, 0, 90.36011505126953
9, 0, 0, 90.39801788330078
10, 0, 0, 92.86106109619141
11, 0, 0, 93.08392333984375
12, 0, 0, 93.16172790527344
13, 0, 0, 90.59345245361328
14, 0, 0, 94.87764739990234
15, 0, 0, 93.69686889648438
16, 0, 0, 94.54093170166016
17, 0, 0, 94.5836181640625
18, 0, 0, 96.82546234130859
19, 0, 0, 97.64118194580078
20, 0, 0, 97.47228240966797
21, 0, 0, 98.96910095214844
22, 0, 0, 98.82583618164062
23, 0, 0, 97.37612152099609
24, 0, 0, 100.426399230957
25, 0, 0, 98.48213195800781
26, 0, 0, 100.6411819458008
27, 0, 0, 102.5214462280273
28, 0, 0, 101.7009048461914
29, 0, 0, 104.5234146118164
30, 0, 0, 102.725700378418
31, 0, 0, 105.52490234375
32, 0, 0, 106.0708160400391
33, 0, 0, 106.078987121582
34, 0, 0, 107.0995712280273
35, 0, 0, 109.1511154174805
36, 0, 0, 108.623405456543
37, 0, 0, 109.9751129150391
38, 0, 0, 110.376335144043
39, 0, 0, 109.7561798095703
40, 0, 0, 111.4517440795898
41, 0, 0, 113.722770690918
42, 0, 0, 114.4331817626953
43, 0, 0, 116.6221771240234
44, 0, 0, 116.3151092529297
45, 0, 0, 119.0113983154297
46, 0, 0, 117.4906692504883
47, 0, 0, 119.2631225585938
48, 0, 0, 122.6155776977539
49, 0, 0, 122.7800521850586
50, 0, 0, 126.2851715087891
51, 0, 0, 128.1813507080078
52, 0, 0, 127.9100494384766
53, 0, 0, 129.5327758789062
54, 0, 0, 133.199462890625
55, 0, 0, 134.4925994873047
56, 0, 0, 137.0592041015625
57, 0, 0, 140.692138671875
58, 0, 0, 140.0326843261719
59, 0, 0, 140.0992126464844
60, 0, 0, 145.6076202392578
61, 0, 0, 149.7618865966797
62, 0, 0, 151.6458282470703
63, 0, 0, 152.3937530517578
64, 0, 0, 155.3788757324219
65, 0, 0, 161.3599700927734
66, 0, 0, 163.3304595947266
67, 0, 0, 167.0581207275391
68, 0, 0, 176.1295928955078
69, 0, 0, 178.6404876708984
70, 0, 0, 187.1530151367188
71, 0, 0, 192.7854919433594
72, 0, 0, 202.4104461669922
73, 0, 0, 208.7835845947266
74, 0, 0, 226.1410675048828
75, 0, 0, 239.2662506103516
76, 0, 0, 266.4046630859375
77, 0, 0, 310.3100891113281
78, 0, 0, 320.1821594238281
79, 0, 0, 324.5323486328125
80, 0, 0, 261.0581665039062
81, 0, 0, 178.3810577392578
82, 0, 0, 178.8304138183594
83, 0, 0, 125.742073059082
84, 0, 0, 130.2558746337891
85, 0, 0, 125.6084823608398
86, 0, 0, 134.1043548583984
87, 0, 0, 146.3644256591797
88, 0, 0, 164.9691772460938
89, 0, 0, 183.7471160888672
90, 0, 0, 208.5640716552734
91, 0, 0, 244.8067779541016
92, 0, 0, 209.9584655761719
93, 0, 0, 160.5889587402344
94, 0, 0, 72.44014739990234
95, 0, 0, 42.4705810546875
96, 0, 0, 17.5337085723877
97, 0, 0, 0
98, 0, 0, 0
99, 0, 0, 0
100, 0, 0, 0
101, 0, 0, 0
102, 0, 0, 0
103, 0, 0, 0
104, 0, 0, 0
105, 0, 0, 0
106, 0, 0, 0
107, 0, 0, 0
108, 0, 0, 0
109, 0, 0, 0
110, 0, 0, 0
111, 0, 0, 0
112, 0, 0, 0
113, 0, 0, 0
114, 0, 0, 0
115, 0, 0, 0
116, 0, 0, 0
117, 0, 0, 0
118, 0, 0, 0
119, 0, 0, 0
120, 0, 0, 0
121, 0, 0, 0
122, 0, 0, 0
123, 0, 0, 0
124, 0, 0, 0
125, 0, 0, 0
126, 0, 0, 0
127, 0, 0, 0
128, 0, 0, 0
129, 0, 0, 0
130, 0, 0, 0
131, 0, 0, 0
132, 0, 0, 0
133, 0, 0, 0
134, 0, 0, 0
135, 0, 0, 0
136, 0, 0, 0
137, 0, 0, 0
138, 0, 0, 0
139, 0, 0, 0
140, 0, 0, 0
141, 0, 0, 0
142, 0, 0, 0
143, 0, 0, 0
144, 0, 0, 0
145, 0, 0, 0
146, 0, 0, 0
147, 0, 0, 0
148, 0, 0, 0
149, 0, 0, 0
150, 0, 0, 0
151, 0, 0, 0
152, 0, 0, 0
153, 0, 0, 0
154, 0, 0, 0
155, 0, 0, 0
156, 0, 0, 0
157, 0, 0, 0
158, 0, 0, 0
159, 0, 0, 0
160, 0, 0, 0
161, 0, 0, 0
162, 0, 0, 0
163, 0, 0, 0
164, 0, 0, 0
165, 0, 0, 0
166, 0, 0, 0
167, 0, 0, 0
168, 0, 0, 0
169, 0, 0, 0
170, 0, 0, 0
171, 0, 0, 0
172, 0, 0, 0
173, 0, 0, 0
174, 0, 0, 0
175, 0, 0, 0
176, 0, 0, 0
177, 0, 0, 0
178, 0, 0, 0
179, 0, 0, 0
