# TOPAS Version: 3.3.p1
# Parameter File: Simple_Pattern.txt
# Results for scorer MLIC_Scorer
# Scored in component: MLIC
# X in 180 bins of 0.222222 cm
# Y in 1 bin  of 10 cm
# Z in 1 bin  of 10 cm
# EnergyDeposit ( MeV ) : Sum   
0, 0, 0, 53.67021942138672
1, 0, 0, 53.38420867919922
2, 0, 0, 53.86612701416016
3, 0, 0, 52.60366439819336
4, 0, 0, 55.63300704956055
5, 0, 0, 55.34538269042969
6, 0, 0, 51.8636589050293
7, 0, 0, 54.4766845703125
8, 0, 0, 56.18241500854492
9, 0, 0, 56.81125640869141
10, 0, 0, 54.30270385742188
11, 0, 0, 56.56111907958984
12, 0, 0, 55.61186981201172
13, 0, 0, 55.82479858398438
14, 0, 0, 56.85638427734375
15, 0, 0, 57.02184677124023
16, 0, 0, 56.34977340698242
17, 0, 0, 58.92376327514648
18, 0, 0, 58.18168640136719
19, 0, 0, 57.3758430480957
20, 0, 0, 58.4372444152832
21, 0, 0, 58.64226531982422
22, 0, 0, 57.66897201538086
23, 0, 0, 58.41236114501953
24, 0, 0, 60.41504669189453
25, 0, 0, 60.162353515625
26, 0, 0, 59.62402725219727
27, 0, 0, 61.96543884277344
28, 0, 0, 61.08151626586914
29, 0, 0, 61.21466827392578
30, 0, 0, 63.22922897338867
31, 0, 0, 60.70517730712891
32, 0, 0, 60.45876693725586
33, 0, 0, 63.43418502807617
34, 0, 0, 62.51369857788086
35, 0, 0, 62.98665618896484
36, 0, 0, 63.78311157226562
37, 0, 0, 66.73316955566406
38, 0, 0, 64.54523468017578
39, 0, 0, 65.24235534667969
40, 0, 0, 66.49977874755859
41, 0, 0, 67.64466857910156
42, 0, 0, 68.46288299560547
43, 0, 0, 69.32489776611328
44, 0, 0, 70.31259155273438
45, 0, 0, 69.69477081298828
46, 0, 0, 70.17178344726562
47, 0, 0, 70.14022064208984
48, 0, 0, 71.29668426513672
49, 0, 0, 72.88777160644531
50, 0, 0, 72.93019866943359
51, 0, 0, 74.18470001220703
52, 0, 0, 72.98459625244141
53, 0, 0, 75.53147125244141
54, 0, 0, 73.84375762939453
55, 0, 0, 76.19892883300781
56, 0, 0, 76.63349914550781
57, 0, 0, 78.12990570068359
58, 0, 0, 79.59153747558594
59, 0, 0, 79.37582397460938
60, 0, 0, 80.64911651611328
61, 0, 0, 82.77332305908203
62, 0, 0, 84.55747222900391
63, 0, 0, 86.16450500488281
64, 0, 0, 86.02394104003906
65, 0, 0, 88.34074401855469
66, 0, 0, 89.60725402832031
67, 0, 0, 90.76783752441406
68, 0, 0, 94.51692199707031
69, 0, 0, 92.08907318115234
70, 0, 0, 95.95313262939453
71, 0, 0, 96.62234497070312
72, 0, 0, 98.48870086669922
73, 0, 0, 102.5246429443359
74, 0, 0, 103.0774230957031
75, 0, 0, 104.9519424438477
76, 0, 0, 110.4756546020508
77, 0, 0, 110.9345932006836
78, 0, 0, 115.8446502685547
79, 0, 0, 118.1899490356445
80, 0, 0, 124.0482864379883
81, 0, 0, 126.4752883911133
82, 0, 0, 133.5149841308594
83, 0, 0, 138.4554901123047
84, 0, 0, 147.21728515625
85, 0, 0, 157.3873596191406
86, 0, 0, 165.7642364501953
87, 0, 0, 180.1681976318359
88, 0, 0, 199.2424163818359
89, 0, 0, 233.0249176025391
90, 0, 0, 281.68896484375
91, 0, 0, 313.0658874511719
92, 0, 0, 284.8149108886719
93, 0, 0, 207.5267944335938
94, 0, 0, 103.4287261962891
95, 0, 0, 36.04852294921875
96, 0, 0, 0
97, 0, 0, 0
98, 0, 0, 0
99, 0, 0, 0
100, 0, 0, 0
101, 0, 0, 0
102, 0, 0, 0
103, 0, 0, 0
104, 0, 0, 0
105, 0, 0, 0
106, 0, 0, 0
107, 0, 0, 0
108, 0, 0, 0
109, 0, 0, 0
110, 0, 0, 0
111, 0, 0, 0
112, 0, 0, 0
113, 0, 0, 0
114, 0, 0, 0
115, 0, 0, 0
116, 0, 0, 0
117, 0, 0, 0
118, 0, 0, 0
119, 0, 0, 0
120, 0, 0, 0
121, 0, 0, 0
122, 0, 0, 0
123, 0, 0, 0
124, 0, 0, 0
125, 0, 0, 0
126, 0, 0, 0
127, 0, 0, 0
128, 0, 0, 0
129, 0, 0, 0
130, 0, 0, 0
131, 0, 0, 0
132, 0, 0, 0
133, 0, 0, 0
134, 0, 0, 0
135, 0, 0, 0
136, 0, 0, 0
137, 0, 0, 0
138, 0, 0, 0
139, 0, 0, 0
140, 0, 0, 0
141, 0, 0, 0
142, 0, 0, 0
143, 0, 0, 0
144, 0, 0, 0
145, 0, 0, 0
146, 0, 0, 0
147, 0, 0, 0
148, 0, 0, 0
149, 0, 0, 0
150, 0, 0, 0
151, 0, 0, 0
152, 0, 0, 0
153, 0, 0, 0
154, 0, 0, 0
155, 0, 0, 0
156, 0, 0, 0
157, 0, 0, 0
158, 0, 0, 0
159, 0, 0, 0
160, 0, 0, 0
161, 0, 0, 0
162, 0, 0, 0
163, 0, 0, 0
164, 0, 0, 0
165, 0, 0, 0
166, 0, 0, 0
167, 0, 0, 0
168, 0, 0, 0
169, 0, 0, 0
170, 0, 0, 0
171, 0, 0, 0
172, 0, 0, 0
173, 0, 0, 0
174, 0, 0, 0
175, 0, 0, 0
176, 0, 0, 0
177, 0, 0, 0
178, 0, 0, 0
179, 0, 0, 0
