# TOPAS Version: 3.3.p1
# Parameter File: Simple_Pattern.txt
# Results for scorer MLIC_Scorer
# Scored in component: MLIC
# X in 180 bins of 0.222222 cm
# Y in 1 bin  of 10 cm
# Z in 1 bin  of 10 cm
# EnergyDeposit ( MeV ) : Sum   
0, 0, 0, 1116.706665039062
1, 0, 0, 1120.868774414062
2, 0, 0, 1128.171508789062
3, 0, 0, 1140.838256835938
4, 0, 0, 1138.599731445312
5, 0, 0, 1147.064453125
6, 0, 0, 1148.935546875
7, 0, 0, 1151.444458007812
8, 0, 0, 1167.09423828125
9, 0, 0, 1165.75390625
10, 0, 0, 1172.931762695312
11, 0, 0, 1167.71337890625
12, 0, 0, 1183.2265625
13, 0, 0, 1196.257080078125
14, 0, 0, 1197.438354492188
15, 0, 0, 1210.268188476562
16, 0, 0, 1207.63330078125
17, 0, 0, 1223.2939453125
18, 0, 0, 1227.998413085938
19, 0, 0, 1235.986572265625
20, 0, 0, 1234.421997070312
21, 0, 0, 1250.507690429688
22, 0, 0, 1255.940063476562
23, 0, 0, 1264.913452148438
24, 0, 0, 1274.36083984375
25, 0, 0, 1275.4912109375
26, 0, 0, 1286.146850585938
27, 0, 0, 1296.702026367188
28, 0, 0, 1317.107788085938
29, 0, 0, 1326.700439453125
30, 0, 0, 1323.895874023438
31, 0, 0, 1340.667724609375
32, 0, 0, 1349.345703125
33, 0, 0, 1358.092041015625
34, 0, 0, 1364.564086914062
35, 0, 0, 1375.912109375
36, 0, 0, 1386.295654296875
37, 0, 0, 1401.866088867188
38, 0, 0, 1408.089965820312
39, 0, 0, 1424.903564453125
40, 0, 0, 1439.369995117188
41, 0, 0, 1459.243774414062
42, 0, 0, 1468.49072265625
43, 0, 0, 1481.476196289062
44, 0, 0, 1494.948608398438
45, 0, 0, 1506.461181640625
46, 0, 0, 1517.400390625
47, 0, 0, 1537.83154296875
48, 0, 0, 1572.5
49, 0, 0, 1578.183227539062
50, 0, 0, 1603.85791015625
51, 0, 0, 1618.302856445312
52, 0, 0, 1633.913940429688
53, 0, 0, 1653.95849609375
54, 0, 0, 1683.867553710938
55, 0, 0, 1695.389404296875
56, 0, 0, 1720.3349609375
57, 0, 0, 1754.615478515625
58, 0, 0, 1778.399047851562
59, 0, 0, 1813.042724609375
60, 0, 0, 1845.281860351562
61, 0, 0, 1882.924560546875
62, 0, 0, 1913.44921875
63, 0, 0, 1950.7421875
64, 0, 0, 1984.402099609375
65, 0, 0, 2040.984985351562
66, 0, 0, 2090.51806640625
67, 0, 0, 2145.12890625
68, 0, 0, 2204.554931640625
69, 0, 0, 2273.537109375
70, 0, 0, 2347.259521484375
71, 0, 0, 2438.8291015625
72, 0, 0, 2548.122802734375
73, 0, 0, 2670.772216796875
74, 0, 0, 2821.07666015625
75, 0, 0, 3051.150390625
76, 0, 0, 3356.75927734375
77, 0, 0, 3713.00341796875
78, 0, 0, 3978.952880859375
79, 0, 0, 4075.609375
80, 0, 0, 3479.702392578125
81, 0, 0, 2507.2060546875
82, 0, 0, 1930.856811523438
83, 0, 0, 1674.803833007812
84, 0, 0, 1681.520629882812
85, 0, 0, 1793.264770507812
86, 0, 0, 1857.300170898438
87, 0, 0, 2017.495361328125
88, 0, 0, 2166.678955078125
89, 0, 0, 2461.304443359375
90, 0, 0, 2833.291259765625
91, 0, 0, 3164.38525390625
92, 0, 0, 3046.2958984375
93, 0, 0, 2397.775390625
94, 0, 0, 1183.443603515625
95, 0, 0, 443.1217041015625
96, 0, 0, 64.46591186523438
97, 0, 0, 8.70058536529541
98, 0, 0, 0
99, 0, 0, 0
100, 0, 0, 0
101, 0, 0, 0
102, 0, 0, 0
103, 0, 0, 0
104, 0, 0, 0
105, 0, 0, 0
106, 0, 0, 0
107, 0, 0, 0.02540460787713528
108, 0, 0, 0
109, 0, 0, 0
110, 0, 0, 0
111, 0, 0, 0
112, 0, 0, 0
113, 0, 0, 0
114, 0, 0, 0
115, 0, 0, 0
116, 0, 0, 0
117, 0, 0, 0
118, 0, 0, 0
119, 0, 0, 0
120, 0, 0, 0
121, 0, 0, 0
122, 0, 0, 0
123, 0, 0, 0
124, 0, 0, 0
125, 0, 0, 0
126, 0, 0, 0
127, 0, 0, 0
128, 0, 0, 0
129, 0, 0, 0
130, 0, 0, 0
131, 0, 0, 0
132, 0, 0, 0
133, 0, 0, 0
134, 0, 0, 0
135, 0, 0, 0
136, 0, 0, 0
137, 0, 0, 0
138, 0, 0, 0
139, 0, 0, 0
140, 0, 0, 0
141, 0, 0, 0
142, 0, 0, 0
143, 0, 0, 0
144, 0, 0, 0
145, 0, 0, 0
146, 0, 0, 0
147, 0, 0, 0
148, 0, 0, 0
149, 0, 0, 0
150, 0, 0, 0
151, 0, 0, 0
152, 0, 0, 0
153, 0, 0, 0
154, 0, 0, 0
155, 0, 0, 0
156, 0, 0, 0
157, 0, 0, 0
158, 0, 0, 0
159, 0, 0, 0
160, 0, 0, 0
161, 0, 0, 0
162, 0, 0, 0
163, 0, 0, 0
164, 0, 0, 0
165, 0, 0, 0
166, 0, 0, 0
167, 0, 0, 0
168, 0, 0, 0
169, 0, 0, 0
170, 0, 0, 0
171, 0, 0, 0
172, 0, 0, 0
173, 0, 0, 0
174, 0, 0, 0
175, 0, 0, 0
176, 0, 0, 0
177, 0, 0, 0
178, 0, 0, 0
179, 0, 0, 0
