# TOPAS Version: 3.3.p1
# Parameter File: Simple_Pattern.txt
# Results for scorer MLIC_Scorer
# Scored in component: MLIC
# X in 180 bins of 0.222222 cm
# Y in 1 bin  of 10 cm
# Z in 1 bin  of 10 cm
# EnergyDeposit ( MeV ) : Sum   
0, 0, 0, 1090.711669921875
1, 0, 0, 1083.934448242188
2, 0, 0, 1087.56298828125
3, 0, 0, 1098.599609375
4, 0, 0, 1100.184814453125
5, 0, 0, 1104.793212890625
6, 0, 0, 1110.22802734375
7, 0, 0, 1120.633544921875
8, 0, 0, 1113.857299804688
9, 0, 0, 1127.065185546875
10, 0, 0, 1124.330078125
11, 0, 0, 1128.813232421875
12, 0, 0, 1140.85546875
13, 0, 0, 1140.265991210938
14, 0, 0, 1136.747436523438
15, 0, 0, 1163.552368164062
16, 0, 0, 1152.62158203125
17, 0, 0, 1159.437622070312
18, 0, 0, 1164.537475585938
19, 0, 0, 1169.281860351562
20, 0, 0, 1176.2783203125
21, 0, 0, 1193.69677734375
22, 0, 0, 1188.342651367188
23, 0, 0, 1189.60595703125
24, 0, 0, 1195.891357421875
25, 0, 0, 1193.025756835938
26, 0, 0, 1201.474365234375
27, 0, 0, 1205.47705078125
28, 0, 0, 1195.642578125
29, 0, 0, 1211.49658203125
30, 0, 0, 1221.594970703125
31, 0, 0, 1218.377563476562
32, 0, 0, 1227.353149414062
33, 0, 0, 1239.64892578125
34, 0, 0, 1232.688232421875
35, 0, 0, 1235.18603515625
36, 0, 0, 1259.634765625
37, 0, 0, 1249.804565429688
38, 0, 0, 1266.935791015625
39, 0, 0, 1264.378051757812
40, 0, 0, 1272.694946289062
41, 0, 0, 1287.7998046875
42, 0, 0, 1296.639282226562
43, 0, 0, 1292.9140625
44, 0, 0, 1314.302612304688
45, 0, 0, 1319.0400390625
46, 0, 0, 1328.210571289062
47, 0, 0, 1326.173706054688
48, 0, 0, 1332.775512695312
49, 0, 0, 1339.369995117188
50, 0, 0, 1347.7080078125
51, 0, 0, 1360.9013671875
52, 0, 0, 1365.250610351562
53, 0, 0, 1381.027587890625
54, 0, 0, 1380.204956054688
55, 0, 0, 1390.00244140625
56, 0, 0, 1400.508178710938
57, 0, 0, 1413.096069335938
58, 0, 0, 1419.566040039062
59, 0, 0, 1425.830932617188
60, 0, 0, 1432.897216796875
61, 0, 0, 1444.498046875
62, 0, 0, 1456.326904296875
63, 0, 0, 1476.851440429688
64, 0, 0, 1497.383056640625
65, 0, 0, 1515.635498046875
66, 0, 0, 1531.312377929688
67, 0, 0, 1556.490844726562
68, 0, 0, 1571.275024414062
69, 0, 0, 1598.435913085938
70, 0, 0, 1625.97021484375
71, 0, 0, 1646.111328125
72, 0, 0, 1667.606689453125
73, 0, 0, 1704.844604492188
74, 0, 0, 1728.44873046875
75, 0, 0, 1775.632202148438
76, 0, 0, 1811.860229492188
77, 0, 0, 1857.63427734375
78, 0, 0, 1912.71923828125
79, 0, 0, 1963.563232421875
80, 0, 0, 2028.69189453125
81, 0, 0, 2104.4375
82, 0, 0, 2171.321044921875
83, 0, 0, 2250.4873046875
84, 0, 0, 2361.275146484375
85, 0, 0, 2492.52587890625
86, 0, 0, 2654.987060546875
87, 0, 0, 2866.01171875
88, 0, 0, 3171.019775390625
89, 0, 0, 3608.7041015625
90, 0, 0, 4245.1015625
91, 0, 0, 4574.9658203125
92, 0, 0, 4595.86572265625
93, 0, 0, 3320.61181640625
94, 0, 0, 1740.203857421875
95, 0, 0, 511.7534790039062
96, 0, 0, 115.250114440918
97, 0, 0, 18.46181297302246
98, 0, 0, 0.01143465004861355
99, 0, 0, 0.001156816608272493
100, 0, 0, 0.01719318889081478
101, 0, 0, 0
102, 0, 0, 0
103, 0, 0, 0
104, 0, 0, 0.000604701810516417
105, 0, 0, 0.002124590566381812
106, 0, 0, 0.02536603808403015
107, 0, 0, 0.0263424851000309
108, 0, 0, 0.03945691883563995
109, 0, 0, 0.1214984431862831
110, 0, 0, 0.02669383399188519
111, 0, 0, 0.1130964607000351
112, 0, 0, 0.1522238552570343
113, 0, 0, 0.08325843513011932
114, 0, 0, 0
115, 0, 0, 0.01848932541906834
116, 0, 0, 0.006330270785838366
117, 0, 0, 0.05674974247813225
118, 0, 0, 0
119, 0, 0, 0
120, 0, 0, 0.01153089478611946
121, 0, 0, 0.006613056641072035
122, 0, 0, 0.03652438148856163
123, 0, 0, 0.05558149516582489
124, 0, 0, 0.0379820242524147
125, 0, 0, 0
126, 0, 0, 0
127, 0, 0, 0
128, 0, 0, 0
129, 0, 0, 0
130, 0, 0, 0
131, 0, 0, 0
132, 0, 0, 0
133, 0, 0, 0
134, 0, 0, 0.002130029024556279
135, 0, 0, 0.003644783282652497
136, 0, 0, 0
137, 0, 0, 0
138, 0, 0, 0
139, 0, 0, 0
140, 0, 0, 0
141, 0, 0, 0.03018184937536716
142, 0, 0, 0
143, 0, 0, 0
144, 0, 0, 0
145, 0, 0, 0
146, 0, 0, 0
147, 0, 0, 0
148, 0, 0, 0
149, 0, 0, 0
150, 0, 0, 0
151, 0, 0, 0
152, 0, 0, 0
153, 0, 0, 0
154, 0, 0, 0
155, 0, 0, 0.05652759969234467
156, 0, 0, 0
157, 0, 0, 0
158, 0, 0, 0
159, 0, 0, 0
160, 0, 0, 0
161, 0, 0, 0
162, 0, 0, 0.09502296149730682
163, 0, 0, 0
164, 0, 0, 0.006623239256441593
165, 0, 0, 0
166, 0, 0, 0
167, 0, 0, 0
168, 0, 0, 0
169, 0, 0, 0.01227133069187403
170, 0, 0, 0
171, 0, 0, 0
172, 0, 0, 0.03048555552959442
173, 0, 0, 0
174, 0, 0, 0
175, 0, 0, 0
176, 0, 0, 0
177, 0, 0, 0
178, 0, 0, 0
179, 0, 0, 0.08851727098226547
