# TOPAS Version: 3.3.p1
# Parameter File: Simple_Pattern.txt
# Results for scorer MLIC_Scorer
# Scored in component: MLIC
# X in 180 bins of 0.222222 cm
# Y in 1 bin  of 10 cm
# Z in 1 bin  of 10 cm
# EnergyDeposit ( MeV ) : Sum   
0, 0, 0, 1085.243774414062
1, 0, 0, 1089.435424804688
2, 0, 0, 1089.669921875
3, 0, 0, 1104.52880859375
4, 0, 0, 1100.355712890625
5, 0, 0, 1112.778686523438
6, 0, 0, 1113.714721679688
7, 0, 0, 1120.39892578125
8, 0, 0, 1119.948852539062
9, 0, 0, 1123.007568359375
10, 0, 0, 1138.585327148438
11, 0, 0, 1139.77392578125
12, 0, 0, 1144.724853515625
13, 0, 0, 1160.47900390625
14, 0, 0, 1162.044067382812
15, 0, 0, 1164.048217773438
16, 0, 0, 1170.945922851562
17, 0, 0, 1175.1552734375
18, 0, 0, 1186.247802734375
19, 0, 0, 1189.777954101562
20, 0, 0, 1196.438110351562
21, 0, 0, 1197.3876953125
22, 0, 0, 1210.449829101562
23, 0, 0, 1216.905883789062
24, 0, 0, 1225.108154296875
25, 0, 0, 1238.333862304688
26, 0, 0, 1234.424560546875
27, 0, 0, 1244.053344726562
28, 0, 0, 1254.40380859375
29, 0, 0, 1263.424194335938
30, 0, 0, 1264.6103515625
31, 0, 0, 1277.594116210938
32, 0, 0, 1275.671508789062
33, 0, 0, 1294.461181640625
34, 0, 0, 1305.307739257812
35, 0, 0, 1309.22802734375
36, 0, 0, 1324.954345703125
37, 0, 0, 1329.972045898438
38, 0, 0, 1341.317260742188
39, 0, 0, 1351.862182617188
40, 0, 0, 1358.0244140625
41, 0, 0, 1365.465576171875
42, 0, 0, 1383.636962890625
43, 0, 0, 1399.473388671875
44, 0, 0, 1408.139404296875
45, 0, 0, 1420.02587890625
46, 0, 0, 1431.145629882812
47, 0, 0, 1453.366943359375
48, 0, 0, 1456.131713867188
49, 0, 0, 1462.989990234375
50, 0, 0, 1478.909301757812
51, 0, 0, 1499.6943359375
52, 0, 0, 1506.891479492188
53, 0, 0, 1523.794677734375
54, 0, 0, 1544.22509765625
55, 0, 0, 1563.966064453125
56, 0, 0, 1574.877685546875
57, 0, 0, 1595.284057617188
58, 0, 0, 1610.627319335938
59, 0, 0, 1627.715454101562
60, 0, 0, 1653.113037109375
61, 0, 0, 1674.122192382812
62, 0, 0, 1705.916870117188
63, 0, 0, 1726.892333984375
64, 0, 0, 1752.407836914062
65, 0, 0, 1777.879516601562
66, 0, 0, 1804.669311523438
67, 0, 0, 1832.161987304688
68, 0, 0, 1867.5966796875
69, 0, 0, 1894.025024414062
70, 0, 0, 1928.746704101562
71, 0, 0, 1969.95751953125
72, 0, 0, 2004.744506835938
73, 0, 0, 2055.11083984375
74, 0, 0, 2098.3671875
75, 0, 0, 2154.183349609375
76, 0, 0, 2207.676513671875
77, 0, 0, 2273.703125
78, 0, 0, 2335.34619140625
79, 0, 0, 2403.91943359375
80, 0, 0, 2494.923095703125
81, 0, 0, 2576.507568359375
82, 0, 0, 2689.718017578125
83, 0, 0, 2812.342529296875
84, 0, 0, 2949.382080078125
85, 0, 0, 3131.5322265625
86, 0, 0, 3363.0537109375
87, 0, 0, 3637.340087890625
88, 0, 0, 4044.710693359375
89, 0, 0, 4619.44677734375
90, 0, 0, 5367.36181640625
91, 0, 0, 6129.62158203125
92, 0, 0, 5838.06640625
93, 0, 0, 4193.83203125
94, 0, 0, 2236.002197265625
95, 0, 0, 732.97119140625
96, 0, 0, 149.6394500732422
97, 0, 0, 29.88827133178711
98, 0, 0, 0
99, 0, 0, 0
100, 0, 0, 0
101, 0, 0, 0
102, 0, 0, 0
103, 0, 0, 0
104, 0, 0, 0
105, 0, 0, 0
106, 0, 0, 0
107, 0, 0, 0
108, 0, 0, 0
109, 0, 0, 0
110, 0, 0, 0
111, 0, 0, 0
112, 0, 0, 0
113, 0, 0, 0
114, 0, 0, 0
115, 0, 0, 0
116, 0, 0, 0
117, 0, 0, 0
118, 0, 0, 0
119, 0, 0, 0
120, 0, 0, 0.02089115791022778
121, 0, 0, 0
122, 0, 0, 0
123, 0, 0, 0
124, 0, 0, 0
125, 0, 0, 0
126, 0, 0, 0
127, 0, 0, 0
128, 0, 0, 0
129, 0, 0, 0
130, 0, 0, 0
131, 0, 0, 0
132, 0, 0, 0
133, 0, 0, 0
134, 0, 0, 0
135, 0, 0, 0
136, 0, 0, 0
137, 0, 0, 0
138, 0, 0, 0
139, 0, 0, 0
140, 0, 0, 0
141, 0, 0, 0
142, 0, 0, 0
143, 0, 0, 0
144, 0, 0, 0
145, 0, 0, 0
146, 0, 0, 0
147, 0, 0, 0
148, 0, 0, 0
149, 0, 0, 0
150, 0, 0, 0
151, 0, 0, 0
152, 0, 0, 0
153, 0, 0, 0
154, 0, 0, 0
155, 0, 0, 0
156, 0, 0, 0
157, 0, 0, 0
158, 0, 0, 0
159, 0, 0, 0
160, 0, 0, 0
161, 0, 0, 0
162, 0, 0, 0
163, 0, 0, 0
164, 0, 0, 0
165, 0, 0, 0
166, 0, 0, 0
167, 0, 0, 0
168, 0, 0, 0
169, 0, 0, 0
170, 0, 0, 0
171, 0, 0, 0
172, 0, 0, 0
173, 0, 0, 0
174, 0, 0, 0
175, 0, 0, 0
176, 0, 0, 0
177, 0, 0, 0
178, 0, 0, 0
179, 0, 0, 0
