# TOPAS Version: 3.3.p1
# Parameter File: Simple_Pattern.txt
# Results for scorer MLIC_Scorer
# Scored in component: MLIC
# X in 165 bins of 0.2 cm
# Y in 1 bin  of 10 cm
# Z in 1 bin  of 10 cm
# EnergyDeposit ( MeV ) : Sum   
0, 0, 0, 933.736083984375
1, 0, 0, 945.2077026367188
2, 0, 0, 942.8192138671875
3, 0, 0, 950.486328125
4, 0, 0, 943.3007202148438
5, 0, 0, 956.2967529296875
6, 0, 0, 955.1751098632812
7, 0, 0, 952.663330078125
8, 0, 0, 952.0693969726562
9, 0, 0, 957.9983520507812
10, 0, 0, 972.1470947265625
11, 0, 0, 969.0433349609375
12, 0, 0, 974.1552124023438
13, 0, 0, 978.191650390625
14, 0, 0, 981.2063598632812
15, 0, 0, 976.6609497070312
16, 0, 0, 980.40185546875
17, 0, 0, 977.747314453125
18, 0, 0, 985.9590454101562
19, 0, 0, 992.8863525390625
20, 0, 0, 997.5023193359375
21, 0, 0, 998.0352783203125
22, 0, 0, 988.1469116210938
23, 0, 0, 998.06787109375
24, 0, 0, 997.1683349609375
25, 0, 0, 998.9752807617188
26, 0, 0, 1004.159301757812
27, 0, 0, 1016.398498535156
28, 0, 0, 1016.863220214844
29, 0, 0, 1019.976257324219
30, 0, 0, 1018.604064941406
31, 0, 0, 1020.080200195312
32, 0, 0, 1014.192504882812
33, 0, 0, 1018.45166015625
34, 0, 0, 1020.389770507812
35, 0, 0, 1019.948486328125
36, 0, 0, 1024.134765625
37, 0, 0, 1030.478637695312
38, 0, 0, 1024.734985351562
39, 0, 0, 1026.910278320312
40, 0, 0, 1029.99169921875
41, 0, 0, 1026.447998046875
42, 0, 0, 1029.745239257812
43, 0, 0, 1039.341064453125
44, 0, 0, 1029.812866210938
45, 0, 0, 1045.612915039062
46, 0, 0, 1041.087646484375
47, 0, 0, 1039.046875
48, 0, 0, 1048.891479492188
49, 0, 0, 1036.90625
50, 0, 0, 1054.01904296875
51, 0, 0, 1054.517944335938
52, 0, 0, 1057.90380859375
53, 0, 0, 1061.44482421875
54, 0, 0, 1055.564575195312
55, 0, 0, 1059.269287109375
56, 0, 0, 1067.04248046875
57, 0, 0, 1065.306762695312
58, 0, 0, 1072.651489257812
59, 0, 0, 1071.320922851562
60, 0, 0, 1088.342895507812
61, 0, 0, 1087.32373046875
62, 0, 0, 1100.377197265625
63, 0, 0, 1096.065307617188
64, 0, 0, 1098.313110351562
65, 0, 0, 1106.278930664062
66, 0, 0, 1115.359130859375
67, 0, 0, 1115.629150390625
68, 0, 0, 1122.407104492188
69, 0, 0, 1133.702758789062
70, 0, 0, 1138.000732421875
71, 0, 0, 1136.006591796875
72, 0, 0, 1145.166870117188
73, 0, 0, 1156.224731445312
74, 0, 0, 1165.011962890625
75, 0, 0, 1167.95068359375
76, 0, 0, 1179.392211914062
77, 0, 0, 1184.554809570312
78, 0, 0, 1190.845825195312
79, 0, 0, 1193.29833984375
80, 0, 0, 1210.056274414062
81, 0, 0, 1209.969116210938
82, 0, 0, 1237.94140625
83, 0, 0, 1241.647094726562
84, 0, 0, 1261.097412109375
85, 0, 0, 1270.066650390625
86, 0, 0, 1286.274780273438
87, 0, 0, 1302.412353515625
88, 0, 0, 1313.628784179688
89, 0, 0, 1335.870239257812
90, 0, 0, 1344.798583984375
91, 0, 0, 1370.691284179688
92, 0, 0, 1397.888671875
93, 0, 0, 1416.906494140625
94, 0, 0, 1440.999267578125
95, 0, 0, 1469.103393554688
96, 0, 0, 1492.126831054688
97, 0, 0, 1529.6015625
98, 0, 0, 1562.903686523438
99, 0, 0, 1588.973510742188
100, 0, 0, 1634.359985351562
101, 0, 0, 1677.11328125
102, 0, 0, 1725.622192382812
103, 0, 0, 1786.70947265625
104, 0, 0, 1850.713134765625
105, 0, 0, 1931.918823242188
106, 0, 0, 2010.920776367188
107, 0, 0, 2120.7666015625
108, 0, 0, 2252.581787109375
109, 0, 0, 2424.90283203125
110, 0, 0, 2683.4306640625
111, 0, 0, 3036.5400390625
112, 0, 0, 3428.051025390625
113, 0, 0, 3776.0673828125
114, 0, 0, 3810.604248046875
115, 0, 0, 3349.8134765625
116, 0, 0, 2051.691162109375
117, 0, 0, 1150.963623046875
118, 0, 0, 363.7249145507812
119, 0, 0, 95.00237274169922
120, 0, 0, 0
121, 0, 0, 0
122, 0, 0, 0.02108585275709629
123, 0, 0, 0.01230670418590307
124, 0, 0, 0.01579494588077068
125, 0, 0, 0.01595259644091129
126, 0, 0, 0.04081520810723305
127, 0, 0, 0
128, 0, 0, 0
129, 0, 0, 0
130, 0, 0, 0.02559207193553448
131, 0, 0, 0
132, 0, 0, 0.004550585988909006
133, 0, 0, 0
134, 0, 0, 0.08563745021820068
135, 0, 0, 0
136, 0, 0, 0
137, 0, 0, 0.08847351372241974
138, 0, 0, 0.014810461550951
139, 0, 0, 0
140, 0, 0, 0
141, 0, 0, 0
142, 0, 0, 0
143, 0, 0, 0
144, 0, 0, 0.04408783093094826
145, 0, 0, 0
146, 0, 0, 0
147, 0, 0, 0
148, 0, 0, 0
149, 0, 0, 0.03735467419028282
150, 0, 0, 0
151, 0, 0, 0
152, 0, 0, 0
153, 0, 0, 0.008493987843394279
154, 0, 0, 0
155, 0, 0, 0
156, 0, 0, 0
157, 0, 0, 0
158, 0, 0, 0
159, 0, 0, 0
160, 0, 0, 0
161, 0, 0, 0
162, 0, 0, 0
163, 0, 0, 0
164, 0, 0, 0.01719353906810284
