# TOPAS Version: 3.3.p1
# Parameter File: Simple_Pattern.txt
# Results for scorer MLIC_Scorer
# Scored in component: MLIC
# X in 165 bins of 0.2 cm
# Y in 1 bin  of 10 cm
# Z in 1 bin  of 10 cm
# EnergyDeposit ( MeV ) : Sum   
0, 0, 0, 938.0288696289062
1, 0, 0, 941.44677734375
2, 0, 0, 947.6187133789062
3, 0, 0, 943.3296508789062
4, 0, 0, 949.4295654296875
5, 0, 0, 953.5816650390625
6, 0, 0, 954.9938354492188
7, 0, 0, 958.4715576171875
8, 0, 0, 954.0113525390625
9, 0, 0, 961.367431640625
10, 0, 0, 966.3722534179688
11, 0, 0, 974.3703002929688
12, 0, 0, 981.0396728515625
13, 0, 0, 975.7803955078125
14, 0, 0, 977.9418334960938
15, 0, 0, 976.3388671875
16, 0, 0, 981.7400512695312
17, 0, 0, 994.227783203125
18, 0, 0, 994.7514038085938
19, 0, 0, 993.5733032226562
20, 0, 0, 990.0309448242188
21, 0, 0, 999.417236328125
22, 0, 0, 992.1210327148438
23, 0, 0, 1004.102661132812
24, 0, 0, 1010.247497558594
25, 0, 0, 1012.571228027344
26, 0, 0, 1007.642150878906
27, 0, 0, 1022.567504882812
28, 0, 0, 1023.296813964844
29, 0, 0, 1026.5673828125
30, 0, 0, 1025.849975585938
31, 0, 0, 1034.444580078125
32, 0, 0, 1046.067138671875
33, 0, 0, 1028.7548828125
34, 0, 0, 1040.451904296875
35, 0, 0, 1036.628540039062
36, 0, 0, 1040.46044921875
37, 0, 0, 1048.81689453125
38, 0, 0, 1048.331420898438
39, 0, 0, 1043.036376953125
40, 0, 0, 1057.65087890625
41, 0, 0, 1050.41845703125
42, 0, 0, 1050.393188476562
43, 0, 0, 1056.529174804688
44, 0, 0, 1063.22265625
45, 0, 0, 1055.240844726562
46, 0, 0, 1068.755737304688
47, 0, 0, 1070.97216796875
48, 0, 0, 1064.51953125
49, 0, 0, 1084.38330078125
50, 0, 0, 1074.647705078125
51, 0, 0, 1084.109497070312
52, 0, 0, 1089.697631835938
53, 0, 0, 1099.513061523438
54, 0, 0, 1100.388305664062
55, 0, 0, 1111.206176757812
56, 0, 0, 1115.787963867188
57, 0, 0, 1116.895751953125
58, 0, 0, 1115.095947265625
59, 0, 0, 1126.579223632812
60, 0, 0, 1128.91259765625
61, 0, 0, 1138.666870117188
62, 0, 0, 1141.624633789062
63, 0, 0, 1145.82958984375
64, 0, 0, 1137.47314453125
65, 0, 0, 1155.146728515625
66, 0, 0, 1160.281005859375
67, 0, 0, 1166.69873046875
68, 0, 0, 1179.151733398438
69, 0, 0, 1192.3369140625
70, 0, 0, 1201.356689453125
71, 0, 0, 1203.120727539062
72, 0, 0, 1218.441040039062
73, 0, 0, 1224.545288085938
74, 0, 0, 1229.899536132812
75, 0, 0, 1240.32470703125
76, 0, 0, 1244.126342773438
77, 0, 0, 1248.049682617188
78, 0, 0, 1264.131713867188
79, 0, 0, 1273.571533203125
80, 0, 0, 1279.74267578125
81, 0, 0, 1295.259887695312
82, 0, 0, 1304.87158203125
83, 0, 0, 1319.5986328125
84, 0, 0, 1321.702270507812
85, 0, 0, 1335.876831054688
86, 0, 0, 1348.623046875
87, 0, 0, 1356.675537109375
88, 0, 0, 1367.847045898438
89, 0, 0, 1389.28369140625
90, 0, 0, 1411.074462890625
91, 0, 0, 1417.355590820312
92, 0, 0, 1450.8134765625
93, 0, 0, 1473.185546875
94, 0, 0, 1490.980590820312
95, 0, 0, 1530.612548828125
96, 0, 0, 1555.417846679688
97, 0, 0, 1584.747436523438
98, 0, 0, 1613.439819335938
99, 0, 0, 1649.39501953125
100, 0, 0, 1684.318237304688
101, 0, 0, 1719.727661132812
102, 0, 0, 1786.370361328125
103, 0, 0, 1843.185180664062
104, 0, 0, 1897.037475585938
105, 0, 0, 1983.135986328125
106, 0, 0, 2079.939453125
107, 0, 0, 2190.734375
108, 0, 0, 2329.946533203125
109, 0, 0, 2493.302734375
110, 0, 0, 2760.323974609375
111, 0, 0, 3090.28125
112, 0, 0, 3509.1005859375
113, 0, 0, 3961.178466796875
114, 0, 0, 3906.29296875
115, 0, 0, 3247.34619140625
116, 0, 0, 2241.00390625
117, 0, 0, 1065.076171875
118, 0, 0, 380.2583923339844
119, 0, 0, 113.7737808227539
120, 0, 0, 9.434816360473633
121, 0, 0, 0.03360064700245857
122, 0, 0, 0.09142699092626572
123, 0, 0, 0
124, 0, 0, 0.09432399272918701
125, 0, 0, 0.06687027215957642
126, 0, 0, 0.07625677436590195
127, 0, 0, 0.008005594834685326
128, 0, 0, 0
129, 0, 0, 0.03731141984462738
130, 0, 0, 0.07570869475603104
131, 0, 0, 0
132, 0, 0, 0
133, 0, 0, 0.04044158756732941
134, 0, 0, 0
135, 0, 0, 0
136, 0, 0, 0.04175083711743355
137, 0, 0, 0.07408984750509262
138, 0, 0, 0.007269600406289101
139, 0, 0, 0
140, 0, 0, 0
141, 0, 0, 0.1078057661652565
142, 0, 0, 0.06148769333958626
143, 0, 0, 0.04417542368173599
144, 0, 0, 0.07679677754640579
145, 0, 0, 0
146, 0, 0, 0.01376770902425051
147, 0, 0, 0
148, 0, 0, 0
149, 0, 0, 0
150, 0, 0, 0.01364051923155785
151, 0, 0, 0
152, 0, 0, 0
153, 0, 0, 0
154, 0, 0, 0
155, 0, 0, 0.008368168957531452
156, 0, 0, 0.006034455262124538
157, 0, 0, 0
158, 0, 0, 0
159, 0, 0, 0
160, 0, 0, 0
161, 0, 0, 0
162, 0, 0, 0.09824902564287186
163, 0, 0, 0.1467138826847076
164, 0, 0, 0.04303192347288132
