# TOPAS Version: 3.3.p1
# Parameter File: Simple_Pattern.txt
# Results for scorer MLIC_Scorer
# Scored in component: MLIC
# X in 180 bins of 0.222222 cm
# Y in 1 bin  of 10 cm
# Z in 1 bin  of 10 cm
# EnergyDeposit ( MeV ) : Sum   
0, 0, 0, 1087.631103515625
1, 0, 0, 1097.923828125
2, 0, 0, 1092.828735351562
3, 0, 0, 1101.663818359375
4, 0, 0, 1116.128540039062
5, 0, 0, 1111.03173828125
6, 0, 0, 1114.516235351562
7, 0, 0, 1121.562866210938
8, 0, 0, 1122.628295898438
9, 0, 0, 1128.502563476562
10, 0, 0, 1134.458251953125
11, 0, 0, 1138.673583984375
12, 0, 0, 1150.390502929688
13, 0, 0, 1157.6474609375
14, 0, 0, 1161.039306640625
15, 0, 0, 1158.439697265625
16, 0, 0, 1161.5595703125
17, 0, 0, 1180.435180664062
18, 0, 0, 1184.113647460938
19, 0, 0, 1194.100341796875
20, 0, 0, 1197.517333984375
21, 0, 0, 1202.291137695312
22, 0, 0, 1210.861694335938
23, 0, 0, 1214.847900390625
24, 0, 0, 1216.501586914062
25, 0, 0, 1231.73193359375
26, 0, 0, 1230.858154296875
27, 0, 0, 1240.21533203125
28, 0, 0, 1252.502075195312
29, 0, 0, 1258.119018554688
30, 0, 0, 1263.934936523438
31, 0, 0, 1274.182250976562
32, 0, 0, 1288.597900390625
33, 0, 0, 1298.536376953125
34, 0, 0, 1295.531982421875
35, 0, 0, 1311.026489257812
36, 0, 0, 1314.697021484375
37, 0, 0, 1324.142700195312
38, 0, 0, 1334.618041992188
39, 0, 0, 1346.0048828125
40, 0, 0, 1355.245361328125
41, 0, 0, 1372.875366210938
42, 0, 0, 1383.6787109375
43, 0, 0, 1396.140747070312
44, 0, 0, 1407.58447265625
45, 0, 0, 1420.380981445312
46, 0, 0, 1432.631713867188
47, 0, 0, 1443.078125
48, 0, 0, 1458.288208007812
49, 0, 0, 1478.95263671875
50, 0, 0, 1483.277709960938
51, 0, 0, 1499.445922851562
52, 0, 0, 1509.290649414062
53, 0, 0, 1531.349731445312
54, 0, 0, 1540.288696289062
55, 0, 0, 1566.26171875
56, 0, 0, 1577.8955078125
57, 0, 0, 1601.599365234375
58, 0, 0, 1625.542114257812
59, 0, 0, 1631.019409179688
60, 0, 0, 1660.678833007812
61, 0, 0, 1672.029052734375
62, 0, 0, 1696.375244140625
63, 0, 0, 1723.7119140625
64, 0, 0, 1740.947387695312
65, 0, 0, 1779.318359375
66, 0, 0, 1796.9091796875
67, 0, 0, 1830.8115234375
68, 0, 0, 1852.776123046875
69, 0, 0, 1901.083862304688
70, 0, 0, 1926.647216796875
71, 0, 0, 1977.992919921875
72, 0, 0, 2018.686767578125
73, 0, 0, 2054.956298828125
74, 0, 0, 2095.16162109375
75, 0, 0, 2155.779052734375
76, 0, 0, 2201.789306640625
77, 0, 0, 2267.232177734375
78, 0, 0, 2319.87890625
79, 0, 0, 2404.666259765625
80, 0, 0, 2484.308349609375
81, 0, 0, 2577.860107421875
82, 0, 0, 2686.935546875
83, 0, 0, 2801.723388671875
84, 0, 0, 2957.435791015625
85, 0, 0, 3133.77587890625
86, 0, 0, 3351.21484375
87, 0, 0, 3650.908447265625
88, 0, 0, 4061.147705078125
89, 0, 0, 4636.4111328125
90, 0, 0, 5587.57275390625
91, 0, 0, 6127.83935546875
92, 0, 0, 5441.64404296875
93, 0, 0, 4149.822265625
94, 0, 0, 2180.421630859375
95, 0, 0, 690.0574340820312
96, 0, 0, 172.2772674560547
97, 0, 0, 15.54268646240234
98, 0, 0, 0.0103461742401123
99, 0, 0, 0
100, 0, 0, 0
101, 0, 0, 0.003604686353355646
102, 0, 0, 0.01879228837788105
103, 0, 0, 0.05212324857711792
104, 0, 0, 0
105, 0, 0, 0
106, 0, 0, 0
107, 0, 0, 0
108, 0, 0, 0
109, 0, 0, 0
110, 0, 0, 0
111, 0, 0, 0
112, 0, 0, 0
113, 0, 0, 0
114, 0, 0, 0
115, 0, 0, 0
116, 0, 0, 0
117, 0, 0, 0
118, 0, 0, 0
119, 0, 0, 0
120, 0, 0, 0
121, 0, 0, 0
122, 0, 0, 0
123, 0, 0, 0
124, 0, 0, 0
125, 0, 0, 0
126, 0, 0, 0
127, 0, 0, 0
128, 0, 0, 0
129, 0, 0, 0
130, 0, 0, 0
131, 0, 0, 0
132, 0, 0, 0
133, 0, 0, 0
134, 0, 0, 0
135, 0, 0, 0
136, 0, 0, 0
137, 0, 0, 0
138, 0, 0, 0
139, 0, 0, 0
140, 0, 0, 0
141, 0, 0, 0
142, 0, 0, 0
143, 0, 0, 0
144, 0, 0, 0
145, 0, 0, 0
146, 0, 0, 0
147, 0, 0, 0.04180151596665382
148, 0, 0, 0
149, 0, 0, 0
150, 0, 0, 0
151, 0, 0, 0
152, 0, 0, 0
153, 0, 0, 0
154, 0, 0, 0
155, 0, 0, 0
156, 0, 0, 0
157, 0, 0, 0
158, 0, 0, 0
159, 0, 0, 0
160, 0, 0, 0
161, 0, 0, 0
162, 0, 0, 0
163, 0, 0, 0
164, 0, 0, 0
165, 0, 0, 0
166, 0, 0, 0
167, 0, 0, 0
168, 0, 0, 0
169, 0, 0, 0
170, 0, 0, 0
171, 0, 0, 0
172, 0, 0, 0
173, 0, 0, 0
174, 0, 0, 0
175, 0, 0, 0
176, 0, 0, 0
177, 0, 0, 0
178, 0, 0, 0
179, 0, 0, 0
