# TOPAS Version: 3.3.p1
# Parameter File: Simple_Pattern.txt
# Results for scorer MLIC_Scorer
# Scored in component: MLIC
# X in 180 bins of 0.222222 cm
# Y in 1 bin  of 10 cm
# Z in 1 bin  of 10 cm
# EnergyDeposit ( MeV ) : Sum   
0, 0, 0, 1091.281494140625
1, 0, 0, 1090.994384765625
2, 0, 0, 1095.20166015625
3, 0, 0, 1103.433837890625
4, 0, 0, 1102.405883789062
5, 0, 0, 1111.880615234375
6, 0, 0, 1122.9169921875
7, 0, 0, 1128.907348632812
8, 0, 0, 1133.177124023438
9, 0, 0, 1124.455078125
10, 0, 0, 1125.353515625
11, 0, 0, 1134.547241210938
12, 0, 0, 1135.542236328125
13, 0, 0, 1148.813842773438
14, 0, 0, 1155.663208007812
15, 0, 0, 1150.754638671875
16, 0, 0, 1143.103881835938
17, 0, 0, 1158.842041015625
18, 0, 0, 1156.592407226562
19, 0, 0, 1171.409423828125
20, 0, 0, 1166.809204101562
21, 0, 0, 1173.980224609375
22, 0, 0, 1178.862548828125
23, 0, 0, 1178.498413085938
24, 0, 0, 1193.814697265625
25, 0, 0, 1186.365356445312
26, 0, 0, 1188.347534179688
27, 0, 0, 1205.216186523438
28, 0, 0, 1202.124633789062
29, 0, 0, 1213.341430664062
30, 0, 0, 1209.065673828125
31, 0, 0, 1210.928344726562
32, 0, 0, 1222.009887695312
33, 0, 0, 1219.631591796875
34, 0, 0, 1220.629028320312
35, 0, 0, 1227.371337890625
36, 0, 0, 1239.315673828125
37, 0, 0, 1238.111083984375
38, 0, 0, 1236.68017578125
39, 0, 0, 1243.926513671875
40, 0, 0, 1249.438354492188
41, 0, 0, 1246.709716796875
42, 0, 0, 1259.950561523438
43, 0, 0, 1265.347778320312
44, 0, 0, 1282.892700195312
45, 0, 0, 1284.932739257812
46, 0, 0, 1286.254028320312
47, 0, 0, 1295.376708984375
48, 0, 0, 1312.26806640625
49, 0, 0, 1312.290161132812
50, 0, 0, 1323.007568359375
51, 0, 0, 1330.796264648438
52, 0, 0, 1337.803100585938
53, 0, 0, 1353.661254882812
54, 0, 0, 1365.577270507812
55, 0, 0, 1372.845581054688
56, 0, 0, 1379.7626953125
57, 0, 0, 1397.946411132812
58, 0, 0, 1411.135009765625
59, 0, 0, 1414.844116210938
60, 0, 0, 1428.095825195312
61, 0, 0, 1436.850830078125
62, 0, 0, 1448.312133789062
63, 0, 0, 1466.938232421875
64, 0, 0, 1470.810791015625
65, 0, 0, 1496.7392578125
66, 0, 0, 1495.4599609375
67, 0, 0, 1510.7421875
68, 0, 0, 1548.275756835938
69, 0, 0, 1565.294189453125
70, 0, 0, 1585.256469726562
71, 0, 0, 1594.465576171875
72, 0, 0, 1632.320068359375
73, 0, 0, 1657.575439453125
74, 0, 0, 1687.612670898438
75, 0, 0, 1720.659057617188
76, 0, 0, 1750.92724609375
77, 0, 0, 1798.144653320312
78, 0, 0, 1842.517456054688
79, 0, 0, 1884.558471679688
80, 0, 0, 1948.595092773438
81, 0, 0, 2017.082397460938
82, 0, 0, 2086.592041015625
83, 0, 0, 2177.945068359375
84, 0, 0, 2285.15869140625
85, 0, 0, 2413.888916015625
86, 0, 0, 2571.836669921875
87, 0, 0, 2786.31103515625
88, 0, 0, 3049.095703125
89, 0, 0, 3532.961669921875
90, 0, 0, 4057.73779296875
91, 0, 0, 4538.7763671875
92, 0, 0, 4334.4111328125
93, 0, 0, 3161.107666015625
94, 0, 0, 1446.249755859375
95, 0, 0, 460.9782409667969
96, 0, 0, 58.61488723754883
97, 0, 0, 12.76657485961914
98, 0, 0, 0
99, 0, 0, 0
100, 0, 0, 0
101, 0, 0, 0.02583177387714386
102, 0, 0, 0
103, 0, 0, 0
104, 0, 0, 0.006431417539715767
105, 0, 0, 0.0763726681470871
106, 0, 0, 0.06916531175374985
107, 0, 0, 0.04570598900318146
108, 0, 0, 0.08019328862428665
109, 0, 0, 0.3160452842712402
110, 0, 0, 0
111, 0, 0, 0.03581948205828667
112, 0, 0, 0.01128759607672691
113, 0, 0, 0
114, 0, 0, 0.0655466690659523
115, 0, 0, 0.05493896827101707
116, 0, 0, 0
117, 0, 0, 0.0601140484213829
118, 0, 0, 0.002213428029790521
119, 0, 0, 0.0287636574357748
120, 0, 0, 0
121, 0, 0, 0
122, 0, 0, 0
123, 0, 0, 0.004526284523308277
124, 0, 0, 0
125, 0, 0, 0.007115163374692202
126, 0, 0, 0
127, 0, 0, 0.0401853583753109
128, 0, 0, 0
129, 0, 0, 0.02982731722295284
130, 0, 0, 0.1095855608582497
131, 0, 0, 0.07150381803512573
132, 0, 0, 0.003926563542336226
133, 0, 0, 0
134, 0, 0, 0
135, 0, 0, 0
136, 0, 0, 0
137, 0, 0, 0
138, 0, 0, 0
139, 0, 0, 0.008603748865425587
140, 0, 0, 0.005067264195531607
141, 0, 0, 0
142, 0, 0, 0.01367974281311035
143, 0, 0, 0.03952908143401146
144, 0, 0, 0
145, 0, 0, 0
146, 0, 0, 0
147, 0, 0, 0
148, 0, 0, 0.06673135608434677
149, 0, 0, 0
150, 0, 0, 0.01211310364305973
151, 0, 0, 0
152, 0, 0, 0
153, 0, 0, 0
154, 0, 0, 0
155, 0, 0, 0
156, 0, 0, 0.01202154438942671
157, 0, 0, 0
158, 0, 0, 0
159, 0, 0, 0
160, 0, 0, 0
161, 0, 0, 0.003346219658851624
162, 0, 0, 0
163, 0, 0, 0
164, 0, 0, 0.02940844558179379
165, 0, 0, 0.01588397286832333
166, 0, 0, 0
167, 0, 0, 0
168, 0, 0, 0.02796676196157932
169, 0, 0, 0
170, 0, 0, 0
171, 0, 0, 0
172, 0, 0, 0
173, 0, 0, 0
174, 0, 0, 0
175, 0, 0, 0
176, 0, 0, 0
177, 0, 0, 0
178, 0, 0, 0.02092498540878296
179, 0, 0, 0
