# TOPAS Version: 3.3.p1
# Parameter File: Simple_Pattern.txt
# Results for scorer MLIC_Scorer
# Scored in component: MLIC
# X in 180 bins of 0.222222 cm
# Y in 1 bin  of 10 cm
# Z in 1 bin  of 10 cm
# EnergyDeposit ( MeV ) : Sum   
0, 0, 0, 1080.497314453125
1, 0, 0, 1094.668334960938
2, 0, 0, 1101.389038085938
3, 0, 0, 1095.924682617188
4, 0, 0, 1106.373413085938
5, 0, 0, 1112.46435546875
6, 0, 0, 1109.919067382812
7, 0, 0, 1114.49609375
8, 0, 0, 1127.823852539062
9, 0, 0, 1136.1103515625
10, 0, 0, 1128.275634765625
11, 0, 0, 1143.082885742188
12, 0, 0, 1142.573486328125
13, 0, 0, 1156.622802734375
14, 0, 0, 1155.475341796875
15, 0, 0, 1155.965087890625
16, 0, 0, 1177.742797851562
17, 0, 0, 1176.584106445312
18, 0, 0, 1182.371337890625
19, 0, 0, 1187.467407226562
20, 0, 0, 1186.135864257812
21, 0, 0, 1198.06591796875
22, 0, 0, 1204.423706054688
23, 0, 0, 1218.078125
24, 0, 0, 1236.116333007812
25, 0, 0, 1236.43603515625
26, 0, 0, 1240.450805664062
27, 0, 0, 1250.547485351562
28, 0, 0, 1253.23388671875
29, 0, 0, 1254.602783203125
30, 0, 0, 1266.425903320312
31, 0, 0, 1269.873901367188
32, 0, 0, 1292.517456054688
33, 0, 0, 1297.01171875
34, 0, 0, 1302.803955078125
35, 0, 0, 1316.073120117188
36, 0, 0, 1320.521240234375
37, 0, 0, 1331.547241210938
38, 0, 0, 1341.809692382812
39, 0, 0, 1354.721069335938
40, 0, 0, 1361.10546875
41, 0, 0, 1363.67529296875
42, 0, 0, 1386.23779296875
43, 0, 0, 1388.8291015625
44, 0, 0, 1404.3876953125
45, 0, 0, 1420.0654296875
46, 0, 0, 1419.99267578125
47, 0, 0, 1441.683959960938
48, 0, 0, 1456.702026367188
49, 0, 0, 1461.500244140625
50, 0, 0, 1480.141479492188
51, 0, 0, 1487.924438476562
52, 0, 0, 1512.6455078125
53, 0, 0, 1528.796508789062
54, 0, 0, 1536.855834960938
55, 0, 0, 1563.346557617188
56, 0, 0, 1577.67822265625
57, 0, 0, 1596.865844726562
58, 0, 0, 1620.800659179688
59, 0, 0, 1632.595458984375
60, 0, 0, 1647.601928710938
61, 0, 0, 1674.999145507812
62, 0, 0, 1702.778564453125
63, 0, 0, 1731.2041015625
64, 0, 0, 1749.617065429688
65, 0, 0, 1775.933837890625
66, 0, 0, 1812.27294921875
67, 0, 0, 1848.332397460938
68, 0, 0, 1876.731201171875
69, 0, 0, 1908.796875
70, 0, 0, 1951.709594726562
71, 0, 0, 1969.854858398438
72, 0, 0, 2012.088745117188
73, 0, 0, 2052.61083984375
74, 0, 0, 2106.062744140625
75, 0, 0, 2153.088623046875
76, 0, 0, 2204.390380859375
77, 0, 0, 2266.55029296875
78, 0, 0, 2324.12060546875
79, 0, 0, 2397.7529296875
80, 0, 0, 2485.700439453125
81, 0, 0, 2582.296142578125
82, 0, 0, 2686.06396484375
83, 0, 0, 2815.385498046875
84, 0, 0, 2966.047119140625
85, 0, 0, 3136.993408203125
86, 0, 0, 3361.828369140625
87, 0, 0, 3621.93359375
88, 0, 0, 4022.51171875
89, 0, 0, 4611.126953125
90, 0, 0, 5454.51611328125
91, 0, 0, 6079.45263671875
92, 0, 0, 5637.75390625
93, 0, 0, 4431.3603515625
94, 0, 0, 2155.888427734375
95, 0, 0, 699.5651245117188
96, 0, 0, 167.7221069335938
97, 0, 0, 15.52972316741943
98, 0, 0, 0
99, 0, 0, 0
100, 0, 0, 0
101, 0, 0, 0
102, 0, 0, 0.03110221028327942
103, 0, 0, 0
104, 0, 0, 0
105, 0, 0, 0
106, 0, 0, 0
107, 0, 0, 0
108, 0, 0, 0.009374223649501801
109, 0, 0, 0
110, 0, 0, 0.02907631359994411
111, 0, 0, 0
112, 0, 0, 0
113, 0, 0, 0
114, 0, 0, 0
115, 0, 0, 0
116, 0, 0, 0
117, 0, 0, 0
118, 0, 0, 0
119, 0, 0, 0
120, 0, 0, 0
121, 0, 0, 0
122, 0, 0, 0
123, 0, 0, 0
124, 0, 0, 0.06055910140275955
125, 0, 0, 0
126, 0, 0, 0
127, 0, 0, 0
128, 0, 0, 0
129, 0, 0, 0
130, 0, 0, 0
131, 0, 0, 0
132, 0, 0, 0
133, 0, 0, 0
134, 0, 0, 0
135, 0, 0, 0
136, 0, 0, 0
137, 0, 0, 0
138, 0, 0, 0
139, 0, 0, 0
140, 0, 0, 0
141, 0, 0, 0
142, 0, 0, 0
143, 0, 0, 0
144, 0, 0, 0
145, 0, 0, 0
146, 0, 0, 0
147, 0, 0, 0
148, 0, 0, 0
149, 0, 0, 0
150, 0, 0, 0
151, 0, 0, 0
152, 0, 0, 0
153, 0, 0, 0
154, 0, 0, 0
155, 0, 0, 0
156, 0, 0, 0
157, 0, 0, 0
158, 0, 0, 0
159, 0, 0, 0
160, 0, 0, 0
161, 0, 0, 0
162, 0, 0, 0
163, 0, 0, 0
164, 0, 0, 0
165, 0, 0, 0
166, 0, 0, 0
167, 0, 0, 0
168, 0, 0, 0
169, 0, 0, 0
170, 0, 0, 0
171, 0, 0, 0
172, 0, 0, 0
173, 0, 0, 0
174, 0, 0, 0
175, 0, 0, 0
176, 0, 0, 0
177, 0, 0, 0
178, 0, 0, 0
179, 0, 0, 0
