# TOPAS Version: 3.3.p1
# Parameter File: Simple_Pattern.txt
# Results for scorer MLIC_Scorer
# Scored in component: MLIC
# X in 180 bins of 0.222222 cm
# Y in 1 bin  of 10 cm
# Z in 1 bin  of 10 cm
# EnergyDeposit ( MeV ) : Sum   
0, 0, 0, 1157.484130859375
1, 0, 0, 1161.581665039062
2, 0, 0, 1166.267333984375
3, 0, 0, 1176.723876953125
4, 0, 0, 1175.8974609375
5, 0, 0, 1181.746459960938
6, 0, 0, 1190.9140625
7, 0, 0, 1190.187255859375
8, 0, 0, 1203.922119140625
9, 0, 0, 1204.862426757812
10, 0, 0, 1212.870483398438
11, 0, 0, 1226.445556640625
12, 0, 0, 1228.0107421875
13, 0, 0, 1233.070434570312
14, 0, 0, 1244.515869140625
15, 0, 0, 1258.171752929688
16, 0, 0, 1256.6787109375
17, 0, 0, 1271.626342773438
18, 0, 0, 1279.778686523438
19, 0, 0, 1283.828857421875
20, 0, 0, 1285.98486328125
21, 0, 0, 1297.045043945312
22, 0, 0, 1307.943481445312
23, 0, 0, 1312.296875
24, 0, 0, 1329.093139648438
25, 0, 0, 1341.340454101562
26, 0, 0, 1345.759643554688
27, 0, 0, 1351.838745117188
28, 0, 0, 1359.142211914062
29, 0, 0, 1374.302001953125
30, 0, 0, 1388.920043945312
31, 0, 0, 1407.931762695312
32, 0, 0, 1415.884399414062
33, 0, 0, 1426.880615234375
34, 0, 0, 1438.041259765625
35, 0, 0, 1448.841186523438
36, 0, 0, 1473.906494140625
37, 0, 0, 1481.736328125
38, 0, 0, 1500.29345703125
39, 0, 0, 1506.890258789062
40, 0, 0, 1521.72021484375
41, 0, 0, 1546.307495117188
42, 0, 0, 1550.646118164062
43, 0, 0, 1576.404174804688
44, 0, 0, 1602.354248046875
45, 0, 0, 1614.287963867188
46, 0, 0, 1636.736572265625
47, 0, 0, 1654.134155273438
48, 0, 0, 1677.352294921875
49, 0, 0, 1696.373413085938
50, 0, 0, 1738.481323242188
51, 0, 0, 1756.125244140625
52, 0, 0, 1770.427001953125
53, 0, 0, 1801.496459960938
54, 0, 0, 1836.24658203125
55, 0, 0, 1861.310668945312
56, 0, 0, 1906.268310546875
57, 0, 0, 1941.03564453125
58, 0, 0, 1975.865600585938
59, 0, 0, 2007.302612304688
60, 0, 0, 2062.5830078125
61, 0, 0, 2110.173583984375
62, 0, 0, 2155.83251953125
63, 0, 0, 2217.74560546875
64, 0, 0, 2275.00830078125
65, 0, 0, 2342.866943359375
66, 0, 0, 2422.741455078125
67, 0, 0, 2491.416259765625
68, 0, 0, 2591.878662109375
69, 0, 0, 2698.01123046875
70, 0, 0, 2822.10400390625
71, 0, 0, 2959.40185546875
72, 0, 0, 3135.677490234375
73, 0, 0, 3353.063232421875
74, 0, 0, 3633.8935546875
75, 0, 0, 4016.107177734375
76, 0, 0, 4606.0908203125
77, 0, 0, 5479.6630859375
78, 0, 0, 6141.9794921875
79, 0, 0, 6050.5390625
80, 0, 0, 4704.82177734375
81, 0, 0, 2307.80029296875
82, 0, 0, 836.3297119140625
83, 0, 0, 174.9012908935547
84, 0, 0, 48.76813888549805
85, 0, 0, 39.29154586791992
86, 0, 0, 21.14337348937988
87, 0, 0, 23.91036605834961
88, 0, 0, 34.06376266479492
89, 0, 0, 26.75009918212891
90, 0, 0, 25.37739372253418
91, 0, 0, 21.83519172668457
92, 0, 0, 10.65143775939941
93, 0, 0, 0
94, 0, 0, 0
95, 0, 0, 0
96, 0, 0, 0.03424933925271034
97, 0, 0, 0
98, 0, 0, 0
99, 0, 0, 0
100, 0, 0, 0
101, 0, 0, 0.02407350018620491
102, 0, 0, 0
103, 0, 0, 0
104, 0, 0, 0
105, 0, 0, 0
106, 0, 0, 0
107, 0, 0, 0
108, 0, 0, 0
109, 0, 0, 0
110, 0, 0, 0
111, 0, 0, 0
112, 0, 0, 0
113, 0, 0, 0
114, 0, 0, 0
115, 0, 0, 0
116, 0, 0, 0
117, 0, 0, 0
118, 0, 0, 0
119, 0, 0, 0
120, 0, 0, 0
121, 0, 0, 0
122, 0, 0, 0
123, 0, 0, 0
124, 0, 0, 0
125, 0, 0, 0
126, 0, 0, 0
127, 0, 0, 0
128, 0, 0, 0
129, 0, 0, 0
130, 0, 0, 0
131, 0, 0, 0
132, 0, 0, 0
133, 0, 0, 0
134, 0, 0, 0
135, 0, 0, 0
136, 0, 0, 0
137, 0, 0, 0
138, 0, 0, 0
139, 0, 0, 0
140, 0, 0, 0
141, 0, 0, 0
142, 0, 0, 0
143, 0, 0, 0
144, 0, 0, 0
145, 0, 0, 0
146, 0, 0, 0
147, 0, 0, 0
148, 0, 0, 0
149, 0, 0, 0
150, 0, 0, 0
151, 0, 0, 0
152, 0, 0, 0
153, 0, 0, 0
154, 0, 0, 0
155, 0, 0, 0
156, 0, 0, 0
157, 0, 0, 0
158, 0, 0, 0
159, 0, 0, 0
160, 0, 0, 0
161, 0, 0, 0
162, 0, 0, 0
163, 0, 0, 0
164, 0, 0, 0
165, 0, 0, 0
166, 0, 0, 0
167, 0, 0, 0
168, 0, 0, 0
169, 0, 0, 0
170, 0, 0, 0
171, 0, 0, 0
172, 0, 0, 0
173, 0, 0, 0
174, 0, 0, 0
175, 0, 0, 0
176, 0, 0, 0
177, 0, 0, 0
178, 0, 0, 0
179, 0, 0, 0
