# TOPAS Version: 3.3.p1
# Parameter File: Simple_Pattern.txt
# Results for scorer MLIC_Scorer
# Scored in component: MLIC
# X in 180 bins of 0.222222 cm
# Y in 1 bin  of 10 cm
# Z in 1 bin  of 10 cm
# EnergyDeposit ( MeV ) : Sum   
0, 0, 0, 63.27790832519531
1, 0, 0, 60.84376907348633
2, 0, 0, 60.45645523071289
3, 0, 0, 62.41144180297852
4, 0, 0, 62.51763534545898
5, 0, 0, 62.23526382446289
6, 0, 0, 62.8476676940918
7, 0, 0, 62.72063446044922
8, 0, 0, 64.84101867675781
9, 0, 0, 63.21698760986328
10, 0, 0, 63.68759918212891
11, 0, 0, 65.56358337402344
12, 0, 0, 63.80388641357422
13, 0, 0, 64.53308868408203
14, 0, 0, 64.97672271728516
15, 0, 0, 68.140380859375
16, 0, 0, 67.99948883056641
17, 0, 0, 67.06092071533203
18, 0, 0, 69.17760467529297
19, 0, 0, 68.87554168701172
20, 0, 0, 68.56256866455078
21, 0, 0, 68.76089477539062
22, 0, 0, 69.70462036132812
23, 0, 0, 69.69126129150391
24, 0, 0, 70.28180694580078
25, 0, 0, 72.94171142578125
26, 0, 0, 72.43555450439453
27, 0, 0, 72.83297729492188
28, 0, 0, 74.18452453613281
29, 0, 0, 73.75341033935547
30, 0, 0, 73.69663238525391
31, 0, 0, 75.26258087158203
32, 0, 0, 73.20716094970703
33, 0, 0, 76.13412475585938
34, 0, 0, 76.65889739990234
35, 0, 0, 78.61595153808594
36, 0, 0, 76.9127197265625
37, 0, 0, 78.16049194335938
38, 0, 0, 78.41279602050781
39, 0, 0, 79.07981109619141
40, 0, 0, 81.25872802734375
41, 0, 0, 81.2242431640625
42, 0, 0, 81.42714691162109
43, 0, 0, 81.82145690917969
44, 0, 0, 84.04796600341797
45, 0, 0, 84.0972900390625
46, 0, 0, 87.64431762695312
47, 0, 0, 88.97928619384766
48, 0, 0, 91.03583526611328
49, 0, 0, 91.12483978271484
50, 0, 0, 90.42093658447266
51, 0, 0, 93.60658264160156
52, 0, 0, 95.37299346923828
53, 0, 0, 96.73887634277344
54, 0, 0, 97.25302886962891
55, 0, 0, 99.79944610595703
56, 0, 0, 102.7380218505859
57, 0, 0, 104.1018371582031
58, 0, 0, 103.9976348876953
59, 0, 0, 107.493537902832
60, 0, 0, 111.4273529052734
61, 0, 0, 112.692008972168
62, 0, 0, 113.7229995727539
63, 0, 0, 117.786491394043
64, 0, 0, 121.5341262817383
65, 0, 0, 125.4372100830078
66, 0, 0, 128.7454223632812
67, 0, 0, 134.1481018066406
68, 0, 0, 138.3071594238281
69, 0, 0, 143.5186614990234
70, 0, 0, 149.6879577636719
71, 0, 0, 158.5631408691406
72, 0, 0, 170.2154998779297
73, 0, 0, 182.6930694580078
74, 0, 0, 198.4215087890625
75, 0, 0, 229.4129638671875
76, 0, 0, 241.3865509033203
77, 0, 0, 282.5773315429688
78, 0, 0, 341.1993713378906
79, 0, 0, 312.6892395019531
80, 0, 0, 182.2464447021484
81, 0, 0, 107.6239700317383
82, 0, 0, 16.82479095458984
83, 0, 0, 6.328351974487305
84, 0, 0, 7.238895416259766
85, 0, 0, 7.701427936553955
86, 0, 0, 8.601390838623047
87, 0, 0, 11.48170375823975
88, 0, 0, 13.78439044952393
89, 0, 0, 4.317508220672607
90, 0, 0, 5.039650440216064
91, 0, 0, 6.248573780059814
92, 0, 0, 10.64851856231689
93, 0, 0, 4.327109813690186
94, 0, 0, 0
95, 0, 0, 0
96, 0, 0, 0
97, 0, 0, 0
98, 0, 0, 0
99, 0, 0, 0
100, 0, 0, 0
101, 0, 0, 0
102, 0, 0, 0
103, 0, 0, 0
104, 0, 0, 0
105, 0, 0, 0
106, 0, 0, 0
107, 0, 0, 0
108, 0, 0, 0
109, 0, 0, 0
110, 0, 0, 0
111, 0, 0, 0
112, 0, 0, 0
113, 0, 0, 0
114, 0, 0, 0
115, 0, 0, 0
116, 0, 0, 0
117, 0, 0, 0
118, 0, 0, 0
119, 0, 0, 0
120, 0, 0, 0
121, 0, 0, 0
122, 0, 0, 0
123, 0, 0, 0
124, 0, 0, 0
125, 0, 0, 0
126, 0, 0, 0
127, 0, 0, 0
128, 0, 0, 0
129, 0, 0, 0
130, 0, 0, 0
131, 0, 0, 0
132, 0, 0, 0
133, 0, 0, 0
134, 0, 0, 0
135, 0, 0, 0
136, 0, 0, 0
137, 0, 0, 0
138, 0, 0, 0
139, 0, 0, 0
140, 0, 0, 0
141, 0, 0, 0
142, 0, 0, 0
143, 0, 0, 0
144, 0, 0, 0
145, 0, 0, 0
146, 0, 0, 0
147, 0, 0, 0
148, 0, 0, 0
149, 0, 0, 0
150, 0, 0, 0
151, 0, 0, 0
152, 0, 0, 0
153, 0, 0, 0
154, 0, 0, 0
155, 0, 0, 0
156, 0, 0, 0
157, 0, 0, 0
158, 0, 0, 0
159, 0, 0, 0
160, 0, 0, 0
161, 0, 0, 0
162, 0, 0, 0
163, 0, 0, 0
164, 0, 0, 0
165, 0, 0, 0
166, 0, 0, 0
167, 0, 0, 0
168, 0, 0, 0
169, 0, 0, 0
170, 0, 0, 0
171, 0, 0, 0
172, 0, 0, 0
173, 0, 0, 0
174, 0, 0, 0
175, 0, 0, 0
176, 0, 0, 0
177, 0, 0, 0
178, 0, 0, 0
179, 0, 0, 0
