# TOPAS Version: 3.3.p1
# Parameter File: Simple_Pattern.txt
# Results for scorer MLIC_Scorer
# Scored in component: MLIC
# X in 180 bins of 0.222222 cm
# Y in 1 bin  of 10 cm
# Z in 1 bin  of 10 cm
# EnergyDeposit ( MeV ) : Sum   
0, 0, 0, 57.88539886474609
1, 0, 0, 58.59325790405273
2, 0, 0, 59.71860122680664
3, 0, 0, 58.98382186889648
4, 0, 0, 58.39654159545898
5, 0, 0, 60.56959915161133
6, 0, 0, 58.71774673461914
7, 0, 0, 60.25462341308594
8, 0, 0, 60.20805740356445
9, 0, 0, 59.92703628540039
10, 0, 0, 63.13181304931641
11, 0, 0, 60.77353668212891
12, 0, 0, 61.51723480224609
13, 0, 0, 62.44569396972656
14, 0, 0, 62.24151611328125
15, 0, 0, 62.93902969360352
16, 0, 0, 63.76975631713867
17, 0, 0, 63.28320693969727
18, 0, 0, 63.51086807250977
19, 0, 0, 63.90802001953125
20, 0, 0, 64.25943756103516
21, 0, 0, 63.11177062988281
22, 0, 0, 66.04380798339844
23, 0, 0, 65.06216430664062
24, 0, 0, 67.06494140625
25, 0, 0, 67.44024658203125
26, 0, 0, 66.70613861083984
27, 0, 0, 67.032958984375
28, 0, 0, 68.23255157470703
29, 0, 0, 67.94412231445312
30, 0, 0, 68.26991271972656
31, 0, 0, 70.49208831787109
32, 0, 0, 70.37686920166016
33, 0, 0, 70.83499908447266
34, 0, 0, 70.40506744384766
35, 0, 0, 72.18309783935547
36, 0, 0, 74.07186889648438
37, 0, 0, 75.0281982421875
38, 0, 0, 73.85066223144531
39, 0, 0, 72.982666015625
40, 0, 0, 76.99526977539062
41, 0, 0, 76.13759613037109
42, 0, 0, 76.81800079345703
43, 0, 0, 77.74907684326172
44, 0, 0, 78.57822418212891
45, 0, 0, 81.46334075927734
46, 0, 0, 77.51348876953125
47, 0, 0, 82.84908294677734
48, 0, 0, 82.38546752929688
49, 0, 0, 82.73004150390625
50, 0, 0, 85.13137054443359
51, 0, 0, 88.11907196044922
52, 0, 0, 86.32344818115234
53, 0, 0, 86.42271423339844
54, 0, 0, 88.94252014160156
55, 0, 0, 91.32848358154297
56, 0, 0, 91.74791717529297
57, 0, 0, 92.6744384765625
58, 0, 0, 93.68491363525391
59, 0, 0, 95.05429077148438
60, 0, 0, 100.1902618408203
61, 0, 0, 100.3442001342773
62, 0, 0, 101.2528610229492
63, 0, 0, 104.6819458007812
64, 0, 0, 108.0525588989258
65, 0, 0, 106.9421234130859
66, 0, 0, 112.0078048706055
67, 0, 0, 112.779541015625
68, 0, 0, 119.4030227661133
69, 0, 0, 121.9103317260742
70, 0, 0, 125.4930572509766
71, 0, 0, 131.0542449951172
72, 0, 0, 137.5022735595703
73, 0, 0, 146.1067352294922
74, 0, 0, 155.1613464355469
75, 0, 0, 170.9458312988281
76, 0, 0, 177.6510314941406
77, 0, 0, 201.0830841064453
78, 0, 0, 238.9983825683594
79, 0, 0, 221.2192993164062
80, 0, 0, 181.9653625488281
81, 0, 0, 132.1957702636719
82, 0, 0, 96.89251708984375
83, 0, 0, 78.80858612060547
84, 0, 0, 88.74547576904297
85, 0, 0, 91.47966003417969
86, 0, 0, 82.49683380126953
87, 0, 0, 92.74379730224609
88, 0, 0, 89.52339172363281
89, 0, 0, 101.5920562744141
90, 0, 0, 123.3303527832031
91, 0, 0, 183.1209869384766
92, 0, 0, 123.1659469604492
93, 0, 0, 84.52410888671875
94, 0, 0, 31.75722694396973
95, 0, 0, 0
96, 0, 0, 0
97, 0, 0, 0
98, 0, 0, 0
99, 0, 0, 0
100, 0, 0, 0
101, 0, 0, 0
102, 0, 0, 0
103, 0, 0, 0
104, 0, 0, 0
105, 0, 0, 0
106, 0, 0, 0
107, 0, 0, 0
108, 0, 0, 0
109, 0, 0, 0
110, 0, 0, 0
111, 0, 0, 0
112, 0, 0, 0
113, 0, 0, 0
114, 0, 0, 0
115, 0, 0, 0
116, 0, 0, 0
117, 0, 0, 0
118, 0, 0, 0
119, 0, 0, 0
120, 0, 0, 0
121, 0, 0, 0
122, 0, 0, 0
123, 0, 0, 0
124, 0, 0, 0
125, 0, 0, 0
126, 0, 0, 0
127, 0, 0, 0
128, 0, 0, 0
129, 0, 0, 0
130, 0, 0, 0
131, 0, 0, 0
132, 0, 0, 0
133, 0, 0, 0
134, 0, 0, 0
135, 0, 0, 0
136, 0, 0, 0
137, 0, 0, 0
138, 0, 0, 0
139, 0, 0, 0
140, 0, 0, 0
141, 0, 0, 0
142, 0, 0, 0
143, 0, 0, 0
144, 0, 0, 0
145, 0, 0, 0
146, 0, 0, 0
147, 0, 0, 0
148, 0, 0, 0
149, 0, 0, 0
150, 0, 0, 0
151, 0, 0, 0
152, 0, 0, 0
153, 0, 0, 0
154, 0, 0, 0
155, 0, 0, 0
156, 0, 0, 0
157, 0, 0, 0
158, 0, 0, 0
159, 0, 0, 0
160, 0, 0, 0
161, 0, 0, 0
162, 0, 0, 0
163, 0, 0, 0
164, 0, 0, 0
165, 0, 0, 0
166, 0, 0, 0
167, 0, 0, 0
168, 0, 0, 0
169, 0, 0, 0
170, 0, 0, 0
171, 0, 0, 0
172, 0, 0, 0
173, 0, 0, 0
174, 0, 0, 0
175, 0, 0, 0
176, 0, 0, 0
177, 0, 0, 0
178, 0, 0, 0
179, 0, 0, 0
