# TOPAS Version: 3.3.p1
# Parameter File: Simple_Pattern.txt
# Results for scorer MLIC_Scorer
# Scored in component: MLIC
# X in 180 bins of 0.222222 cm
# Y in 1 bin  of 10 cm
# Z in 1 bin  of 10 cm
# EnergyDeposit ( MeV ) : Sum   
0, 0, 0, 1085.474365234375
1, 0, 0, 1082.691772460938
2, 0, 0, 1096.167236328125
3, 0, 0, 1094.001586914062
4, 0, 0, 1101.15576171875
5, 0, 0, 1110.716796875
6, 0, 0, 1110.403198242188
7, 0, 0, 1110.758666992188
8, 0, 0, 1125.958984375
9, 0, 0, 1127.559204101562
10, 0, 0, 1139.324584960938
11, 0, 0, 1142.715576171875
12, 0, 0, 1145.372436523438
13, 0, 0, 1148.5986328125
14, 0, 0, 1162.840454101562
15, 0, 0, 1170.625122070312
16, 0, 0, 1175.325073242188
17, 0, 0, 1186.78955078125
18, 0, 0, 1183.385864257812
19, 0, 0, 1192.028442382812
20, 0, 0, 1194.2490234375
21, 0, 0, 1194.15087890625
22, 0, 0, 1208.884033203125
23, 0, 0, 1214.552612304688
24, 0, 0, 1215.100219726562
25, 0, 0, 1230.183715820312
26, 0, 0, 1234.070190429688
27, 0, 0, 1245.062622070312
28, 0, 0, 1253.66943359375
29, 0, 0, 1266.956176757812
30, 0, 0, 1271.9130859375
31, 0, 0, 1263.039794921875
32, 0, 0, 1285.944091796875
33, 0, 0, 1293.056762695312
34, 0, 0, 1301.945678710938
35, 0, 0, 1305.858764648438
36, 0, 0, 1315.692138671875
37, 0, 0, 1338.053344726562
38, 0, 0, 1349.366455078125
39, 0, 0, 1351.164184570312
40, 0, 0, 1367.491577148438
41, 0, 0, 1365.649169921875
42, 0, 0, 1375.717041015625
43, 0, 0, 1394.396606445312
44, 0, 0, 1405.1455078125
45, 0, 0, 1423.277221679688
46, 0, 0, 1434.202392578125
47, 0, 0, 1435.412841796875
48, 0, 0, 1460.211303710938
49, 0, 0, 1469.861938476562
50, 0, 0, 1473.673950195312
51, 0, 0, 1494.826904296875
52, 0, 0, 1508.482543945312
53, 0, 0, 1527.07861328125
54, 0, 0, 1550.152709960938
55, 0, 0, 1565.02392578125
56, 0, 0, 1580.818969726562
57, 0, 0, 1603.501342773438
58, 0, 0, 1618.91552734375
59, 0, 0, 1645.380249023438
60, 0, 0, 1660.792846679688
61, 0, 0, 1688.493530273438
62, 0, 0, 1700.608520507812
63, 0, 0, 1728.401123046875
64, 0, 0, 1754.152709960938
65, 0, 0, 1781.258911132812
66, 0, 0, 1812.879028320312
67, 0, 0, 1838.3134765625
68, 0, 0, 1873.67919921875
69, 0, 0, 1907.366821289062
70, 0, 0, 1943.674926757812
71, 0, 0, 1973.006103515625
72, 0, 0, 2015.054443359375
73, 0, 0, 2066.513671875
74, 0, 0, 2116.291748046875
75, 0, 0, 2170.75537109375
76, 0, 0, 2222.915283203125
77, 0, 0, 2282.898681640625
78, 0, 0, 2354.866943359375
79, 0, 0, 2426.957275390625
80, 0, 0, 2508.421142578125
81, 0, 0, 2606.390869140625
82, 0, 0, 2716.99658203125
83, 0, 0, 2834.254150390625
84, 0, 0, 2991.64111328125
85, 0, 0, 3169.89501953125
86, 0, 0, 3402.322998046875
87, 0, 0, 3668.536376953125
88, 0, 0, 4072.42578125
89, 0, 0, 4739.7958984375
90, 0, 0, 5538.67724609375
91, 0, 0, 6053.3916015625
92, 0, 0, 6084.6064453125
93, 0, 0, 4420.26953125
94, 0, 0, 2141.124755859375
95, 0, 0, 583.8016357421875
96, 0, 0, 105.2862548828125
97, 0, 0, 27.2803897857666
98, 0, 0, 0
99, 0, 0, 0
100, 0, 0, 0
101, 0, 0, 0
102, 0, 0, 0
103, 0, 0, 0
104, 0, 0, 0
105, 0, 0, 0
106, 0, 0, 0
107, 0, 0, 0
108, 0, 0, 0
109, 0, 0, 0
110, 0, 0, 0
111, 0, 0, 0
112, 0, 0, 0
113, 0, 0, 0
114, 0, 0, 0
115, 0, 0, 0
116, 0, 0, 0
117, 0, 0, 0
118, 0, 0, 0
119, 0, 0, 0
120, 0, 0, 0
121, 0, 0, 0
122, 0, 0, 0.0007482351502403617
123, 0, 0, 0
124, 0, 0, 0
125, 0, 0, 0
126, 0, 0, 0
127, 0, 0, 0
128, 0, 0, 0
129, 0, 0, 0
130, 0, 0, 0
131, 0, 0, 0
132, 0, 0, 0
133, 0, 0, 0
134, 0, 0, 0
135, 0, 0, 0
136, 0, 0, 0
137, 0, 0, 0.002405592938885093
138, 0, 0, 0.04163981229066849
139, 0, 0, 0
140, 0, 0, 0
141, 0, 0, 0
142, 0, 0, 0
143, 0, 0, 0
144, 0, 0, 0
145, 0, 0, 0
146, 0, 0, 0
147, 0, 0, 0
148, 0, 0, 0
149, 0, 0, 0
150, 0, 0, 0
151, 0, 0, 0
152, 0, 0, 0
153, 0, 0, 0
154, 0, 0, 0
155, 0, 0, 0
156, 0, 0, 0
157, 0, 0, 0
158, 0, 0, 0
159, 0, 0, 0
160, 0, 0, 0
161, 0, 0, 0
162, 0, 0, 0
163, 0, 0, 0
164, 0, 0, 0
165, 0, 0, 0
166, 0, 0, 0
167, 0, 0, 0
168, 0, 0, 0
169, 0, 0, 0
170, 0, 0, 0
171, 0, 0, 0
172, 0, 0, 0
173, 0, 0, 0
174, 0, 0, 0
175, 0, 0, 0
176, 0, 0, 0
177, 0, 0, 0
178, 0, 0, 0
179, 0, 0, 0
