# TOPAS Version: 3.3.p1
# Parameter File: Simple_Pattern.txt
# Results for scorer MLIC_Scorer
# Scored in component: MLIC
# X in 180 bins of 0.222222 cm
# Y in 1 bin  of 10 cm
# Z in 1 bin  of 10 cm
# EnergyDeposit ( MeV ) : Sum   
0, 0, 0, 1093.91357421875
1, 0, 0, 1096.177124023438
2, 0, 0, 1098.379272460938
3, 0, 0, 1100.68017578125
4, 0, 0, 1103.6728515625
5, 0, 0, 1105.56298828125
6, 0, 0, 1114.869506835938
7, 0, 0, 1118.134033203125
8, 0, 0, 1124.849853515625
9, 0, 0, 1127.005004882812
10, 0, 0, 1135.920043945312
11, 0, 0, 1132.706909179688
12, 0, 0, 1141.944580078125
13, 0, 0, 1159.301025390625
14, 0, 0, 1160.949096679688
15, 0, 0, 1157.57177734375
16, 0, 0, 1166.688354492188
17, 0, 0, 1182.7626953125
18, 0, 0, 1182.877563476562
19, 0, 0, 1187.560913085938
20, 0, 0, 1194.406005859375
21, 0, 0, 1202.972534179688
22, 0, 0, 1204.088134765625
23, 0, 0, 1215.910400390625
24, 0, 0, 1221.560180664062
25, 0, 0, 1229.880615234375
26, 0, 0, 1229.720703125
27, 0, 0, 1245.20654296875
28, 0, 0, 1254.695556640625
29, 0, 0, 1258.613647460938
30, 0, 0, 1263.128662109375
31, 0, 0, 1276.529907226562
32, 0, 0, 1279.0615234375
33, 0, 0, 1294.2861328125
34, 0, 0, 1295.0400390625
35, 0, 0, 1303.333618164062
36, 0, 0, 1317.037719726562
37, 0, 0, 1324.312377929688
38, 0, 0, 1333.454711914062
39, 0, 0, 1350.214477539062
40, 0, 0, 1360.68798828125
41, 0, 0, 1370.28955078125
42, 0, 0, 1383.306030273438
43, 0, 0, 1392.081420898438
44, 0, 0, 1404.29296875
45, 0, 0, 1418.630859375
46, 0, 0, 1437.894653320312
47, 0, 0, 1442.987060546875
48, 0, 0, 1457.024536132812
49, 0, 0, 1459.690063476562
50, 0, 0, 1480.341064453125
51, 0, 0, 1494.486572265625
52, 0, 0, 1515.182739257812
53, 0, 0, 1527.831420898438
54, 0, 0, 1534.306518554688
55, 0, 0, 1552.00537109375
56, 0, 0, 1571.347412109375
57, 0, 0, 1599.256225585938
58, 0, 0, 1616.497802734375
59, 0, 0, 1638.84619140625
60, 0, 0, 1652.960083007812
61, 0, 0, 1686.34912109375
62, 0, 0, 1711.30078125
63, 0, 0, 1717.655395507812
64, 0, 0, 1752.134765625
65, 0, 0, 1783.065185546875
66, 0, 0, 1819.2373046875
67, 0, 0, 1836.296142578125
68, 0, 0, 1859.60546875
69, 0, 0, 1897.069458007812
70, 0, 0, 1939.345458984375
71, 0, 0, 1973.912353515625
72, 0, 0, 2017.662963867188
73, 0, 0, 2058.284912109375
74, 0, 0, 2107.123046875
75, 0, 0, 2156.523681640625
76, 0, 0, 2200.505859375
77, 0, 0, 2254.778076171875
78, 0, 0, 2325.589111328125
79, 0, 0, 2401.133056640625
80, 0, 0, 2488.66650390625
81, 0, 0, 2580.931396484375
82, 0, 0, 2688.34033203125
83, 0, 0, 2805.17041015625
84, 0, 0, 2958.072998046875
85, 0, 0, 3133.296875
86, 0, 0, 3345.45166015625
87, 0, 0, 3630.145263671875
88, 0, 0, 4012.898681640625
89, 0, 0, 4631.98486328125
90, 0, 0, 5482.17333984375
91, 0, 0, 6216.99267578125
92, 0, 0, 5709.78466796875
93, 0, 0, 4222.5390625
94, 0, 0, 2209.297119140625
95, 0, 0, 715.9539184570312
96, 0, 0, 190.4809417724609
97, 0, 0, 15.6950044631958
98, 0, 0, 0
99, 0, 0, 0
100, 0, 0, 0
101, 0, 0, 0
102, 0, 0, 0
103, 0, 0, 0
104, 0, 0, 0.0326385572552681
105, 0, 0, 0
106, 0, 0, 0
107, 0, 0, 0
108, 0, 0, 0
109, 0, 0, 0
110, 0, 0, 0
111, 0, 0, 0
112, 0, 0, 0
113, 0, 0, 0
114, 0, 0, 0
115, 0, 0, 0
116, 0, 0, 0
117, 0, 0, 0
118, 0, 0, 0
119, 0, 0, 0
120, 0, 0, 0
121, 0, 0, 0
122, 0, 0, 0
123, 0, 0, 0
124, 0, 0, 0
125, 0, 0, 0
126, 0, 0, 0
127, 0, 0, 0
128, 0, 0, 0
129, 0, 0, 0
130, 0, 0, 0
131, 0, 0, 0
132, 0, 0, 0
133, 0, 0, 0
134, 0, 0, 0
135, 0, 0, 0
136, 0, 0, 0
137, 0, 0, 0
138, 0, 0, 0
139, 0, 0, 0
140, 0, 0, 0
141, 0, 0, 0
142, 0, 0, 0
143, 0, 0, 0
144, 0, 0, 0
145, 0, 0, 0
146, 0, 0, 0
147, 0, 0, 0
148, 0, 0, 0
149, 0, 0, 0
150, 0, 0, 0
151, 0, 0, 0
152, 0, 0, 0
153, 0, 0, 0
154, 0, 0, 0
155, 0, 0, 0
156, 0, 0, 0
157, 0, 0, 0
158, 0, 0, 0
159, 0, 0, 0
160, 0, 0, 0
161, 0, 0, 0
162, 0, 0, 0
163, 0, 0, 0
164, 0, 0, 0
165, 0, 0, 0
166, 0, 0, 0
167, 0, 0, 0
168, 0, 0, 0
169, 0, 0, 0
170, 0, 0, 0
171, 0, 0, 0
172, 0, 0, 0
173, 0, 0, 0
174, 0, 0, 0
175, 0, 0, 0
176, 0, 0, 0
177, 0, 0, 0
178, 0, 0, 0
179, 0, 0, 0
