# TOPAS Version: 3.3.p1
# Parameter File: Simple_Pattern.txt
# Results for scorer MLIC_Scorer
# Scored in component: MLIC
# X in 165 bins of 0.2 cm
# Y in 1 bin  of 10 cm
# Z in 1 bin  of 10 cm
# EnergyDeposit ( MeV ) : Sum   
0, 0, 0, 925.64111328125
1, 0, 0, 943.4285278320312
2, 0, 0, 947.3499755859375
3, 0, 0, 944.1573486328125
4, 0, 0, 953.595458984375
5, 0, 0, 952.2943725585938
6, 0, 0, 963.006591796875
7, 0, 0, 957.591552734375
8, 0, 0, 969.9859008789062
9, 0, 0, 969.3578491210938
10, 0, 0, 963.3032836914062
11, 0, 0, 976.564208984375
12, 0, 0, 977.3447875976562
13, 0, 0, 974.939697265625
14, 0, 0, 983.7327270507812
15, 0, 0, 988.3386840820312
16, 0, 0, 989.8649291992188
17, 0, 0, 1000.329284667969
18, 0, 0, 991.8915405273438
19, 0, 0, 1011.61376953125
20, 0, 0, 1006.640747070312
21, 0, 0, 1018.120971679688
22, 0, 0, 1023.097778320312
23, 0, 0, 1027.94580078125
24, 0, 0, 1020.005615234375
25, 0, 0, 1031.782958984375
26, 0, 0, 1037.100952148438
27, 0, 0, 1042.00927734375
28, 0, 0, 1046.277221679688
29, 0, 0, 1045.804443359375
30, 0, 0, 1052.173217773438
31, 0, 0, 1050.500610351562
32, 0, 0, 1071.677490234375
33, 0, 0, 1073.3876953125
34, 0, 0, 1073.7373046875
35, 0, 0, 1079.378295898438
36, 0, 0, 1083.307861328125
37, 0, 0, 1093.576782226562
38, 0, 0, 1088.870727539062
39, 0, 0, 1102.080200195312
40, 0, 0, 1108.85595703125
41, 0, 0, 1117.009643554688
42, 0, 0, 1124.52392578125
43, 0, 0, 1121.577392578125
44, 0, 0, 1132.199340820312
45, 0, 0, 1143.178100585938
46, 0, 0, 1144.506469726562
47, 0, 0, 1148.94482421875
48, 0, 0, 1163.502807617188
49, 0, 0, 1159.164306640625
50, 0, 0, 1170.470336914062
51, 0, 0, 1180.246826171875
52, 0, 0, 1190.258422851562
53, 0, 0, 1194.204956054688
54, 0, 0, 1197.46484375
55, 0, 0, 1216.9228515625
56, 0, 0, 1215.495361328125
57, 0, 0, 1227.885986328125
58, 0, 0, 1238.077026367188
59, 0, 0, 1244.749633789062
60, 0, 0, 1255.2841796875
61, 0, 0, 1265.80322265625
62, 0, 0, 1271.792236328125
63, 0, 0, 1287.631958007812
64, 0, 0, 1287.1162109375
65, 0, 0, 1299.887939453125
66, 0, 0, 1312.250244140625
67, 0, 0, 1330.025268554688
68, 0, 0, 1335.718627929688
69, 0, 0, 1344.635864257812
70, 0, 0, 1363.58349609375
71, 0, 0, 1372.9111328125
72, 0, 0, 1392.13427734375
73, 0, 0, 1409.400756835938
74, 0, 0, 1414.282470703125
75, 0, 0, 1430.065307617188
76, 0, 0, 1447.701782226562
77, 0, 0, 1456.481079101562
78, 0, 0, 1483.889770507812
79, 0, 0, 1494.115478515625
80, 0, 0, 1515.114868164062
81, 0, 0, 1531.763427734375
82, 0, 0, 1554.023071289062
83, 0, 0, 1570.601928710938
84, 0, 0, 1596.931396484375
85, 0, 0, 1622.801391601562
86, 0, 0, 1634.926635742188
87, 0, 0, 1676.545288085938
88, 0, 0, 1692.255981445312
89, 0, 0, 1721.958984375
90, 0, 0, 1754.462768554688
91, 0, 0, 1787.517822265625
92, 0, 0, 1820.104858398438
93, 0, 0, 1847.0751953125
94, 0, 0, 1888.138061523438
95, 0, 0, 1927.384887695312
96, 0, 0, 1975.460083007812
97, 0, 0, 2021.90478515625
98, 0, 0, 2068.86865234375
99, 0, 0, 2133.447021484375
100, 0, 0, 2187.492431640625
101, 0, 0, 2257.18212890625
102, 0, 0, 2334.269775390625
103, 0, 0, 2422.93310546875
104, 0, 0, 2521.35693359375
105, 0, 0, 2634.81103515625
106, 0, 0, 2765.662109375
107, 0, 0, 2928.52197265625
108, 0, 0, 3127.88232421875
109, 0, 0, 3373.3115234375
110, 0, 0, 3754.555419921875
111, 0, 0, 4277.55029296875
112, 0, 0, 4874.2314453125
113, 0, 0, 5498.50830078125
114, 0, 0, 5399.32666015625
115, 0, 0, 4639.08203125
116, 0, 0, 2854.191650390625
117, 0, 0, 1366.73388671875
118, 0, 0, 485.3255310058594
119, 0, 0, 156.6469879150391
120, 0, 0, 42.07147216796875
121, 0, 0, 5.748770236968994
122, 0, 0, 0
123, 0, 0, 0
124, 0, 0, 0
125, 0, 0, 0
126, 0, 0, 0
127, 0, 0, 0
128, 0, 0, 0
129, 0, 0, 0
130, 0, 0, 0
131, 0, 0, 0
132, 0, 0, 0
133, 0, 0, 0
134, 0, 0, 0.003898470895364881
135, 0, 0, 0.004757970571517944
136, 0, 0, 0
137, 0, 0, 0
138, 0, 0, 0
139, 0, 0, 0
140, 0, 0, 0
141, 0, 0, 0
142, 0, 0, 0
143, 0, 0, 0
144, 0, 0, 0
145, 0, 0, 0
146, 0, 0, 0
147, 0, 0, 0
148, 0, 0, 0
149, 0, 0, 0
150, 0, 0, 0
151, 0, 0, 0
152, 0, 0, 0
153, 0, 0, 0
154, 0, 0, 0
155, 0, 0, 0
156, 0, 0, 0
157, 0, 0, 0
158, 0, 0, 0
159, 0, 0, 0
160, 0, 0, 0
161, 0, 0, 0
162, 0, 0, 0
163, 0, 0, 0
164, 0, 0, 0
