# TOPAS Version: 3.3.p1
# Parameter File: Simple_Pattern.txt
# Results for scorer MLIC_Scorer
# Scored in component: MLIC
# X in 165 bins of 0.2 cm
# Y in 1 bin  of 10 cm
# Z in 1 bin  of 10 cm
# EnergyDeposit ( MeV ) : Sum   
0, 0, 0, 0
1, 0, 0, 0
2, 0, 0, 0
3, 0, 0, 0
4, 0, 0, 0
5, 0, 0, 0
6, 0, 0, 0
7, 0, 0, 0
8, 0, 0, 0
9, 0, 0, 0
10, 0, 0, 0
11, 0, 0, 0
12, 0, 0, 0
13, 0, 0, 0
14, 0, 0, 0
15, 0, 0, 0
16, 0, 0, 0
17, 0, 0, 0
18, 0, 0, 0
19, 0, 0, 0
20, 0, 0, 0
21, 0, 0, 0
22, 0, 0, 0
23, 0, 0, 0
24, 0, 0, 0
25, 0, 0, 0
26, 0, 0, 0
27, 0, 0, 0
28, 0, 0, 0
29, 0, 0, 0
30, 0, 0, 0
31, 0, 0, 0
32, 0, 0, 0.05168332532048225
33, 0, 0, 0
34, 0, 0, 0
35, 0, 0, 0
36, 0, 0, 0
37, 0, 0, 0
38, 0, 0, 0
39, 0, 0, 0
40, 0, 0, 0
41, 0, 0, 0
42, 0, 0, 0
43, 0, 0, 0
44, 0, 0, 38.91964340209961
45, 0, 0, 93.09214782714844
46, 0, 0, 499.1815795898438
47, 0, 0, 1406.61279296875
48, 0, 0, 2933.30517578125
49, 0, 0, 4291.689453125
50, 0, 0, 5277.7412109375
51, 0, 0, 5234.42236328125
52, 0, 0, 4746.05126953125
53, 0, 0, 4160.3837890625
54, 0, 0, 3729.775634765625
55, 0, 0, 3333.163330078125
56, 0, 0, 3093.34326171875
57, 0, 0, 2893.32373046875
58, 0, 0, 2731.021240234375
59, 0, 0, 2607.531494140625
60, 0, 0, 2492.11376953125
61, 0, 0, 2399.98583984375
62, 0, 0, 2311.37451171875
63, 0, 0, 2240.40234375
64, 0, 0, 2171.032958984375
65, 0, 0, 2112.237060546875
66, 0, 0, 2047.270141601562
67, 0, 0, 2007.815795898438
68, 0, 0, 1954.59619140625
69, 0, 0, 1910.04248046875
70, 0, 0, 1872.253540039062
71, 0, 0, 1830.478515625
72, 0, 0, 1796.188598632812
73, 0, 0, 1774.4384765625
74, 0, 0, 1745.194580078125
75, 0, 0, 1710.198974609375
76, 0, 0, 1681.629150390625
77, 0, 0, 1658.274291992188
78, 0, 0, 1627.258544921875
79, 0, 0, 1605.808471679688
80, 0, 0, 1581.22802734375
81, 0, 0, 1569.832641601562
82, 0, 0, 1547.693481445312
83, 0, 0, 1525.624877929688
84, 0, 0, 1511.4619140625
85, 0, 0, 1493.085571289062
86, 0, 0, 1475.578857421875
87, 0, 0, 1457.053833007812
88, 0, 0, 1442.583251953125
89, 0, 0, 1429.107543945312
90, 0, 0, 1415.007934570312
91, 0, 0, 1408.979248046875
92, 0, 0, 1384.573608398438
93, 0, 0, 1372.943725585938
94, 0, 0, 1359.95361328125
95, 0, 0, 1346.091552734375
96, 0, 0, 1336.542846679688
97, 0, 0, 1327.9873046875
98, 0, 0, 1326.971435546875
99, 0, 0, 1307.9990234375
100, 0, 0, 1290.697143554688
101, 0, 0, 1278.642333984375
102, 0, 0, 1269.845947265625
103, 0, 0, 1267.992553710938
104, 0, 0, 1254.6982421875
105, 0, 0, 1250.10595703125
106, 0, 0, 1234.82666015625
107, 0, 0, 1228.97900390625
108, 0, 0, 1220.316040039062
109, 0, 0, 1213.063110351562
110, 0, 0, 1195.104248046875
111, 0, 0, 1189.294555664062
112, 0, 0, 1182.995971679688
113, 0, 0, 1175.498413085938
114, 0, 0, 1169.359008789062
115, 0, 0, 1164.551879882812
116, 0, 0, 1160.097290039062
117, 0, 0, 1151.149536132812
118, 0, 0, 1148.238525390625
119, 0, 0, 1143.250122070312
120, 0, 0, 1132.752319335938
121, 0, 0, 1123.783813476562
122, 0, 0, 1112.31787109375
123, 0, 0, 1122.194702148438
124, 0, 0, 1100.6044921875
125, 0, 0, 1102.74853515625
126, 0, 0, 1101.461059570312
127, 0, 0, 1094.312866210938
128, 0, 0, 1088.61083984375
129, 0, 0, 1078.455932617188
130, 0, 0, 1077.374389648438
131, 0, 0, 1068.748901367188
132, 0, 0, 1061.5244140625
133, 0, 0, 1058.011840820312
134, 0, 0, 1052.794555664062
135, 0, 0, 1054.458862304688
136, 0, 0, 1050.719970703125
137, 0, 0, 1035.091796875
138, 0, 0, 1036.88037109375
139, 0, 0, 1034.508178710938
140, 0, 0, 1031.248046875
141, 0, 0, 1021.911254882812
142, 0, 0, 1019.477416992188
143, 0, 0, 1014.554382324219
144, 0, 0, 1010.303039550781
145, 0, 0, 1001.925598144531
146, 0, 0, 1004.488220214844
147, 0, 0, 998.8799438476562
148, 0, 0, 1001.691711425781
149, 0, 0, 993.2985229492188
150, 0, 0, 983.813720703125
151, 0, 0, 976.4305419921875
152, 0, 0, 978.4610595703125
153, 0, 0, 984.064208984375
154, 0, 0, 977.93701171875
155, 0, 0, 963.204345703125
156, 0, 0, 966.822265625
157, 0, 0, 962.6663208007812
158, 0, 0, 954.3064575195312
159, 0, 0, 954.1575317382812
160, 0, 0, 940.1694946289062
161, 0, 0, 956.6793212890625
162, 0, 0, 940.9537353515625
163, 0, 0, 944.2140502929688
164, 0, 0, 932.0230102539062
