# TOPAS Version: 3.3.p1
# Parameter File: Simple_Pattern.txt
# Results for scorer MLIC_Scorer
# Scored in component: MLIC
# X in 180 bins of 0.222222 cm
# Y in 1 bin  of 10 cm
# Z in 1 bin  of 10 cm
# EnergyDeposit ( MeV ) : Sum   
0, 0, 0, 1082.64892578125
1, 0, 0, 1087.228881835938
2, 0, 0, 1089.320434570312
3, 0, 0, 1102.718383789062
4, 0, 0, 1107.527099609375
5, 0, 0, 1112.139892578125
6, 0, 0, 1109.878295898438
7, 0, 0, 1121.73046875
8, 0, 0, 1126.358764648438
9, 0, 0, 1128.91064453125
10, 0, 0, 1126.93505859375
11, 0, 0, 1139.791625976562
12, 0, 0, 1142.723999023438
13, 0, 0, 1157.94091796875
14, 0, 0, 1155.818115234375
15, 0, 0, 1163.822875976562
16, 0, 0, 1172.431762695312
17, 0, 0, 1182.371459960938
18, 0, 0, 1182.123657226562
19, 0, 0, 1181.455200195312
20, 0, 0, 1193.96484375
21, 0, 0, 1200.084106445312
22, 0, 0, 1214.296875
23, 0, 0, 1211.654296875
24, 0, 0, 1220.305541992188
25, 0, 0, 1231.258056640625
26, 0, 0, 1235.663940429688
27, 0, 0, 1237.690795898438
28, 0, 0, 1253.911499023438
29, 0, 0, 1266.859375
30, 0, 0, 1265.915283203125
31, 0, 0, 1274.944702148438
32, 0, 0, 1280.579345703125
33, 0, 0, 1297.305786132812
34, 0, 0, 1306.665771484375
35, 0, 0, 1311.536865234375
36, 0, 0, 1312.03955078125
37, 0, 0, 1330.095947265625
38, 0, 0, 1338.879028320312
39, 0, 0, 1352.229614257812
40, 0, 0, 1361.771240234375
41, 0, 0, 1370.540893554688
42, 0, 0, 1375.145385742188
43, 0, 0, 1394.30126953125
44, 0, 0, 1405.188598632812
45, 0, 0, 1418.875
46, 0, 0, 1426.497314453125
47, 0, 0, 1441.342163085938
48, 0, 0, 1456.806884765625
49, 0, 0, 1471.477416992188
50, 0, 0, 1483.080932617188
51, 0, 0, 1495.997436523438
52, 0, 0, 1509.099731445312
53, 0, 0, 1530.815551757812
54, 0, 0, 1538.992919921875
55, 0, 0, 1564.315063476562
56, 0, 0, 1580.963256835938
57, 0, 0, 1596.746826171875
58, 0, 0, 1618.8798828125
59, 0, 0, 1634.496948242188
60, 0, 0, 1661.969604492188
61, 0, 0, 1683.48046875
62, 0, 0, 1702.173583984375
63, 0, 0, 1725.280395507812
64, 0, 0, 1753.580078125
65, 0, 0, 1782.293090820312
66, 0, 0, 1808.718872070312
67, 0, 0, 1840.4931640625
68, 0, 0, 1874.062622070312
69, 0, 0, 1903.124389648438
70, 0, 0, 1933.886474609375
71, 0, 0, 1976.777954101562
72, 0, 0, 2012.691284179688
73, 0, 0, 2060.72119140625
74, 0, 0, 2112.046142578125
75, 0, 0, 2160.954345703125
76, 0, 0, 2220.742919921875
77, 0, 0, 2280.68994140625
78, 0, 0, 2345.856201171875
79, 0, 0, 2416.24462890625
80, 0, 0, 2508.441162109375
81, 0, 0, 2597.343994140625
82, 0, 0, 2707.798583984375
83, 0, 0, 2825.52490234375
84, 0, 0, 2984.033447265625
85, 0, 0, 3148.82568359375
86, 0, 0, 3373.771728515625
87, 0, 0, 3657.716796875
88, 0, 0, 4056.098876953125
89, 0, 0, 4702.9150390625
90, 0, 0, 5528.845703125
91, 0, 0, 6151.583984375
92, 0, 0, 6019.8203125
93, 0, 0, 4310.9345703125
94, 0, 0, 2317.46484375
95, 0, 0, 679.9662475585938
96, 0, 0, 168.1137390136719
97, 0, 0, 15.47397613525391
98, 0, 0, 4.156113147735596
99, 0, 0, 0
100, 0, 0, 0
101, 0, 0, 0.09578825533390045
102, 0, 0, 0
103, 0, 0, 0
104, 0, 0, 0
105, 0, 0, 0
106, 0, 0, 0
107, 0, 0, 0
108, 0, 0, 0
109, 0, 0, 0
110, 0, 0, 0
111, 0, 0, 0
112, 0, 0, 0
113, 0, 0, 0
114, 0, 0, 0
115, 0, 0, 0
116, 0, 0, 0
117, 0, 0, 0
118, 0, 0, 0
119, 0, 0, 0
120, 0, 0, 0
121, 0, 0, 0
122, 0, 0, 0
123, 0, 0, 0
124, 0, 0, 0
125, 0, 0, 0
126, 0, 0, 0
127, 0, 0, 0
128, 0, 0, 0
129, 0, 0, 0
130, 0, 0, 0
131, 0, 0, 0
132, 0, 0, 0
133, 0, 0, 0
134, 0, 0, 0
135, 0, 0, 0
136, 0, 0, 0
137, 0, 0, 0
138, 0, 0, 0
139, 0, 0, 0
140, 0, 0, 0
141, 0, 0, 0
142, 0, 0, 0
143, 0, 0, 0
144, 0, 0, 0
145, 0, 0, 0
146, 0, 0, 0
147, 0, 0, 0
148, 0, 0, 0
149, 0, 0, 0
150, 0, 0, 0
151, 0, 0, 0
152, 0, 0, 0
153, 0, 0, 0
154, 0, 0, 0
155, 0, 0, 0
156, 0, 0, 0
157, 0, 0, 0
158, 0, 0, 0
159, 0, 0, 0
160, 0, 0, 0
161, 0, 0, 0
162, 0, 0, 0
163, 0, 0, 0
164, 0, 0, 0
165, 0, 0, 0
166, 0, 0, 0
167, 0, 0, 0
168, 0, 0, 0
169, 0, 0, 0
170, 0, 0, 0
171, 0, 0, 0
172, 0, 0, 0
173, 0, 0, 0
174, 0, 0, 0
175, 0, 0, 0
176, 0, 0, 0
177, 0, 0, 0
178, 0, 0, 0
179, 0, 0, 0
