# TOPAS Version: 3.3.p1
# Parameter File: Simple_Pattern.txt
# Results for scorer MLIC_Scorer
# Scored in component: MLIC
# X in 180 bins of 0.222222 cm
# Y in 1 bin  of 10 cm
# Z in 1 bin  of 10 cm
# EnergyDeposit ( MeV ) : Sum   
0, 0, 0, 1087.955200195312
1, 0, 0, 1090.3203125
2, 0, 0, 1093.211669921875
3, 0, 0, 1099.55859375
4, 0, 0, 1110.40380859375
5, 0, 0, 1114.156127929688
6, 0, 0, 1118.072265625
7, 0, 0, 1117.686279296875
8, 0, 0, 1126.631469726562
9, 0, 0, 1127.657348632812
10, 0, 0, 1138.59033203125
11, 0, 0, 1139.519287109375
12, 0, 0, 1142.888061523438
13, 0, 0, 1148.430541992188
14, 0, 0, 1151.314819335938
15, 0, 0, 1161.3935546875
16, 0, 0, 1175.618530273438
17, 0, 0, 1180.238037109375
18, 0, 0, 1179.94189453125
19, 0, 0, 1177.854736328125
20, 0, 0, 1200.779907226562
21, 0, 0, 1202.20166015625
22, 0, 0, 1204.87060546875
23, 0, 0, 1216.415649414062
24, 0, 0, 1219.485595703125
25, 0, 0, 1217.50830078125
26, 0, 0, 1238.396362304688
27, 0, 0, 1248.820922851562
28, 0, 0, 1254.475463867188
29, 0, 0, 1261.367431640625
30, 0, 0, 1269.246826171875
31, 0, 0, 1286.091430664062
32, 0, 0, 1281.75439453125
33, 0, 0, 1283.29931640625
34, 0, 0, 1297.998168945312
35, 0, 0, 1310.347290039062
36, 0, 0, 1314.754760742188
37, 0, 0, 1327.677734375
38, 0, 0, 1337.413452148438
39, 0, 0, 1341.281860351562
40, 0, 0, 1363.957153320312
41, 0, 0, 1365.7197265625
42, 0, 0, 1381.033569335938
43, 0, 0, 1400.108642578125
44, 0, 0, 1397.531982421875
45, 0, 0, 1424.053100585938
46, 0, 0, 1432.50390625
47, 0, 0, 1446.363647460938
48, 0, 0, 1454.205444335938
49, 0, 0, 1470.488037109375
50, 0, 0, 1478.93603515625
51, 0, 0, 1500.647094726562
52, 0, 0, 1516.740112304688
53, 0, 0, 1534.722900390625
54, 0, 0, 1540.975463867188
55, 0, 0, 1573.264038085938
56, 0, 0, 1581.1015625
57, 0, 0, 1601.460327148438
58, 0, 0, 1623.228637695312
59, 0, 0, 1642.386474609375
60, 0, 0, 1653.387084960938
61, 0, 0, 1680.234619140625
62, 0, 0, 1701.494873046875
63, 0, 0, 1725.65283203125
64, 0, 0, 1755.843139648438
65, 0, 0, 1783.687866210938
66, 0, 0, 1810.763549804688
67, 0, 0, 1831.535888671875
68, 0, 0, 1868.10400390625
69, 0, 0, 1903.02099609375
70, 0, 0, 1931.452270507812
71, 0, 0, 1966.86181640625
72, 0, 0, 2004.343627929688
73, 0, 0, 2053.316162109375
74, 0, 0, 2092.781005859375
75, 0, 0, 2150.602783203125
76, 0, 0, 2206.30322265625
77, 0, 0, 2252.625732421875
78, 0, 0, 2326.4384765625
79, 0, 0, 2403.704833984375
80, 0, 0, 2474.88623046875
81, 0, 0, 2565.313720703125
82, 0, 0, 2676.794677734375
83, 0, 0, 2795.099853515625
84, 0, 0, 2949.58984375
85, 0, 0, 3108.6083984375
86, 0, 0, 3345.434326171875
87, 0, 0, 3612.985107421875
88, 0, 0, 4019.78271484375
89, 0, 0, 4636.771484375
90, 0, 0, 5441.5576171875
91, 0, 0, 6184.72900390625
92, 0, 0, 5829.0126953125
93, 0, 0, 4046.652587890625
94, 0, 0, 2239.098388671875
95, 0, 0, 844.1073608398438
96, 0, 0, 137.1086578369141
97, 0, 0, 11.0964994430542
98, 0, 0, 0
99, 0, 0, 0
100, 0, 0, 0
101, 0, 0, 0
102, 0, 0, 0
103, 0, 0, 0
104, 0, 0, 0.03350095078349113
105, 0, 0, 0
106, 0, 0, 0
107, 0, 0, 0.001524637220427394
108, 0, 0, 0
109, 0, 0, 0
110, 0, 0, 0
111, 0, 0, 0
112, 0, 0, 0
113, 0, 0, 0
114, 0, 0, 0
115, 0, 0, 0
116, 0, 0, 0
117, 0, 0, 0
118, 0, 0, 0
119, 0, 0, 0
120, 0, 0, 0
121, 0, 0, 0
122, 0, 0, 0
123, 0, 0, 0
124, 0, 0, 0
125, 0, 0, 0
126, 0, 0, 0
127, 0, 0, 0
128, 0, 0, 0
129, 0, 0, 0
130, 0, 0, 0
131, 0, 0, 0
132, 0, 0, 0
133, 0, 0, 0
134, 0, 0, 0
135, 0, 0, 0
136, 0, 0, 0
137, 0, 0, 0
138, 0, 0, 0
139, 0, 0, 0
140, 0, 0, 0.01125754415988922
141, 0, 0, 0
142, 0, 0, 0
143, 0, 0, 0
144, 0, 0, 0
145, 0, 0, 0
146, 0, 0, 0
147, 0, 0, 0
148, 0, 0, 0
149, 0, 0, 0
150, 0, 0, 0
151, 0, 0, 0
152, 0, 0, 0
153, 0, 0, 0
154, 0, 0, 0
155, 0, 0, 0
156, 0, 0, 0
157, 0, 0, 0
158, 0, 0, 0
159, 0, 0, 0
160, 0, 0, 0
161, 0, 0, 0.08569918572902679
162, 0, 0, 0
163, 0, 0, 0
164, 0, 0, 0
165, 0, 0, 0
166, 0, 0, 0
167, 0, 0, 0
168, 0, 0, 0
169, 0, 0, 0
170, 0, 0, 0
171, 0, 0, 0
172, 0, 0, 0
173, 0, 0, 0
174, 0, 0, 0
175, 0, 0, 0
176, 0, 0, 0
177, 0, 0, 0
178, 0, 0, 0
179, 0, 0, 0
