# TOPAS Version: 3.3.p1
# Parameter File: Simple_Pattern.txt
# Results for scorer MLIC_Scorer
# Scored in component: MLIC
# X in 180 bins of 0.222222 cm
# Y in 1 bin  of 10 cm
# Z in 1 bin  of 10 cm
# EnergyDeposit ( MeV ) : Sum   
0, 0, 0, 1086.851196289062
1, 0, 0, 1089.311645507812
2, 0, 0, 1087.6708984375
3, 0, 0, 1111.489379882812
4, 0, 0, 1104.682250976562
5, 0, 0, 1111.974975585938
6, 0, 0, 1124.958862304688
7, 0, 0, 1117.302124023438
8, 0, 0, 1128.331665039062
9, 0, 0, 1121.756591796875
10, 0, 0, 1138.101928710938
11, 0, 0, 1147.244750976562
12, 0, 0, 1149.432373046875
13, 0, 0, 1154.679931640625
14, 0, 0, 1157.887329101562
15, 0, 0, 1162.138549804688
16, 0, 0, 1170.001953125
17, 0, 0, 1169.955932617188
18, 0, 0, 1187.637451171875
19, 0, 0, 1189.765625
20, 0, 0, 1193.400512695312
21, 0, 0, 1199.245239257812
22, 0, 0, 1211.550537109375
23, 0, 0, 1209.697509765625
24, 0, 0, 1222.586181640625
25, 0, 0, 1237.252075195312
26, 0, 0, 1243.168701171875
27, 0, 0, 1247.070068359375
28, 0, 0, 1251.917724609375
29, 0, 0, 1266.594970703125
30, 0, 0, 1260.897216796875
31, 0, 0, 1276.93603515625
32, 0, 0, 1282.90478515625
33, 0, 0, 1291.472900390625
34, 0, 0, 1304.06005859375
35, 0, 0, 1314.693237304688
36, 0, 0, 1309.0859375
37, 0, 0, 1326.609130859375
38, 0, 0, 1338.095458984375
39, 0, 0, 1344.59228515625
40, 0, 0, 1358.148559570312
41, 0, 0, 1375.066772460938
42, 0, 0, 1376.633911132812
43, 0, 0, 1397.757080078125
44, 0, 0, 1401.862426757812
45, 0, 0, 1420.252563476562
46, 0, 0, 1430.416625976562
47, 0, 0, 1446.005615234375
48, 0, 0, 1444.141967773438
49, 0, 0, 1473.130493164062
50, 0, 0, 1483.30859375
51, 0, 0, 1493.704956054688
52, 0, 0, 1515.6220703125
53, 0, 0, 1531.774658203125
54, 0, 0, 1541.1982421875
55, 0, 0, 1565.253540039062
56, 0, 0, 1585.658813476562
57, 0, 0, 1597.934326171875
58, 0, 0, 1616.244750976562
59, 0, 0, 1629.772583007812
60, 0, 0, 1659.115234375
61, 0, 0, 1674.62841796875
62, 0, 0, 1696.133178710938
63, 0, 0, 1728.533813476562
64, 0, 0, 1755.0556640625
65, 0, 0, 1784.283813476562
66, 0, 0, 1809.83544921875
67, 0, 0, 1837.44140625
68, 0, 0, 1873.093627929688
69, 0, 0, 1897.221801757812
70, 0, 0, 1941.781982421875
71, 0, 0, 1978.808227539062
72, 0, 0, 2016.321166992188
73, 0, 0, 2055.254150390625
74, 0, 0, 2105.089111328125
75, 0, 0, 2152.370361328125
76, 0, 0, 2209.832763671875
77, 0, 0, 2266.18115234375
78, 0, 0, 2334.953857421875
79, 0, 0, 2409.620361328125
80, 0, 0, 2490.64111328125
81, 0, 0, 2583.128173828125
82, 0, 0, 2690.21240234375
83, 0, 0, 2812.771728515625
84, 0, 0, 2960.049560546875
85, 0, 0, 3139.731201171875
86, 0, 0, 3363.0078125
87, 0, 0, 3655.344970703125
88, 0, 0, 4052.181396484375
89, 0, 0, 4674.14453125
90, 0, 0, 5478.07080078125
91, 0, 0, 6086.9892578125
92, 0, 0, 5730.9970703125
93, 0, 0, 4214.02099609375
94, 0, 0, 2122.9609375
95, 0, 0, 650.7423706054688
96, 0, 0, 99.23187255859375
97, 0, 0, 0
98, 0, 0, 0
99, 0, 0, 0
100, 0, 0, 0
101, 0, 0, 0
102, 0, 0, 0
103, 0, 0, 0
104, 0, 0, 0
105, 0, 0, 0
106, 0, 0, 0
107, 0, 0, 0
108, 0, 0, 0
109, 0, 0, 0
110, 0, 0, 0
111, 0, 0, 0
112, 0, 0, 0
113, 0, 0, 0
114, 0, 0, 0
115, 0, 0, 0
116, 0, 0, 0
117, 0, 0, 0
118, 0, 0, 0.03701594471931458
119, 0, 0, 0
120, 0, 0, 0
121, 0, 0, 0
122, 0, 0, 0
123, 0, 0, 0
124, 0, 0, 0
125, 0, 0, 0
126, 0, 0, 0
127, 0, 0, 0
128, 0, 0, 0
129, 0, 0, 0
130, 0, 0, 0
131, 0, 0, 0
132, 0, 0, 0
133, 0, 0, 0
134, 0, 0, 0
135, 0, 0, 0
136, 0, 0, 0
137, 0, 0, 0
138, 0, 0, 0
139, 0, 0, 0
140, 0, 0, 0
141, 0, 0, 0
142, 0, 0, 0
143, 0, 0, 0
144, 0, 0, 0
145, 0, 0, 0
146, 0, 0, 0
147, 0, 0, 0
148, 0, 0, 0
149, 0, 0, 0
150, 0, 0, 0
151, 0, 0, 0
152, 0, 0, 0
153, 0, 0, 0
154, 0, 0, 0
155, 0, 0, 0
156, 0, 0, 0
157, 0, 0, 0
158, 0, 0, 0
159, 0, 0, 0
160, 0, 0, 0
161, 0, 0, 0
162, 0, 0, 0
163, 0, 0, 0
164, 0, 0, 0
165, 0, 0, 0
166, 0, 0, 0
167, 0, 0, 0
168, 0, 0, 0.0357513353228569
169, 0, 0, 0
170, 0, 0, 0
171, 0, 0, 0
172, 0, 0, 0
173, 0, 0, 0
174, 0, 0, 0
175, 0, 0, 0
176, 0, 0, 0
177, 0, 0, 0
178, 0, 0, 0
179, 0, 0, 0
