# TOPAS Version: 3.3.p1
# Parameter File: Simple_Pattern.txt
# Results for scorer MLIC_Scorer
# Scored in component: MLIC
# X in 180 bins of 0.222222 cm
# Y in 1 bin  of 10 cm
# Z in 1 bin  of 10 cm
# EnergyDeposit ( MeV ) : Sum   
0, 0, 0, 61.72310638427734
1, 0, 0, 60.47689437866211
2, 0, 0, 59.44964218139648
3, 0, 0, 60.68080520629883
4, 0, 0, 62.6841926574707
5, 0, 0, 62.18364334106445
6, 0, 0, 61.22620010375977
7, 0, 0, 61.9224967956543
8, 0, 0, 62.64342498779297
9, 0, 0, 63.93415832519531
10, 0, 0, 64.72693634033203
11, 0, 0, 65.69534301757812
12, 0, 0, 61.9424934387207
13, 0, 0, 63.68613433837891
14, 0, 0, 66.46467590332031
15, 0, 0, 63.2453727722168
16, 0, 0, 66.08403778076172
17, 0, 0, 64.58769226074219
18, 0, 0, 64.23371887207031
19, 0, 0, 68.90718841552734
20, 0, 0, 67.67864227294922
21, 0, 0, 67.84450531005859
22, 0, 0, 68.53136444091797
23, 0, 0, 68.42098236083984
24, 0, 0, 69.1590576171875
25, 0, 0, 68.68824005126953
26, 0, 0, 71.61305236816406
27, 0, 0, 71.11217498779297
28, 0, 0, 71.27259063720703
29, 0, 0, 70.49182891845703
30, 0, 0, 71.61138916015625
31, 0, 0, 71.54395294189453
32, 0, 0, 70.80803680419922
33, 0, 0, 72.17017364501953
34, 0, 0, 72.83711242675781
35, 0, 0, 74.00416564941406
36, 0, 0, 71.87438201904297
37, 0, 0, 72.44793701171875
38, 0, 0, 76.27355194091797
39, 0, 0, 75.77715301513672
40, 0, 0, 75.33283996582031
41, 0, 0, 78.55831146240234
42, 0, 0, 78.20318603515625
43, 0, 0, 77.02301788330078
44, 0, 0, 78.26046752929688
45, 0, 0, 79.01589202880859
46, 0, 0, 79.79800415039062
47, 0, 0, 80.97508239746094
48, 0, 0, 80.78543853759766
49, 0, 0, 82.69514465332031
50, 0, 0, 83.42778015136719
51, 0, 0, 82.43949127197266
52, 0, 0, 85.05696868896484
53, 0, 0, 85.70749664306641
54, 0, 0, 87.91345977783203
55, 0, 0, 86.85472869873047
56, 0, 0, 90.40728759765625
57, 0, 0, 87.28518676757812
58, 0, 0, 90.39678192138672
59, 0, 0, 90.79195404052734
60, 0, 0, 93.318359375
61, 0, 0, 94.53244018554688
62, 0, 0, 95.61872863769531
63, 0, 0, 95.33794403076172
64, 0, 0, 99.36231231689453
65, 0, 0, 99.99563598632812
66, 0, 0, 101.7718505859375
67, 0, 0, 104.2005920410156
68, 0, 0, 105.3407745361328
69, 0, 0, 107.7134323120117
70, 0, 0, 109.5969924926758
71, 0, 0, 110.2928695678711
72, 0, 0, 112.5308609008789
73, 0, 0, 117.9791030883789
74, 0, 0, 117.2018432617188
75, 0, 0, 121.9255523681641
76, 0, 0, 123.4232864379883
77, 0, 0, 125.803840637207
78, 0, 0, 130.8374786376953
79, 0, 0, 135.1373443603516
80, 0, 0, 141.863037109375
81, 0, 0, 145.6196594238281
82, 0, 0, 151.4143524169922
83, 0, 0, 159.3528594970703
84, 0, 0, 166.5160522460938
85, 0, 0, 176.7464447021484
86, 0, 0, 188.2484130859375
87, 0, 0, 203.3232269287109
88, 0, 0, 226.4167175292969
89, 0, 0, 257.236328125
90, 0, 0, 300.1842956542969
91, 0, 0, 388.9374084472656
92, 0, 0, 358.5881958007812
93, 0, 0, 223.5509490966797
94, 0, 0, 107.1343536376953
95, 0, 0, 52.66195678710938
96, 0, 0, 0
97, 0, 0, 0
98, 0, 0, 0
99, 0, 0, 0
100, 0, 0, 0
101, 0, 0, 0
102, 0, 0, 0
103, 0, 0, 0
104, 0, 0, 0
105, 0, 0, 0
106, 0, 0, 0
107, 0, 0, 0
108, 0, 0, 0
109, 0, 0, 0
110, 0, 0, 0
111, 0, 0, 0
112, 0, 0, 0
113, 0, 0, 0
114, 0, 0, 0
115, 0, 0, 0
116, 0, 0, 0
117, 0, 0, 0
118, 0, 0, 0
119, 0, 0, 0
120, 0, 0, 0
121, 0, 0, 0
122, 0, 0, 0
123, 0, 0, 0
124, 0, 0, 0
125, 0, 0, 0
126, 0, 0, 0
127, 0, 0, 0
128, 0, 0, 0
129, 0, 0, 0
130, 0, 0, 0
131, 0, 0, 0
132, 0, 0, 0
133, 0, 0, 0
134, 0, 0, 0
135, 0, 0, 0
136, 0, 0, 0
137, 0, 0, 0
138, 0, 0, 0
139, 0, 0, 0
140, 0, 0, 0
141, 0, 0, 0
142, 0, 0, 0
143, 0, 0, 0
144, 0, 0, 0
145, 0, 0, 0
146, 0, 0, 0
147, 0, 0, 0
148, 0, 0, 0
149, 0, 0, 0
150, 0, 0, 0
151, 0, 0, 0
152, 0, 0, 0
153, 0, 0, 0
154, 0, 0, 0
155, 0, 0, 0
156, 0, 0, 0
157, 0, 0, 0
158, 0, 0, 0
159, 0, 0, 0
160, 0, 0, 0
161, 0, 0, 0
162, 0, 0, 0
163, 0, 0, 0
164, 0, 0, 0
165, 0, 0, 0
166, 0, 0, 0
167, 0, 0, 0
168, 0, 0, 0
169, 0, 0, 0
170, 0, 0, 0
171, 0, 0, 0
172, 0, 0, 0
173, 0, 0, 0
174, 0, 0, 0
175, 0, 0, 0
176, 0, 0, 0
177, 0, 0, 0
178, 0, 0, 0
179, 0, 0, 0
