# TOPAS Version: 3.3.p1
# Parameter File: Simple_Pattern.txt
# Results for scorer MLIC_Scorer
# Scored in component: MLIC
# X in 180 bins of 0.222222 cm
# Y in 1 bin  of 10 cm
# Z in 1 bin  of 10 cm
# EnergyDeposit ( MeV ) : Sum   
0, 0, 0, 1147.83447265625
1, 0, 0, 1159.512573242188
2, 0, 0, 1167.07470703125
3, 0, 0, 1168.581665039062
4, 0, 0, 1172.4541015625
5, 0, 0, 1179.634643554688
6, 0, 0, 1188.796142578125
7, 0, 0, 1195.745239257812
8, 0, 0, 1202.085327148438
9, 0, 0, 1209.520629882812
10, 0, 0, 1219.174926757812
11, 0, 0, 1228.083984375
12, 0, 0, 1223.125366210938
13, 0, 0, 1241.455688476562
14, 0, 0, 1248.303955078125
15, 0, 0, 1257.109619140625
16, 0, 0, 1266.155151367188
17, 0, 0, 1260.176025390625
18, 0, 0, 1267.279052734375
19, 0, 0, 1279.255981445312
20, 0, 0, 1297.097778320312
21, 0, 0, 1307.8662109375
22, 0, 0, 1306.63134765625
23, 0, 0, 1317.1044921875
24, 0, 0, 1327.557983398438
25, 0, 0, 1342.870727539062
26, 0, 0, 1346.908325195312
27, 0, 0, 1354.784423828125
28, 0, 0, 1367.932373046875
29, 0, 0, 1381.97607421875
30, 0, 0, 1391.97265625
31, 0, 0, 1409.393188476562
32, 0, 0, 1412.692016601562
33, 0, 0, 1431.7587890625
34, 0, 0, 1444.254760742188
35, 0, 0, 1452.638061523438
36, 0, 0, 1469.145385742188
37, 0, 0, 1483.687622070312
38, 0, 0, 1490.608032226562
39, 0, 0, 1513.787963867188
40, 0, 0, 1532.415161132812
41, 0, 0, 1539.143798828125
42, 0, 0, 1556.442504882812
43, 0, 0, 1587.125854492188
44, 0, 0, 1593.426391601562
45, 0, 0, 1615.341430664062
46, 0, 0, 1634.467407226562
47, 0, 0, 1655.991943359375
48, 0, 0, 1675.160034179688
49, 0, 0, 1707.192504882812
50, 0, 0, 1725.771728515625
51, 0, 0, 1756.2998046875
52, 0, 0, 1772.64794921875
53, 0, 0, 1802.395874023438
54, 0, 0, 1842.315063476562
55, 0, 0, 1882.611206054688
56, 0, 0, 1900.41552734375
57, 0, 0, 1940.3505859375
58, 0, 0, 1972.06591796875
59, 0, 0, 2016.299926757812
60, 0, 0, 2062.50048828125
61, 0, 0, 2105.24267578125
62, 0, 0, 2166.42333984375
63, 0, 0, 2220.660888671875
64, 0, 0, 2277.307861328125
65, 0, 0, 2344.03466796875
66, 0, 0, 2419.873779296875
67, 0, 0, 2499.520263671875
68, 0, 0, 2600.047607421875
69, 0, 0, 2713.05859375
70, 0, 0, 2827.564697265625
71, 0, 0, 2973.156005859375
72, 0, 0, 3149.38623046875
73, 0, 0, 3372.040771484375
74, 0, 0, 3677.8369140625
75, 0, 0, 4044.411376953125
76, 0, 0, 4598.271484375
77, 0, 0, 5401.3154296875
78, 0, 0, 6294.21337890625
79, 0, 0, 6125.0732421875
80, 0, 0, 4482.439453125
81, 0, 0, 2234.169921875
82, 0, 0, 773.8024291992188
83, 0, 0, 265.6761779785156
84, 0, 0, 51.52903747558594
85, 0, 0, 0
86, 0, 0, 0
87, 0, 0, 0.002451339736580849
88, 0, 0, 0
89, 0, 0, 0.00368313817307353
90, 0, 0, 0
91, 0, 0, 0
92, 0, 0, 0
93, 0, 0, 0.0002530829806346446
94, 0, 0, 0
95, 0, 0, 0
96, 0, 0, 0
97, 0, 0, 0
98, 0, 0, 0
99, 0, 0, 0.005370782688260078
100, 0, 0, 0
101, 0, 0, 0.002502721501514316
102, 0, 0, 0
103, 0, 0, 0
104, 0, 0, 0
105, 0, 0, 0
106, 0, 0, 0
107, 0, 0, 0
108, 0, 0, 0
109, 0, 0, 0
110, 0, 0, 0
111, 0, 0, 0
112, 0, 0, 0
113, 0, 0, 0
114, 0, 0, 0
115, 0, 0, 0
116, 0, 0, 0
117, 0, 0, 0
118, 0, 0, 0
119, 0, 0, 0
120, 0, 0, 0
121, 0, 0, 0
122, 0, 0, 0
123, 0, 0, 0
124, 0, 0, 0
125, 0, 0, 0
126, 0, 0, 0
127, 0, 0, 0
128, 0, 0, 0
129, 0, 0, 0
130, 0, 0, 0
131, 0, 0, 0
132, 0, 0, 0
133, 0, 0, 0
134, 0, 0, 0
135, 0, 0, 0
136, 0, 0, 0
137, 0, 0, 0
138, 0, 0, 0
139, 0, 0, 0
140, 0, 0, 0
141, 0, 0, 0
142, 0, 0, 0
143, 0, 0, 0
144, 0, 0, 0
145, 0, 0, 0
146, 0, 0, 0
147, 0, 0, 0
148, 0, 0, 0
149, 0, 0, 0
150, 0, 0, 0
151, 0, 0, 0
152, 0, 0, 0
153, 0, 0, 0
154, 0, 0, 0
155, 0, 0, 0
156, 0, 0, 0
157, 0, 0, 0
158, 0, 0, 0
159, 0, 0, 0
160, 0, 0, 0
161, 0, 0, 0
162, 0, 0, 0
163, 0, 0, 0
164, 0, 0, 0
165, 0, 0, 0
166, 0, 0, 0
167, 0, 0, 0
168, 0, 0, 0
169, 0, 0, 0
170, 0, 0, 0
171, 0, 0, 0
172, 0, 0, 0
173, 0, 0, 0
174, 0, 0, 0
175, 0, 0, 0
176, 0, 0, 0
177, 0, 0, 0
178, 0, 0, 0
179, 0, 0, 0
