# TOPAS Version: 3.3.p1
# Parameter File: Simple_Pattern.txt
# Results for scorer MLIC_Scorer
# Scored in component: MLIC
# X in 180 bins of 0.222222 cm
# Y in 1 bin  of 10 cm
# Z in 1 bin  of 10 cm
# EnergyDeposit ( MeV ) : Sum   
0, 0, 0, 1090.671752929688
1, 0, 0, 1092.799926757812
2, 0, 0, 1097.368041992188
3, 0, 0, 1106.814331054688
4, 0, 0, 1113.147583007812
5, 0, 0, 1104.065673828125
6, 0, 0, 1116.85400390625
7, 0, 0, 1122.492431640625
8, 0, 0, 1127.602661132812
9, 0, 0, 1136.7333984375
10, 0, 0, 1137.963500976562
11, 0, 0, 1140.676147460938
12, 0, 0, 1142.7841796875
13, 0, 0, 1154.467407226562
14, 0, 0, 1155.22705078125
15, 0, 0, 1169.11376953125
16, 0, 0, 1169.340942382812
17, 0, 0, 1178.983520507812
18, 0, 0, 1176.13818359375
19, 0, 0, 1184.228515625
20, 0, 0, 1192.390502929688
21, 0, 0, 1203.548950195312
22, 0, 0, 1213.890991210938
23, 0, 0, 1213.902954101562
24, 0, 0, 1225.196899414062
25, 0, 0, 1223.472412109375
26, 0, 0, 1236.312377929688
27, 0, 0, 1241.660888671875
28, 0, 0, 1244.8076171875
29, 0, 0, 1257.346801757812
30, 0, 0, 1262.229125976562
31, 0, 0, 1279.453979492188
32, 0, 0, 1284.383911132812
33, 0, 0, 1298.759643554688
34, 0, 0, 1294.82470703125
35, 0, 0, 1303.719482421875
36, 0, 0, 1319.9443359375
37, 0, 0, 1327.282958984375
38, 0, 0, 1334.086181640625
39, 0, 0, 1348.452880859375
40, 0, 0, 1357.448120117188
41, 0, 0, 1361.895874023438
42, 0, 0, 1375.737060546875
43, 0, 0, 1390.250610351562
44, 0, 0, 1406.83837890625
45, 0, 0, 1415.906127929688
46, 0, 0, 1436.083862304688
47, 0, 0, 1440.52685546875
48, 0, 0, 1453.640747070312
49, 0, 0, 1465.866333007812
50, 0, 0, 1477.026000976562
51, 0, 0, 1485.062255859375
52, 0, 0, 1521.616821289062
53, 0, 0, 1532.144165039062
54, 0, 0, 1543.068725585938
55, 0, 0, 1558.466796875
56, 0, 0, 1572.641479492188
57, 0, 0, 1603.438232421875
58, 0, 0, 1621.480224609375
59, 0, 0, 1640.707763671875
60, 0, 0, 1657.792724609375
61, 0, 0, 1668.572265625
62, 0, 0, 1698.29541015625
63, 0, 0, 1723.427124023438
64, 0, 0, 1749.6318359375
65, 0, 0, 1778.8154296875
66, 0, 0, 1801.648193359375
67, 0, 0, 1832.246459960938
68, 0, 0, 1862.506103515625
69, 0, 0, 1888.476318359375
70, 0, 0, 1922.021484375
71, 0, 0, 1969.327392578125
72, 0, 0, 2004.420288085938
73, 0, 0, 2043.091430664062
74, 0, 0, 2095.388916015625
75, 0, 0, 2142.5458984375
76, 0, 0, 2191.742431640625
77, 0, 0, 2254.392578125
78, 0, 0, 2328.65576171875
79, 0, 0, 2395.308349609375
80, 0, 0, 2478.14013671875
81, 0, 0, 2568.155029296875
82, 0, 0, 2672.2919921875
83, 0, 0, 2794.220947265625
84, 0, 0, 2949.526123046875
85, 0, 0, 3113.847900390625
86, 0, 0, 3338.73291015625
87, 0, 0, 3621.4873046875
88, 0, 0, 4020.796875
89, 0, 0, 4578.1640625
90, 0, 0, 5351.673828125
91, 0, 0, 6129.7265625
92, 0, 0, 5744.42822265625
93, 0, 0, 4263.55029296875
94, 0, 0, 2366.72265625
95, 0, 0, 669.3953857421875
96, 0, 0, 108.1186981201172
97, 0, 0, 18.03613662719727
98, 0, 0, 0
99, 0, 0, 0
100, 0, 0, 0.004478389862924814
101, 0, 0, 0
102, 0, 0, 0
103, 0, 0, 0.002176242182031274
104, 0, 0, 0.00138812034856528
105, 0, 0, 0
106, 0, 0, 0.03238506615161896
107, 0, 0, 0
108, 0, 0, 0.06381280720233917
109, 0, 0, 0
110, 0, 0, 0
111, 0, 0, 0
112, 0, 0, 0
113, 0, 0, 0
114, 0, 0, 0
115, 0, 0, 0
116, 0, 0, 0
117, 0, 0, 0
118, 0, 0, 0
119, 0, 0, 0
120, 0, 0, 0
121, 0, 0, 0
122, 0, 0, 0
123, 0, 0, 0
124, 0, 0, 0
125, 0, 0, 0
126, 0, 0, 0
127, 0, 0, 0
128, 0, 0, 0
129, 0, 0, 0
130, 0, 0, 0
131, 0, 0, 0
132, 0, 0, 0
133, 0, 0, 0
134, 0, 0, 0
135, 0, 0, 0
136, 0, 0, 0
137, 0, 0, 0
138, 0, 0, 0
139, 0, 0, 0
140, 0, 0, 0
141, 0, 0, 0
142, 0, 0, 0
143, 0, 0, 0
144, 0, 0, 0
145, 0, 0, 0
146, 0, 0, 0.09507521986961365
147, 0, 0, 0
148, 0, 0, 0
149, 0, 0, 0
150, 0, 0, 0
151, 0, 0, 0
152, 0, 0, 0
153, 0, 0, 0
154, 0, 0, 0
155, 0, 0, 0
156, 0, 0, 0
157, 0, 0, 0
158, 0, 0, 0
159, 0, 0, 0
160, 0, 0, 0
161, 0, 0, 0
162, 0, 0, 0
163, 0, 0, 0
164, 0, 0, 0
165, 0, 0, 0
166, 0, 0, 0
167, 0, 0, 0
168, 0, 0, 0
169, 0, 0, 0
170, 0, 0, 0
171, 0, 0, 0
172, 0, 0, 0
173, 0, 0, 0
174, 0, 0, 0
175, 0, 0, 0
176, 0, 0, 0
177, 0, 0, 0
178, 0, 0, 0
179, 0, 0, 0
