# TOPAS Version: 3.3.p1
# Parameter File: Simple_Pattern.txt
# Results for scorer MLIC_Scorer
# Scored in component: MLIC
# X in 180 bins of 0.222222 cm
# Y in 1 bin  of 10 cm
# Z in 1 bin  of 10 cm
# EnergyDeposit ( MeV ) : Sum   
0, 0, 0, 111.3047027587891
1, 0, 0, 113.3217468261719
2, 0, 0, 113.2188720703125
3, 0, 0, 112.8025817871094
4, 0, 0, 112.120979309082
5, 0, 0, 110.0243835449219
6, 0, 0, 114.4854278564453
7, 0, 0, 115.1380310058594
8, 0, 0, 116.9757385253906
9, 0, 0, 114.4776611328125
10, 0, 0, 113.6910018920898
11, 0, 0, 116.0622634887695
12, 0, 0, 115.7753601074219
13, 0, 0, 118.4643478393555
14, 0, 0, 118.2174530029297
15, 0, 0, 120.5408096313477
16, 0, 0, 118.3601989746094
17, 0, 0, 121.8273239135742
18, 0, 0, 118.8248062133789
19, 0, 0, 120.8979339599609
20, 0, 0, 119.5698394775391
21, 0, 0, 119.5482788085938
22, 0, 0, 123.9225234985352
23, 0, 0, 120.6159439086914
24, 0, 0, 124.6563949584961
25, 0, 0, 122.2048187255859
26, 0, 0, 122.9279861450195
27, 0, 0, 126.5097961425781
28, 0, 0, 126.4960174560547
29, 0, 0, 124.0762023925781
30, 0, 0, 126.371337890625
31, 0, 0, 126.8957138061523
32, 0, 0, 127.6293563842773
33, 0, 0, 128.4441375732422
34, 0, 0, 129.533203125
35, 0, 0, 131.5159606933594
36, 0, 0, 134.5214538574219
37, 0, 0, 133.1915740966797
38, 0, 0, 131.9270324707031
39, 0, 0, 132.337646484375
40, 0, 0, 135.7486724853516
41, 0, 0, 135.3563232421875
42, 0, 0, 137.5070648193359
43, 0, 0, 139.2229309082031
44, 0, 0, 139.3250732421875
45, 0, 0, 140.7333831787109
46, 0, 0, 140.6159362792969
47, 0, 0, 140.6802520751953
48, 0, 0, 143.8307037353516
49, 0, 0, 139.3914947509766
50, 0, 0, 140.6354370117188
51, 0, 0, 141.9639434814453
52, 0, 0, 141.3364715576172
53, 0, 0, 144.4781341552734
54, 0, 0, 145.2887573242188
55, 0, 0, 148.1557006835938
56, 0, 0, 149.5085754394531
57, 0, 0, 151.2672729492188
58, 0, 0, 152.8371276855469
59, 0, 0, 153.1819763183594
60, 0, 0, 155.1014556884766
61, 0, 0, 153.9274597167969
62, 0, 0, 157.3155975341797
63, 0, 0, 158.6457824707031
64, 0, 0, 156.7492980957031
65, 0, 0, 161.5286102294922
66, 0, 0, 162.6389923095703
67, 0, 0, 163.6047515869141
68, 0, 0, 170.0608978271484
69, 0, 0, 171.4516448974609
70, 0, 0, 171.6144409179688
71, 0, 0, 167.9734191894531
72, 0, 0, 175.9709777832031
73, 0, 0, 175.3412170410156
74, 0, 0, 177.5705718994141
75, 0, 0, 189.7167053222656
76, 0, 0, 190.5283813476562
77, 0, 0, 189.0372009277344
78, 0, 0, 194.0733947753906
79, 0, 0, 199.8223419189453
80, 0, 0, 206.6931762695312
81, 0, 0, 215.3684692382812
82, 0, 0, 221.0766754150391
83, 0, 0, 231.0180206298828
84, 0, 0, 244.7630157470703
85, 0, 0, 257.693359375
86, 0, 0, 267.3688049316406
87, 0, 0, 296.4775085449219
88, 0, 0, 311.1302490234375
89, 0, 0, 361.8484497070312
90, 0, 0, 416.9007873535156
91, 0, 0, 484.6054382324219
92, 0, 0, 443.3877868652344
93, 0, 0, 299.356689453125
94, 0, 0, 152.86376953125
95, 0, 0, 62.32933807373047
96, 0, 0, 10.98961448669434
97, 0, 0, 3.642759084701538
98, 0, 0, 0
99, 0, 0, 0
100, 0, 0, 0
101, 0, 0, 0
102, 0, 0, 0
103, 0, 0, 0
104, 0, 0, 0
105, 0, 0, 0
106, 0, 0, 0.01848587393760681
107, 0, 0, 0.03625783324241638
108, 0, 0, 0
109, 0, 0, 0
110, 0, 0, 0
111, 0, 0, 0
112, 0, 0, 0
113, 0, 0, 0
114, 0, 0, 0
115, 0, 0, 0
116, 0, 0, 0
117, 0, 0, 0
118, 0, 0, 0
119, 0, 0, 0
120, 0, 0, 0
121, 0, 0, 0
122, 0, 0, 0
123, 0, 0, 0
124, 0, 0, 0
125, 0, 0, 0
126, 0, 0, 0
127, 0, 0, 0
128, 0, 0, 0
129, 0, 0, 0
130, 0, 0, 0
131, 0, 0, 0
132, 0, 0, 0
133, 0, 0, 0
134, 0, 0, 0
135, 0, 0, 0
136, 0, 0, 0
137, 0, 0, 0
138, 0, 0, 0
139, 0, 0, 0
140, 0, 0, 0
141, 0, 0, 0
142, 0, 0, 0
143, 0, 0, 0
144, 0, 0, 0
145, 0, 0, 0
146, 0, 0, 0
147, 0, 0, 0
148, 0, 0, 0
149, 0, 0, 0
150, 0, 0, 0
151, 0, 0, 0
152, 0, 0, 0
153, 0, 0, 0
154, 0, 0, 0
155, 0, 0, 0
156, 0, 0, 0
157, 0, 0, 0
158, 0, 0, 0
159, 0, 0, 0
160, 0, 0, 0
161, 0, 0, 0
162, 0, 0, 0
163, 0, 0, 0
164, 0, 0, 0
165, 0, 0, 0
166, 0, 0, 0
167, 0, 0, 0
168, 0, 0, 0
169, 0, 0, 0
170, 0, 0, 0
171, 0, 0, 0
172, 0, 0, 0
173, 0, 0, 0
174, 0, 0, 0.01142105553299189
175, 0, 0, 0.001825974322855473
176, 0, 0, 0
177, 0, 0, 0
178, 0, 0, 0
179, 0, 0, 0
