# TOPAS Version: 3.3.p1
# Parameter File: Simple_Pattern.txt
# Results for scorer MLIC_Scorer
# Scored in component: MLIC
# X in 165 bins of 0.2 cm
# Y in 1 bin  of 10 cm
# Z in 1 bin  of 10 cm
# EnergyDeposit ( MeV ) : Sum   
0, 0, 0, 977.8670043945312
1, 0, 0, 989.3515625
2, 0, 0, 991.9939575195312
3, 0, 0, 999.0596313476562
4, 0, 0, 1001.558349609375
5, 0, 0, 1006.425109863281
6, 0, 0, 1013.680480957031
7, 0, 0, 1014.512023925781
8, 0, 0, 1013.116088867188
9, 0, 0, 1022.606994628906
10, 0, 0, 1019.486572265625
11, 0, 0, 1028.048828125
12, 0, 0, 1034.077392578125
13, 0, 0, 1034.429565429688
14, 0, 0, 1041.539428710938
15, 0, 0, 1049.983520507812
16, 0, 0, 1056.428466796875
17, 0, 0, 1072.144287109375
18, 0, 0, 1060.424926757812
19, 0, 0, 1075.817260742188
20, 0, 0, 1082.986328125
21, 0, 0, 1082.525024414062
22, 0, 0, 1083.02734375
23, 0, 0, 1088.952880859375
24, 0, 0, 1091.364990234375
25, 0, 0, 1099.299194335938
26, 0, 0, 1105.86474609375
27, 0, 0, 1110.3681640625
28, 0, 0, 1120.373657226562
29, 0, 0, 1133.866333007812
30, 0, 0, 1132.05224609375
31, 0, 0, 1141.167236328125
32, 0, 0, 1140.438720703125
33, 0, 0, 1148.087890625
34, 0, 0, 1167.300170898438
35, 0, 0, 1166.830200195312
36, 0, 0, 1174.195434570312
37, 0, 0, 1185.377075195312
38, 0, 0, 1188.476318359375
39, 0, 0, 1195.556884765625
40, 0, 0, 1203.093627929688
41, 0, 0, 1216.156616210938
42, 0, 0, 1217.5302734375
43, 0, 0, 1235.032470703125
44, 0, 0, 1241.757934570312
45, 0, 0, 1250.517333984375
46, 0, 0, 1258.519653320312
47, 0, 0, 1262.411499023438
48, 0, 0, 1280.65087890625
49, 0, 0, 1291.52734375
50, 0, 0, 1299.841064453125
51, 0, 0, 1304.806030273438
52, 0, 0, 1322.150024414062
53, 0, 0, 1334.386840820312
54, 0, 0, 1347.389526367188
55, 0, 0, 1346.743530273438
56, 0, 0, 1375.813354492188
57, 0, 0, 1379.503051757812
58, 0, 0, 1386.409912109375
59, 0, 0, 1404.109741210938
60, 0, 0, 1419.767822265625
61, 0, 0, 1441.590209960938
62, 0, 0, 1455.579711914062
63, 0, 0, 1473.016479492188
64, 0, 0, 1478.278442382812
65, 0, 0, 1502.038452148438
66, 0, 0, 1520.9208984375
67, 0, 0, 1540.112182617188
68, 0, 0, 1562.257690429688
69, 0, 0, 1592.878295898438
70, 0, 0, 1597.090698242188
71, 0, 0, 1625.671142578125
72, 0, 0, 1648.842651367188
73, 0, 0, 1668.494018554688
74, 0, 0, 1699.827270507812
75, 0, 0, 1724.10498046875
76, 0, 0, 1758.111572265625
77, 0, 0, 1798.960205078125
78, 0, 0, 1819.452270507812
79, 0, 0, 1861.50146484375
80, 0, 0, 1904.881958007812
81, 0, 0, 1944.062622070312
82, 0, 0, 1985.86767578125
83, 0, 0, 2032.383911132812
84, 0, 0, 2087.907958984375
85, 0, 0, 2151.404052734375
86, 0, 0, 2208.677734375
87, 0, 0, 2282.38330078125
88, 0, 0, 2358.67919921875
89, 0, 0, 2449.08544921875
90, 0, 0, 2554.52197265625
91, 0, 0, 2676.041259765625
92, 0, 0, 2809.8720703125
93, 0, 0, 2989.901123046875
94, 0, 0, 3207.165771484375
95, 0, 0, 3492.23583984375
96, 0, 0, 3905.346435546875
97, 0, 0, 4402.56640625
98, 0, 0, 5094.58984375
99, 0, 0, 5471.22705078125
100, 0, 0, 5190.142578125
101, 0, 0, 3946.84375
102, 0, 0, 2493.260009765625
103, 0, 0, 1099.64501953125
104, 0, 0, 338.058837890625
105, 0, 0, 105.5778350830078
106, 0, 0, 46.97824859619141
107, 0, 0, 56.65568923950195
108, 0, 0, 44.17914199829102
109, 0, 0, 15.56539440155029
110, 0, 0, 18.10914039611816
111, 0, 0, 23.81645202636719
112, 0, 0, 26.40970039367676
113, 0, 0, 15.74822807312012
114, 0, 0, 6.043414115905762
115, 0, 0, 5.301867008209229
116, 0, 0, 7.691296100616455
117, 0, 0, 8.929006576538086
118, 0, 0, 0
119, 0, 0, 0
120, 0, 0, 0
121, 0, 0, 0
122, 0, 0, 0
123, 0, 0, 0
124, 0, 0, 0
125, 0, 0, 0
126, 0, 0, 0
127, 0, 0, 0
128, 0, 0, 0
129, 0, 0, 0
130, 0, 0, 0
131, 0, 0, 0
132, 0, 0, 0
133, 0, 0, 0
134, 0, 0, 0
135, 0, 0, 0
136, 0, 0, 0
137, 0, 0, 0
138, 0, 0, 0
139, 0, 0, 0
140, 0, 0, 0
141, 0, 0, 0
142, 0, 0, 0
143, 0, 0, 0
144, 0, 0, 0
145, 0, 0, 0
146, 0, 0, 0
147, 0, 0, 0
148, 0, 0, 0
149, 0, 0, 0
150, 0, 0, 0
151, 0, 0, 0
152, 0, 0, 0
153, 0, 0, 0
154, 0, 0, 0
155, 0, 0, 0
156, 0, 0, 0
157, 0, 0, 0
158, 0, 0, 0
159, 0, 0, 0
160, 0, 0, 0
161, 0, 0, 0
162, 0, 0, 0
163, 0, 0, 0
164, 0, 0, 0
