# TOPAS Version: 3.3.p1
# Parameter File: Simple_Pattern.txt
# Results for scorer MLIC_Scorer
# Scored in component: MLIC
# X in 180 bins of 0.222222 cm
# Y in 1 bin  of 10 cm
# Z in 1 bin  of 10 cm
# EnergyDeposit ( MeV ) : Sum   
0, 0, 0, 1077.145263671875
1, 0, 0, 1079.812255859375
2, 0, 0, 1092.72021484375
3, 0, 0, 1099.852661132812
4, 0, 0, 1107.760131835938
5, 0, 0, 1103.529907226562
6, 0, 0, 1111.923095703125
7, 0, 0, 1130.618408203125
8, 0, 0, 1124.158569335938
9, 0, 0, 1133.534545898438
10, 0, 0, 1134.26611328125
11, 0, 0, 1141.441772460938
12, 0, 0, 1142.200927734375
13, 0, 0, 1158.041381835938
14, 0, 0, 1159.590576171875
15, 0, 0, 1154.734008789062
16, 0, 0, 1176.750854492188
17, 0, 0, 1189.397094726562
18, 0, 0, 1189.602294921875
19, 0, 0, 1192.018310546875
20, 0, 0, 1191.529174804688
21, 0, 0, 1203.506958007812
22, 0, 0, 1204.041015625
23, 0, 0, 1214.990356445312
24, 0, 0, 1217.07666015625
25, 0, 0, 1231.443237304688
26, 0, 0, 1232.789672851562
27, 0, 0, 1241.928955078125
28, 0, 0, 1250.737182617188
29, 0, 0, 1262.713500976562
30, 0, 0, 1264.12646484375
31, 0, 0, 1280.398681640625
32, 0, 0, 1292.16748046875
33, 0, 0, 1293.300048828125
34, 0, 0, 1306.047729492188
35, 0, 0, 1311.11328125
36, 0, 0, 1318.278442382812
37, 0, 0, 1331.520385742188
38, 0, 0, 1339.390625
39, 0, 0, 1361.620971679688
40, 0, 0, 1362.624267578125
41, 0, 0, 1373.479370117188
42, 0, 0, 1390.574096679688
43, 0, 0, 1399.834106445312
44, 0, 0, 1403.478149414062
45, 0, 0, 1411.322875976562
46, 0, 0, 1428.46435546875
47, 0, 0, 1443.165405273438
48, 0, 0, 1454.397705078125
49, 0, 0, 1481.15576171875
50, 0, 0, 1484.45556640625
51, 0, 0, 1493.439575195312
52, 0, 0, 1508.820434570312
53, 0, 0, 1527.471435546875
54, 0, 0, 1547.148803710938
55, 0, 0, 1565.669311523438
56, 0, 0, 1582.857299804688
57, 0, 0, 1597.022827148438
58, 0, 0, 1608.752197265625
59, 0, 0, 1632.408935546875
60, 0, 0, 1667.128784179688
61, 0, 0, 1678.991088867188
62, 0, 0, 1704.261108398438
63, 0, 0, 1726.386108398438
64, 0, 0, 1757.374755859375
65, 0, 0, 1777.957153320312
66, 0, 0, 1810.421020507812
67, 0, 0, 1834.87646484375
68, 0, 0, 1877.781982421875
69, 0, 0, 1912.748779296875
70, 0, 0, 1939.268188476562
71, 0, 0, 1975.903564453125
72, 0, 0, 2010.880126953125
73, 0, 0, 2057.698974609375
74, 0, 0, 2110.980712890625
75, 0, 0, 2157.105224609375
76, 0, 0, 2217.676513671875
77, 0, 0, 2281.7568359375
78, 0, 0, 2345.029296875
79, 0, 0, 2411.56494140625
80, 0, 0, 2506.75537109375
81, 0, 0, 2595.178955078125
82, 0, 0, 2701.759521484375
83, 0, 0, 2831.69189453125
84, 0, 0, 2974.576904296875
85, 0, 0, 3150.77001953125
86, 0, 0, 3377.236328125
87, 0, 0, 3659.56494140625
88, 0, 0, 4072.94091796875
89, 0, 0, 4697.22509765625
90, 0, 0, 5551.16015625
91, 0, 0, 6261.9208984375
92, 0, 0, 5959.8115234375
93, 0, 0, 4323.84765625
94, 0, 0, 2147.989501953125
95, 0, 0, 612.8101196289062
96, 0, 0, 114.5650100708008
97, 0, 0, 14.65550708770752
98, 0, 0, 0
99, 0, 0, 0
100, 0, 0, 0
101, 0, 0, 0
102, 0, 0, 0.02210063859820366
103, 0, 0, 0
104, 0, 0, 0
105, 0, 0, 0
106, 0, 0, 0
107, 0, 0, 0
108, 0, 0, 0
109, 0, 0, 0
110, 0, 0, 0
111, 0, 0, 0.006974950432777405
112, 0, 0, 0
113, 0, 0, 0
114, 0, 0, 0
115, 0, 0, 0
116, 0, 0, 0
117, 0, 0, 0
118, 0, 0, 0
119, 0, 0, 0
120, 0, 0, 0
121, 0, 0, 0
122, 0, 0, 0
123, 0, 0, 0
124, 0, 0, 0
125, 0, 0, 0
126, 0, 0, 0
127, 0, 0, 0
128, 0, 0, 0
129, 0, 0, 0
130, 0, 0, 0
131, 0, 0, 0
132, 0, 0, 0
133, 0, 0, 0
134, 0, 0, 0
135, 0, 0, 0
136, 0, 0, 0
137, 0, 0, 0
138, 0, 0, 0
139, 0, 0, 0
140, 0, 0, 0
141, 0, 0, 0
142, 0, 0, 0
143, 0, 0, 0
144, 0, 0, 0
145, 0, 0, 0
146, 0, 0, 0
147, 0, 0, 0
148, 0, 0, 0
149, 0, 0, 0
150, 0, 0, 0
151, 0, 0, 0
152, 0, 0, 0
153, 0, 0, 0
154, 0, 0, 0
155, 0, 0, 0
156, 0, 0, 0
157, 0, 0, 0
158, 0, 0, 0
159, 0, 0, 0
160, 0, 0, 0
161, 0, 0, 0
162, 0, 0, 0
163, 0, 0, 0
164, 0, 0, 0
165, 0, 0, 0
166, 0, 0, 0
167, 0, 0, 0
168, 0, 0, 0
169, 0, 0, 0
170, 0, 0, 0
171, 0, 0, 0
172, 0, 0, 0
173, 0, 0, 0
174, 0, 0, 0
175, 0, 0, 0
176, 0, 0, 0
177, 0, 0, 0
178, 0, 0, 0
179, 0, 0, 0
