# TOPAS Version: 3.3.p1
# Parameter File: Simple_Pattern.txt
# Results for scorer MLIC_Scorer
# Scored in component: MLIC
# X in 180 bins of 0.222222 cm
# Y in 1 bin  of 10 cm
# Z in 1 bin  of 10 cm
# EnergyDeposit ( MeV ) : Sum   
0, 0, 0, 38.86341857910156
1, 0, 0, 38.01515197753906
2, 0, 0, 37.23415374755859
3, 0, 0, 37.1451530456543
4, 0, 0, 39.51143646240234
5, 0, 0, 38.13045883178711
6, 0, 0, 38.96941375732422
7, 0, 0, 38.68669128417969
8, 0, 0, 37.81301116943359
9, 0, 0, 40.12575149536133
10, 0, 0, 38.85332489013672
11, 0, 0, 38.80202484130859
12, 0, 0, 40.82942962646484
13, 0, 0, 39.1335563659668
14, 0, 0, 40.52550888061523
15, 0, 0, 39.57192611694336
16, 0, 0, 40.18895721435547
17, 0, 0, 41.02602386474609
18, 0, 0, 40.83859634399414
19, 0, 0, 41.72898483276367
20, 0, 0, 42.60286331176758
21, 0, 0, 42.19418334960938
22, 0, 0, 42.90220260620117
23, 0, 0, 40.94840621948242
24, 0, 0, 42.89343643188477
25, 0, 0, 42.98901748657227
26, 0, 0, 43.05780410766602
27, 0, 0, 42.51311111450195
28, 0, 0, 42.65380477905273
29, 0, 0, 41.76484298706055
30, 0, 0, 42.56107330322266
31, 0, 0, 43.76979064941406
32, 0, 0, 43.53193283081055
33, 0, 0, 42.31431579589844
34, 0, 0, 44.79386138916016
35, 0, 0, 46.40307235717773
36, 0, 0, 43.96920776367188
37, 0, 0, 46.41866683959961
38, 0, 0, 44.93651580810547
39, 0, 0, 44.91899490356445
40, 0, 0, 46.77506256103516
41, 0, 0, 46.95895385742188
42, 0, 0, 47.15804672241211
43, 0, 0, 46.85364532470703
44, 0, 0, 48.81233978271484
45, 0, 0, 48.88478469848633
46, 0, 0, 49.25276947021484
47, 0, 0, 50.0127067565918
48, 0, 0, 48.94824981689453
49, 0, 0, 51.22835922241211
50, 0, 0, 49.44465255737305
51, 0, 0, 50.97152328491211
52, 0, 0, 49.90781402587891
53, 0, 0, 51.53190994262695
54, 0, 0, 51.17432022094727
55, 0, 0, 51.12493896484375
56, 0, 0, 51.1052131652832
57, 0, 0, 52.99393081665039
58, 0, 0, 54.13570404052734
59, 0, 0, 53.21381759643555
60, 0, 0, 54.64577102661133
61, 0, 0, 52.91095733642578
62, 0, 0, 53.09929656982422
63, 0, 0, 53.39631652832031
64, 0, 0, 52.58396148681641
65, 0, 0, 52.87385940551758
66, 0, 0, 55.407470703125
67, 0, 0, 56.43026733398438
68, 0, 0, 56.95046615600586
69, 0, 0, 56.13614273071289
70, 0, 0, 58.0009880065918
71, 0, 0, 58.53440475463867
72, 0, 0, 60.80305099487305
73, 0, 0, 62.18402862548828
74, 0, 0, 61.71712493896484
75, 0, 0, 65.24054718017578
76, 0, 0, 65.540283203125
77, 0, 0, 65.61042022705078
78, 0, 0, 67.57602691650391
79, 0, 0, 69.40791320800781
80, 0, 0, 73.436767578125
81, 0, 0, 72.91184997558594
82, 0, 0, 74.89424896240234
83, 0, 0, 78.63614654541016
84, 0, 0, 83.47643280029297
85, 0, 0, 87.81237030029297
86, 0, 0, 94.38386535644531
87, 0, 0, 103.8156509399414
88, 0, 0, 117.2964706420898
89, 0, 0, 121.7459564208984
90, 0, 0, 135.6795959472656
91, 0, 0, 152.1620941162109
92, 0, 0, 163.1700439453125
93, 0, 0, 174.1176147460938
94, 0, 0, 76.21060943603516
95, 0, 0, 29.97493171691895
96, 0, 0, 0
97, 0, 0, 0
98, 0, 0, 0
99, 0, 0, 0
100, 0, 0, 0
101, 0, 0, 0
102, 0, 0, 0
103, 0, 0, 0
104, 0, 0, 0
105, 0, 0, 0
106, 0, 0, 0
107, 0, 0, 0
108, 0, 0, 0
109, 0, 0, 0
110, 0, 0, 0
111, 0, 0, 0
112, 0, 0, 0
113, 0, 0, 0
114, 0, 0, 0
115, 0, 0, 0
116, 0, 0, 0
117, 0, 0, 0
118, 0, 0, 0
119, 0, 0, 0
120, 0, 0, 0
121, 0, 0, 0
122, 0, 0, 0
123, 0, 0, 0
124, 0, 0, 0
125, 0, 0, 0
126, 0, 0, 0
127, 0, 0, 0
128, 0, 0, 0
129, 0, 0, 0
130, 0, 0, 0
131, 0, 0, 0
132, 0, 0, 0
133, 0, 0, 0
134, 0, 0, 0
135, 0, 0, 0
136, 0, 0, 0
137, 0, 0, 0
138, 0, 0, 0
139, 0, 0, 0
140, 0, 0, 0
141, 0, 0, 0
142, 0, 0, 0
143, 0, 0, 0
144, 0, 0, 0
145, 0, 0, 0
146, 0, 0, 0
147, 0, 0, 0
148, 0, 0, 0
149, 0, 0, 0
150, 0, 0, 0
151, 0, 0, 0
152, 0, 0, 0
153, 0, 0, 0
154, 0, 0, 0
155, 0, 0, 0
156, 0, 0, 0
157, 0, 0, 0
158, 0, 0, 0
159, 0, 0, 0
160, 0, 0, 0
161, 0, 0, 0
162, 0, 0, 0
163, 0, 0, 0
164, 0, 0, 0
165, 0, 0, 0
166, 0, 0, 0
167, 0, 0, 0
168, 0, 0, 0
169, 0, 0, 0
170, 0, 0, 0
171, 0, 0, 0
172, 0, 0, 0
173, 0, 0, 0
174, 0, 0, 0
175, 0, 0, 0
176, 0, 0, 0
177, 0, 0, 0
178, 0, 0, 0
179, 0, 0, 0
