# TOPAS Version: 3.3.p1
# Parameter File: Simple_Pattern.txt
# Results for scorer MLIC_Scorer
# Scored in component: MLIC
# X in 165 bins of 0.2 cm
# Y in 1 bin  of 10 cm
# Z in 1 bin  of 10 cm
# EnergyDeposit ( MeV ) : Sum   
0, 0, 0, 938.7935180664062
1, 0, 0, 937.979248046875
2, 0, 0, 936.8997192382812
3, 0, 0, 946.6790771484375
4, 0, 0, 948.894775390625
5, 0, 0, 952.5809326171875
6, 0, 0, 957.2070922851562
7, 0, 0, 952.8916625976562
8, 0, 0, 971.786865234375
9, 0, 0, 965.7049560546875
10, 0, 0, 965.2637329101562
11, 0, 0, 980.5687255859375
12, 0, 0, 970.100830078125
13, 0, 0, 980.8255004882812
14, 0, 0, 990.6730346679688
15, 0, 0, 988.2931518554688
16, 0, 0, 1001.138305664062
17, 0, 0, 998.6034545898438
18, 0, 0, 995.66650390625
19, 0, 0, 997.9755249023438
20, 0, 0, 1005.696716308594
21, 0, 0, 1009.513061523438
22, 0, 0, 1014.290283203125
23, 0, 0, 1015.793884277344
24, 0, 0, 1027.505859375
25, 0, 0, 1033.813842773438
26, 0, 0, 1034.7890625
27, 0, 0, 1040.355712890625
28, 0, 0, 1041.8427734375
29, 0, 0, 1045.136474609375
30, 0, 0, 1051.909057617188
31, 0, 0, 1054.094482421875
32, 0, 0, 1064.010620117188
33, 0, 0, 1067.873657226562
34, 0, 0, 1076.075317382812
35, 0, 0, 1085.621704101562
36, 0, 0, 1085.120239257812
37, 0, 0, 1085.713623046875
38, 0, 0, 1096.402587890625
39, 0, 0, 1101.365234375
40, 0, 0, 1111.88427734375
41, 0, 0, 1115.505615234375
42, 0, 0, 1121.3388671875
43, 0, 0, 1124.685424804688
44, 0, 0, 1129.507568359375
45, 0, 0, 1139.081665039062
46, 0, 0, 1141.9013671875
47, 0, 0, 1147.878784179688
48, 0, 0, 1160.775146484375
49, 0, 0, 1164.756591796875
50, 0, 0, 1169.273071289062
51, 0, 0, 1181.077514648438
52, 0, 0, 1190.861450195312
53, 0, 0, 1196.78515625
54, 0, 0, 1196.862426757812
55, 0, 0, 1210.351196289062
56, 0, 0, 1220.51611328125
57, 0, 0, 1220.884887695312
58, 0, 0, 1228.701171875
59, 0, 0, 1238.05078125
60, 0, 0, 1251.42333984375
61, 0, 0, 1260.337768554688
62, 0, 0, 1267.50341796875
63, 0, 0, 1274.38623046875
64, 0, 0, 1290.653930664062
65, 0, 0, 1292.028564453125
66, 0, 0, 1313.128662109375
67, 0, 0, 1321.705932617188
68, 0, 0, 1331.830810546875
69, 0, 0, 1345.890991210938
70, 0, 0, 1349.93115234375
71, 0, 0, 1373.736450195312
72, 0, 0, 1379.14306640625
73, 0, 0, 1398.551635742188
74, 0, 0, 1404.467041015625
75, 0, 0, 1427.517211914062
76, 0, 0, 1439.717895507812
77, 0, 0, 1453.685302734375
78, 0, 0, 1462.42041015625
79, 0, 0, 1488.126220703125
80, 0, 0, 1505.646362304688
81, 0, 0, 1518.334350585938
82, 0, 0, 1547.834594726562
83, 0, 0, 1568.436767578125
84, 0, 0, 1581.991943359375
85, 0, 0, 1596.654541015625
86, 0, 0, 1629.08154296875
87, 0, 0, 1649.816528320312
88, 0, 0, 1678.817260742188
89, 0, 0, 1709.306030273438
90, 0, 0, 1726.563598632812
91, 0, 0, 1752.097900390625
92, 0, 0, 1793.905395507812
93, 0, 0, 1830.9697265625
94, 0, 0, 1862.154174804688
95, 0, 0, 1906.9345703125
96, 0, 0, 1944.305053710938
97, 0, 0, 1989.099731445312
98, 0, 0, 2028.769775390625
99, 0, 0, 2098.640625
100, 0, 0, 2148.639892578125
101, 0, 0, 2217.951171875
102, 0, 0, 2277.457763671875
103, 0, 0, 2359.8408203125
104, 0, 0, 2455.797119140625
105, 0, 0, 2561.391845703125
106, 0, 0, 2697.23193359375
107, 0, 0, 2851.881591796875
108, 0, 0, 3042.38330078125
109, 0, 0, 3277.007568359375
110, 0, 0, 3611.447998046875
111, 0, 0, 4109.619140625
112, 0, 0, 4722.84765625
113, 0, 0, 5217.79443359375
114, 0, 0, 5176.83935546875
115, 0, 0, 4295.041015625
116, 0, 0, 3170.761962890625
117, 0, 0, 1489.425048828125
118, 0, 0, 505.2259521484375
119, 0, 0, 131.0845794677734
120, 0, 0, 17.92580986022949
121, 0, 0, 0.02374571748077869
122, 0, 0, 0
123, 0, 0, 0
124, 0, 0, 0
125, 0, 0, 0
126, 0, 0, 0
127, 0, 0, 0
128, 0, 0, 0
129, 0, 0, 0
130, 0, 0, 0
131, 0, 0, 0
132, 0, 0, 0
133, 0, 0, 0
134, 0, 0, 0
135, 0, 0, 0
136, 0, 0, 0
137, 0, 0, 0
138, 0, 0, 0
139, 0, 0, 0
140, 0, 0, 0
141, 0, 0, 0
142, 0, 0, 0
143, 0, 0, 0.01726298406720161
144, 0, 0, 0
145, 0, 0, 0
146, 0, 0, 0
147, 0, 0, 0
148, 0, 0, 0
149, 0, 0, 0
150, 0, 0, 0
151, 0, 0, 0
152, 0, 0, 0
153, 0, 0, 0
154, 0, 0, 0
155, 0, 0, 0
156, 0, 0, 0.05469825491309166
157, 0, 0, 0
158, 0, 0, 0
159, 0, 0, 0
160, 0, 0, 0
161, 0, 0, 0
162, 0, 0, 0
163, 0, 0, 0
164, 0, 0, 0
