# TOPAS Version: 3.3.p1
# Parameter File: Simple_Pattern.txt
# Results for scorer MLIC_Scorer
# Scored in component: MLIC
# X in 180 bins of 0.222222 cm
# Y in 1 bin  of 10 cm
# Z in 1 bin  of 10 cm
# EnergyDeposit ( MeV ) : Sum   
0, 0, 0, 48.70195770263672
1, 0, 0, 46.99509048461914
2, 0, 0, 49.03736114501953
3, 0, 0, 50.53651428222656
4, 0, 0, 49.78062438964844
5, 0, 0, 50.18602752685547
6, 0, 0, 51.0540885925293
7, 0, 0, 48.88409042358398
8, 0, 0, 49.39424133300781
9, 0, 0, 50.59850311279297
10, 0, 0, 49.70385360717773
11, 0, 0, 51.45874404907227
12, 0, 0, 50.15652465820312
13, 0, 0, 50.85069274902344
14, 0, 0, 51.40081024169922
15, 0, 0, 51.91180419921875
16, 0, 0, 51.40082931518555
17, 0, 0, 51.82600784301758
18, 0, 0, 54.39117431640625
19, 0, 0, 52.82909774780273
20, 0, 0, 54.11855316162109
21, 0, 0, 53.35590362548828
22, 0, 0, 54.90457916259766
23, 0, 0, 53.19161605834961
24, 0, 0, 55.65636444091797
25, 0, 0, 54.00137329101562
26, 0, 0, 54.85541915893555
27, 0, 0, 55.48143005371094
28, 0, 0, 56.26598358154297
29, 0, 0, 57.20941925048828
30, 0, 0, 56.77064895629883
31, 0, 0, 58.34913635253906
32, 0, 0, 58.10763931274414
33, 0, 0, 58.61038589477539
34, 0, 0, 57.86053085327148
35, 0, 0, 60.6766471862793
36, 0, 0, 57.75883102416992
37, 0, 0, 60.19078063964844
38, 0, 0, 59.46958923339844
39, 0, 0, 60.73800277709961
40, 0, 0, 62.59827423095703
41, 0, 0, 60.1837158203125
42, 0, 0, 62.14156723022461
43, 0, 0, 63.47594451904297
44, 0, 0, 63.29487228393555
45, 0, 0, 65.16001892089844
46, 0, 0, 66.07936859130859
47, 0, 0, 65.99533081054688
48, 0, 0, 66.00075531005859
49, 0, 0, 65.81033325195312
50, 0, 0, 65.46360778808594
51, 0, 0, 68.01162719726562
52, 0, 0, 66.96074676513672
53, 0, 0, 68.70254516601562
54, 0, 0, 70.55303192138672
55, 0, 0, 70.69123077392578
56, 0, 0, 70.46864318847656
57, 0, 0, 71.55690765380859
58, 0, 0, 73.29410552978516
59, 0, 0, 74.09456634521484
60, 0, 0, 75.04901885986328
61, 0, 0, 74.30943298339844
62, 0, 0, 77.10265350341797
63, 0, 0, 78.86063385009766
64, 0, 0, 79.27000427246094
65, 0, 0, 80.17967987060547
66, 0, 0, 82.13971710205078
67, 0, 0, 81.98188781738281
68, 0, 0, 85.75074005126953
69, 0, 0, 84.95166778564453
70, 0, 0, 86.59910583496094
71, 0, 0, 89.52623748779297
72, 0, 0, 90.38259887695312
73, 0, 0, 93.64613342285156
74, 0, 0, 94.95909881591797
75, 0, 0, 98.38814544677734
76, 0, 0, 98.26145935058594
77, 0, 0, 102.7684173583984
78, 0, 0, 105.0698699951172
79, 0, 0, 107.8315353393555
80, 0, 0, 110.9497375488281
81, 0, 0, 116.7104721069336
82, 0, 0, 122.0025253295898
83, 0, 0, 128.1665191650391
84, 0, 0, 134.3938140869141
85, 0, 0, 143.4927978515625
86, 0, 0, 152.3374938964844
87, 0, 0, 166.1840057373047
88, 0, 0, 186.9092864990234
89, 0, 0, 205.9164581298828
90, 0, 0, 237.0785217285156
91, 0, 0, 266.5046997070312
92, 0, 0, 276.2575988769531
93, 0, 0, 193.2037506103516
94, 0, 0, 95.59447479248047
95, 0, 0, 35.66825866699219
96, 0, 0, 0
97, 0, 0, 0
98, 0, 0, 0
99, 0, 0, 0
100, 0, 0, 0
101, 0, 0, 0
102, 0, 0, 0
103, 0, 0, 0
104, 0, 0, 0
105, 0, 0, 0
106, 0, 0, 0
107, 0, 0, 0
108, 0, 0, 0
109, 0, 0, 0
110, 0, 0, 0
111, 0, 0, 0
112, 0, 0, 0
113, 0, 0, 0
114, 0, 0, 0
115, 0, 0, 0
116, 0, 0, 0
117, 0, 0, 0
118, 0, 0, 0
119, 0, 0, 0
120, 0, 0, 0
121, 0, 0, 0
122, 0, 0, 0
123, 0, 0, 0
124, 0, 0, 0
125, 0, 0, 0
126, 0, 0, 0
127, 0, 0, 0
128, 0, 0, 0
129, 0, 0, 0
130, 0, 0, 0
131, 0, 0, 0
132, 0, 0, 0
133, 0, 0, 0
134, 0, 0, 0
135, 0, 0, 0
136, 0, 0, 0
137, 0, 0, 0
138, 0, 0, 0
139, 0, 0, 0
140, 0, 0, 0
141, 0, 0, 0
142, 0, 0, 0
143, 0, 0, 0
144, 0, 0, 0
145, 0, 0, 0
146, 0, 0, 0
147, 0, 0, 0
148, 0, 0, 0
149, 0, 0, 0
150, 0, 0, 0
151, 0, 0, 0
152, 0, 0, 0
153, 0, 0, 0
154, 0, 0, 0
155, 0, 0, 0
156, 0, 0, 0
157, 0, 0, 0
158, 0, 0, 0
159, 0, 0, 0
160, 0, 0, 0
161, 0, 0, 0
162, 0, 0, 0
163, 0, 0, 0
164, 0, 0, 0
165, 0, 0, 0
166, 0, 0, 0
167, 0, 0, 0
168, 0, 0, 0
169, 0, 0, 0
170, 0, 0, 0
171, 0, 0, 0
172, 0, 0, 0
173, 0, 0, 0
174, 0, 0, 0
175, 0, 0, 0
176, 0, 0, 0
177, 0, 0, 0
178, 0, 0, 0
179, 0, 0, 0
