# TOPAS Version: 3.3.p1
# Parameter File: Simple_Pattern.txt
# Results for scorer MLIC_Scorer
# Scored in component: MLIC
# X in 180 bins of 0.222222 cm
# Y in 1 bin  of 10 cm
# Z in 1 bin  of 10 cm
# EnergyDeposit ( MeV ) : Sum   
0, 0, 0, 1148.707885742188
1, 0, 0, 1165.5322265625
2, 0, 0, 1171.259033203125
3, 0, 0, 1167.395874023438
4, 0, 0, 1177.668212890625
5, 0, 0, 1181.828857421875
6, 0, 0, 1187.223999023438
7, 0, 0, 1188.758544921875
8, 0, 0, 1201.178588867188
9, 0, 0, 1220.65966796875
10, 0, 0, 1212.571533203125
11, 0, 0, 1212.955810546875
12, 0, 0, 1236.0009765625
13, 0, 0, 1230.25439453125
14, 0, 0, 1245.934692382812
15, 0, 0, 1254.762329101562
16, 0, 0, 1259.402954101562
17, 0, 0, 1261.393920898438
18, 0, 0, 1274.51513671875
19, 0, 0, 1283.988403320312
20, 0, 0, 1293.556274414062
21, 0, 0, 1301.75048828125
22, 0, 0, 1303.8642578125
23, 0, 0, 1313.562255859375
24, 0, 0, 1325.120727539062
25, 0, 0, 1337.327880859375
26, 0, 0, 1345.598876953125
27, 0, 0, 1354.790405273438
28, 0, 0, 1364.814697265625
29, 0, 0, 1374.730834960938
30, 0, 0, 1389.996826171875
31, 0, 0, 1397.746704101562
32, 0, 0, 1415.865844726562
33, 0, 0, 1427.599365234375
34, 0, 0, 1433.34912109375
35, 0, 0, 1449.576171875
36, 0, 0, 1459.627563476562
37, 0, 0, 1474.80078125
38, 0, 0, 1490.379516601562
39, 0, 0, 1509.51123046875
40, 0, 0, 1528.886352539062
41, 0, 0, 1536.02392578125
42, 0, 0, 1558.122192382812
43, 0, 0, 1579.891357421875
44, 0, 0, 1588.985473632812
45, 0, 0, 1613.3994140625
46, 0, 0, 1631.58447265625
47, 0, 0, 1648.99853515625
48, 0, 0, 1677.98046875
49, 0, 0, 1709.915283203125
50, 0, 0, 1725.864135742188
51, 0, 0, 1745.154052734375
52, 0, 0, 1774.570556640625
53, 0, 0, 1795.770385742188
54, 0, 0, 1830.633422851562
55, 0, 0, 1865.728515625
56, 0, 0, 1895.54541015625
57, 0, 0, 1924.122802734375
58, 0, 0, 1965.502075195312
59, 0, 0, 2018.626342773438
60, 0, 0, 2048.441162109375
61, 0, 0, 2107.3076171875
62, 0, 0, 2159.087158203125
63, 0, 0, 2202.34619140625
64, 0, 0, 2264.341796875
65, 0, 0, 2331.773681640625
66, 0, 0, 2402.896240234375
67, 0, 0, 2489.3720703125
68, 0, 0, 2584.03173828125
69, 0, 0, 2688.970947265625
70, 0, 0, 2801.722900390625
71, 0, 0, 2950.374755859375
72, 0, 0, 3116.6142578125
73, 0, 0, 3336.030517578125
74, 0, 0, 3608.84423828125
75, 0, 0, 3975.74072265625
76, 0, 0, 4573.31591796875
77, 0, 0, 5377.25830078125
78, 0, 0, 6112.0625
79, 0, 0, 6138.06982421875
80, 0, 0, 4633.55322265625
81, 0, 0, 2467.694091796875
82, 0, 0, 848.4661865234375
83, 0, 0, 253.8989410400391
84, 0, 0, 84.73942565917969
85, 0, 0, 92.57927703857422
86, 0, 0, 62.67158508300781
87, 0, 0, 55.69329452514648
88, 0, 0, 69.56277465820312
89, 0, 0, 61.45261383056641
90, 0, 0, 55.00118255615234
91, 0, 0, 55.91525268554688
92, 0, 0, 46.65007400512695
93, 0, 0, 32.99729156494141
94, 0, 0, 0
95, 0, 0, 0
96, 0, 0, 0
97, 0, 0, 0
98, 0, 0, 0
99, 0, 0, 0
100, 0, 0, 0
101, 0, 0, 0
102, 0, 0, 0
103, 0, 0, 0
104, 0, 0, 0
105, 0, 0, 0
106, 0, 0, 0
107, 0, 0, 0
108, 0, 0, 0
109, 0, 0, 0
110, 0, 0, 0
111, 0, 0, 0
112, 0, 0, 0
113, 0, 0, 0
114, 0, 0, 0
115, 0, 0, 0
116, 0, 0, 0
117, 0, 0, 0
118, 0, 0, 0
119, 0, 0, 0
120, 0, 0, 0
121, 0, 0, 0
122, 0, 0, 0
123, 0, 0, 0
124, 0, 0, 0
125, 0, 0, 0
126, 0, 0, 0
127, 0, 0, 0
128, 0, 0, 0
129, 0, 0, 0
130, 0, 0, 0
131, 0, 0, 0
132, 0, 0, 0
133, 0, 0, 0
134, 0, 0, 0
135, 0, 0, 0
136, 0, 0, 0
137, 0, 0, 0
138, 0, 0, 0
139, 0, 0, 0
140, 0, 0, 0
141, 0, 0, 0
142, 0, 0, 0
143, 0, 0, 0
144, 0, 0, 0
145, 0, 0, 0
146, 0, 0, 0
147, 0, 0, 0
148, 0, 0, 0
149, 0, 0, 0
150, 0, 0, 0
151, 0, 0, 0
152, 0, 0, 0
153, 0, 0, 0
154, 0, 0, 0
155, 0, 0, 0
156, 0, 0, 0
157, 0, 0, 0
158, 0, 0, 0
159, 0, 0, 0
160, 0, 0, 0
161, 0, 0, 0
162, 0, 0, 0
163, 0, 0, 0
164, 0, 0, 0
165, 0, 0, 0
166, 0, 0, 0
167, 0, 0, 0
168, 0, 0, 0
169, 0, 0, 0
170, 0, 0, 0
171, 0, 0, 0
172, 0, 0, 0
173, 0, 0, 0
174, 0, 0, 0
175, 0, 0, 0
176, 0, 0, 0
177, 0, 0, 0
178, 0, 0, 0
179, 0, 0, 0
