# TOPAS Version: 3.3.p1
# Parameter File: Simple_Pattern.txt
# Results for scorer MLIC_Scorer
# Scored in component: MLIC
# X in 165 bins of 0.2 cm
# Y in 1 bin  of 10 cm
# Z in 1 bin  of 10 cm
# EnergyDeposit ( MeV ) : Sum   
0, 0, 0, 940.4288330078125
1, 0, 0, 952.3104858398438
2, 0, 0, 946.8805541992188
3, 0, 0, 943.9262084960938
4, 0, 0, 953.8496704101562
5, 0, 0, 954.9183349609375
6, 0, 0, 952.675048828125
7, 0, 0, 967.99853515625
8, 0, 0, 960.3939208984375
9, 0, 0, 965.5108642578125
10, 0, 0, 969.1260986328125
11, 0, 0, 975.0579833984375
12, 0, 0, 988.8322143554688
13, 0, 0, 980.6102294921875
14, 0, 0, 996.647705078125
15, 0, 0, 991.2913208007812
16, 0, 0, 992.9331665039062
17, 0, 0, 997.6032104492188
18, 0, 0, 996.2467651367188
19, 0, 0, 1005.220397949219
20, 0, 0, 998.9400634765625
21, 0, 0, 1016.250427246094
22, 0, 0, 1025.283203125
23, 0, 0, 1024.606079101562
24, 0, 0, 1026.349975585938
25, 0, 0, 1021.593200683594
26, 0, 0, 1031.5927734375
27, 0, 0, 1037.791015625
28, 0, 0, 1043.616821289062
29, 0, 0, 1049.587890625
30, 0, 0, 1050.109741210938
31, 0, 0, 1055.759033203125
32, 0, 0, 1060.640747070312
33, 0, 0, 1067.170288085938
34, 0, 0, 1073.767944335938
35, 0, 0, 1080.656372070312
36, 0, 0, 1095.334228515625
37, 0, 0, 1090.943237304688
38, 0, 0, 1095.600219726562
39, 0, 0, 1104.066284179688
40, 0, 0, 1108.675170898438
41, 0, 0, 1115.765014648438
42, 0, 0, 1118.351684570312
43, 0, 0, 1120.014282226562
44, 0, 0, 1132.647827148438
45, 0, 0, 1132.016357421875
46, 0, 0, 1140.01611328125
47, 0, 0, 1149.43603515625
48, 0, 0, 1156.82666015625
49, 0, 0, 1165.832397460938
50, 0, 0, 1170.729858398438
51, 0, 0, 1185.434326171875
52, 0, 0, 1185.380126953125
53, 0, 0, 1193.305419921875
54, 0, 0, 1205.137451171875
55, 0, 0, 1204.966674804688
56, 0, 0, 1214.7880859375
57, 0, 0, 1225.760009765625
58, 0, 0, 1233.936279296875
59, 0, 0, 1236.917114257812
60, 0, 0, 1255.589233398438
61, 0, 0, 1271.813598632812
62, 0, 0, 1267.080322265625
63, 0, 0, 1284.33056640625
64, 0, 0, 1288.830078125
65, 0, 0, 1303.954345703125
66, 0, 0, 1321.77197265625
67, 0, 0, 1330.515502929688
68, 0, 0, 1333.802612304688
69, 0, 0, 1349.1787109375
70, 0, 0, 1362.711181640625
71, 0, 0, 1369.9599609375
72, 0, 0, 1388.167114257812
73, 0, 0, 1401.116821289062
74, 0, 0, 1414.183227539062
75, 0, 0, 1422.769775390625
76, 0, 0, 1445.845947265625
77, 0, 0, 1462.246826171875
78, 0, 0, 1472.602294921875
79, 0, 0, 1489.246948242188
80, 0, 0, 1515.716796875
81, 0, 0, 1522.652099609375
82, 0, 0, 1548.403564453125
83, 0, 0, 1578.935180664062
84, 0, 0, 1598.105224609375
85, 0, 0, 1610.254638671875
86, 0, 0, 1633.797607421875
87, 0, 0, 1660.421875
88, 0, 0, 1685.514404296875
89, 0, 0, 1719.14306640625
90, 0, 0, 1746.36572265625
91, 0, 0, 1764.615112304688
92, 0, 0, 1808.350463867188
93, 0, 0, 1831.156860351562
94, 0, 0, 1879.254028320312
95, 0, 0, 1916.645751953125
96, 0, 0, 1956.4873046875
97, 0, 0, 1998.17529296875
98, 0, 0, 2051.699951171875
99, 0, 0, 2114.388916015625
100, 0, 0, 2176.433837890625
101, 0, 0, 2240.970703125
102, 0, 0, 2310.925048828125
103, 0, 0, 2401.556884765625
104, 0, 0, 2490.84228515625
105, 0, 0, 2600.73486328125
106, 0, 0, 2722.72412109375
107, 0, 0, 2878.826171875
108, 0, 0, 3082.142578125
109, 0, 0, 3326.974609375
110, 0, 0, 3704.17919921875
111, 0, 0, 4203.140625
112, 0, 0, 4650.12939453125
113, 0, 0, 5144.47021484375
114, 0, 0, 5245.75927734375
115, 0, 0, 4378.9873046875
116, 0, 0, 2837.897216796875
117, 0, 0, 1541.082641601562
118, 0, 0, 567.5771484375
119, 0, 0, 108.5136184692383
120, 0, 0, 22.61950492858887
121, 0, 0, 0
122, 0, 0, 0
123, 0, 0, 0
124, 0, 0, 0
125, 0, 0, 0
126, 0, 0, 0
127, 0, 0, 0
128, 0, 0, 0
129, 0, 0, 0
130, 0, 0, 0
131, 0, 0, 0
132, 0, 0, 0
133, 0, 0, 0
134, 0, 0, 0
135, 0, 0, 0
136, 0, 0, 0
137, 0, 0, 0
138, 0, 0, 0
139, 0, 0, 0
140, 0, 0, 0.01822405867278576
141, 0, 0, 0
142, 0, 0, 0
143, 0, 0, 0
144, 0, 0, 0
145, 0, 0, 0
146, 0, 0, 0
147, 0, 0, 0
148, 0, 0, 0
149, 0, 0, 0
150, 0, 0, 0
151, 0, 0, 0
152, 0, 0, 0.004257476422935724
153, 0, 0, 0
154, 0, 0, 0
155, 0, 0, 0
156, 0, 0, 0
157, 0, 0, 0
158, 0, 0, 0.04277588799595833
159, 0, 0, 0
160, 0, 0, 0
161, 0, 0, 0
162, 0, 0, 0
163, 0, 0, 0
164, 0, 0, 0
