# TOPAS Version: 3.3.p1
# Parameter File: Simple_Pattern.txt
# Results for scorer MLIC_Scorer
# Scored in component: MLIC
# X in 180 bins of 0.222222 cm
# Y in 1 bin  of 10 cm
# Z in 1 bin  of 10 cm
# EnergyDeposit ( MeV ) : Sum   
0, 0, 0, 98.01943969726562
1, 0, 0, 96.1556396484375
2, 0, 0, 97.26476287841797
3, 0, 0, 96.65141296386719
4, 0, 0, 100.0227432250977
5, 0, 0, 99.84175109863281
6, 0, 0, 102.682373046875
7, 0, 0, 104.4673156738281
8, 0, 0, 98.45415496826172
9, 0, 0, 103.2467269897461
10, 0, 0, 102.2789459228516
11, 0, 0, 104.6474838256836
12, 0, 0, 104.199951171875
13, 0, 0, 106.217903137207
14, 0, 0, 105.5075836181641
15, 0, 0, 105.8126220703125
16, 0, 0, 106.7520141601562
17, 0, 0, 106.1164321899414
18, 0, 0, 104.7646179199219
19, 0, 0, 106.5669937133789
20, 0, 0, 110.2538146972656
21, 0, 0, 107.1064834594727
22, 0, 0, 110.7077865600586
23, 0, 0, 111.8008041381836
24, 0, 0, 110.0780334472656
25, 0, 0, 110.396858215332
26, 0, 0, 112.574333190918
27, 0, 0, 115.6012344360352
28, 0, 0, 112.4916534423828
29, 0, 0, 113.694694519043
30, 0, 0, 112.8025894165039
31, 0, 0, 116.6460494995117
32, 0, 0, 114.7768020629883
33, 0, 0, 116.2710647583008
34, 0, 0, 118.6963882446289
35, 0, 0, 119.3797149658203
36, 0, 0, 117.2602691650391
37, 0, 0, 120.732421875
38, 0, 0, 120.7360000610352
39, 0, 0, 121.7591323852539
40, 0, 0, 122.9094696044922
41, 0, 0, 124.9436950683594
42, 0, 0, 124.4255523681641
43, 0, 0, 129.0160980224609
44, 0, 0, 128.3331298828125
45, 0, 0, 127.7848358154297
46, 0, 0, 130.3348388671875
47, 0, 0, 131.6574096679688
48, 0, 0, 131.4720306396484
49, 0, 0, 133.5738220214844
50, 0, 0, 134.5784759521484
51, 0, 0, 136.0588836669922
52, 0, 0, 137.6853179931641
53, 0, 0, 141.797607421875
54, 0, 0, 141.7617034912109
55, 0, 0, 143.9673919677734
56, 0, 0, 141.3984222412109
57, 0, 0, 146.31494140625
58, 0, 0, 147.5713348388672
59, 0, 0, 149.3197021484375
60, 0, 0, 151.7325592041016
61, 0, 0, 155.2638702392578
62, 0, 0, 156.3759613037109
63, 0, 0, 155.2320098876953
64, 0, 0, 159.8215026855469
65, 0, 0, 165.2192993164062
66, 0, 0, 163.4102172851562
67, 0, 0, 167.7493133544922
68, 0, 0, 171.5365600585938
69, 0, 0, 173.5848083496094
70, 0, 0, 176.4197692871094
71, 0, 0, 177.5496520996094
72, 0, 0, 181.7085113525391
73, 0, 0, 186.2484893798828
74, 0, 0, 190.9151000976562
75, 0, 0, 195.4000091552734
76, 0, 0, 199.3015747070312
77, 0, 0, 204.2358856201172
78, 0, 0, 211.8869323730469
79, 0, 0, 219.9956512451172
80, 0, 0, 226.7577362060547
81, 0, 0, 234.8325805664062
82, 0, 0, 244.9557342529297
83, 0, 0, 257.0065307617188
84, 0, 0, 268.3026428222656
85, 0, 0, 284.0606384277344
86, 0, 0, 302.9936218261719
87, 0, 0, 326.5299072265625
88, 0, 0, 361.8987731933594
89, 0, 0, 408.845458984375
90, 0, 0, 491.4156188964844
91, 0, 0, 565.98046875
92, 0, 0, 537.83642578125
93, 0, 0, 462.7579956054688
94, 0, 0, 249.7089996337891
95, 0, 0, 73.84149932861328
96, 0, 0, 16.48441123962402
97, 0, 0, 0
98, 0, 0, 0
99, 0, 0, 0
100, 0, 0, 0
101, 0, 0, 0
102, 0, 0, 0
103, 0, 0, 0
104, 0, 0, 0
105, 0, 0, 0
106, 0, 0, 0
107, 0, 0, 0
108, 0, 0, 0
109, 0, 0, 0
110, 0, 0, 0
111, 0, 0, 0
112, 0, 0, 0
113, 0, 0, 0
114, 0, 0, 0
115, 0, 0, 0
116, 0, 0, 0
117, 0, 0, 0
118, 0, 0, 0
119, 0, 0, 0
120, 0, 0, 0
121, 0, 0, 0
122, 0, 0, 0
123, 0, 0, 0
124, 0, 0, 0
125, 0, 0, 0
126, 0, 0, 0
127, 0, 0, 0
128, 0, 0, 0
129, 0, 0, 0
130, 0, 0, 0
131, 0, 0, 0
132, 0, 0, 0
133, 0, 0, 0
134, 0, 0, 0
135, 0, 0, 0
136, 0, 0, 0
137, 0, 0, 0
138, 0, 0, 0
139, 0, 0, 0
140, 0, 0, 0
141, 0, 0, 0
142, 0, 0, 0
143, 0, 0, 0
144, 0, 0, 0
145, 0, 0, 0
146, 0, 0, 0
147, 0, 0, 0
148, 0, 0, 0
149, 0, 0, 0
150, 0, 0, 0
151, 0, 0, 0
152, 0, 0, 0
153, 0, 0, 0
154, 0, 0, 0
155, 0, 0, 0
156, 0, 0, 0
157, 0, 0, 0
158, 0, 0, 0
159, 0, 0, 0
160, 0, 0, 0
161, 0, 0, 0
162, 0, 0, 0
163, 0, 0, 0
164, 0, 0, 0
165, 0, 0, 0
166, 0, 0, 0
167, 0, 0, 0
168, 0, 0, 0
169, 0, 0, 0
170, 0, 0, 0
171, 0, 0, 0
172, 0, 0, 0
173, 0, 0, 0
174, 0, 0, 0
175, 0, 0, 0
176, 0, 0, 0
177, 0, 0, 0
178, 0, 0, 0
179, 0, 0, 0
