# TOPAS Version: 3.3.p1
# Parameter File: Simple_Pattern.txt
# Results for scorer MLIC_Scorer
# Scored in component: MLIC
# X in 180 bins of 0.222222 cm
# Y in 1 bin  of 10 cm
# Z in 1 bin  of 10 cm
# EnergyDeposit ( MeV ) : Sum   
0, 0, 0, 1089.554809570312
1, 0, 0, 1092.361938476562
2, 0, 0, 1099.009521484375
3, 0, 0, 1102.2998046875
4, 0, 0, 1106.355834960938
5, 0, 0, 1106.796630859375
6, 0, 0, 1107.506958007812
7, 0, 0, 1122.967651367188
8, 0, 0, 1133.620849609375
9, 0, 0, 1134.49609375
10, 0, 0, 1134.810302734375
11, 0, 0, 1131.19091796875
12, 0, 0, 1148.642211914062
13, 0, 0, 1153.1328125
14, 0, 0, 1167.900512695312
15, 0, 0, 1159.544555664062
16, 0, 0, 1173.615112304688
17, 0, 0, 1177.093017578125
18, 0, 0, 1182.970947265625
19, 0, 0, 1191.868774414062
20, 0, 0, 1188.152221679688
21, 0, 0, 1209.713012695312
22, 0, 0, 1209.9658203125
23, 0, 0, 1220.151245117188
24, 0, 0, 1231.614624023438
25, 0, 0, 1231.48095703125
26, 0, 0, 1243.056396484375
27, 0, 0, 1244.925903320312
28, 0, 0, 1251.157348632812
29, 0, 0, 1260.352905273438
30, 0, 0, 1274.531616210938
31, 0, 0, 1283.119995117188
32, 0, 0, 1284.121215820312
33, 0, 0, 1289.404296875
34, 0, 0, 1302.034545898438
35, 0, 0, 1311.678100585938
36, 0, 0, 1322.5810546875
37, 0, 0, 1331.607055664062
38, 0, 0, 1339.800048828125
39, 0, 0, 1342.656982421875
40, 0, 0, 1358.066528320312
41, 0, 0, 1366.76318359375
42, 0, 0, 1377.685424804688
43, 0, 0, 1390.1806640625
44, 0, 0, 1408.908081054688
45, 0, 0, 1411.695434570312
46, 0, 0, 1424.24853515625
47, 0, 0, 1442.62841796875
48, 0, 0, 1452.6865234375
49, 0, 0, 1467.09130859375
50, 0, 0, 1479.309692382812
51, 0, 0, 1504.904418945312
52, 0, 0, 1515.611328125
53, 0, 0, 1524.989868164062
54, 0, 0, 1538.153442382812
55, 0, 0, 1560.45068359375
56, 0, 0, 1571.328735351562
57, 0, 0, 1583.95458984375
58, 0, 0, 1613.151977539062
59, 0, 0, 1630.678100585938
60, 0, 0, 1654.989013671875
61, 0, 0, 1680.215209960938
62, 0, 0, 1706.984985351562
63, 0, 0, 1723.257446289062
64, 0, 0, 1747.128540039062
65, 0, 0, 1771.305297851562
66, 0, 0, 1798.669799804688
67, 0, 0, 1832.482666015625
68, 0, 0, 1853.511352539062
69, 0, 0, 1897.376586914062
70, 0, 0, 1933.710083007812
71, 0, 0, 1969.505859375
72, 0, 0, 2004.508666992188
73, 0, 0, 2044.98388671875
74, 0, 0, 2094.375244140625
75, 0, 0, 2156.5556640625
76, 0, 0, 2193.834716796875
77, 0, 0, 2263.806640625
78, 0, 0, 2335.224365234375
79, 0, 0, 2401.95556640625
80, 0, 0, 2493.336669921875
81, 0, 0, 2584.191162109375
82, 0, 0, 2686.534912109375
83, 0, 0, 2819.616943359375
84, 0, 0, 2959.924072265625
85, 0, 0, 3134.304443359375
86, 0, 0, 3362.19580078125
87, 0, 0, 3627.3037109375
88, 0, 0, 4038.54638671875
89, 0, 0, 4602.259765625
90, 0, 0, 5386.3046875
91, 0, 0, 6125.11083984375
92, 0, 0, 6163.97314453125
93, 0, 0, 4133.619140625
94, 0, 0, 2108.08544921875
95, 0, 0, 853.9301147460938
96, 0, 0, 169.5469512939453
97, 0, 0, 2.863570213317871
98, 0, 0, 0
99, 0, 0, 0
100, 0, 0, 0
101, 0, 0, 0
102, 0, 0, 0
103, 0, 0, 0
104, 0, 0, 0
105, 0, 0, 0
106, 0, 0, 0
107, 0, 0, 0
108, 0, 0, 0
109, 0, 0, 0
110, 0, 0, 0
111, 0, 0, 0
112, 0, 0, 0
113, 0, 0, 0
114, 0, 0, 0
115, 0, 0, 0
116, 0, 0, 0
117, 0, 0, 0
118, 0, 0, 0
119, 0, 0, 0
120, 0, 0, 0
121, 0, 0, 0
122, 0, 0, 0
123, 0, 0, 0
124, 0, 0, 0.004357879515737295
125, 0, 0, 0
126, 0, 0, 0
127, 0, 0, 0
128, 0, 0, 0
129, 0, 0, 0
130, 0, 0, 0
131, 0, 0, 0
132, 0, 0, 0
133, 0, 0, 0
134, 0, 0, 0
135, 0, 0, 0
136, 0, 0, 0
137, 0, 0, 0
138, 0, 0, 0
139, 0, 0, 0
140, 0, 0, 0
141, 0, 0, 0
142, 0, 0, 0
143, 0, 0, 0
144, 0, 0, 0
145, 0, 0, 0
146, 0, 0, 0
147, 0, 0, 0
148, 0, 0, 0
149, 0, 0, 0
150, 0, 0, 0
151, 0, 0, 0
152, 0, 0, 0
153, 0, 0, 0
154, 0, 0, 0
155, 0, 0, 0
156, 0, 0, 0
157, 0, 0, 0
158, 0, 0, 0
159, 0, 0, 0
160, 0, 0, 0
161, 0, 0, 0
162, 0, 0, 0
163, 0, 0, 0
164, 0, 0, 0
165, 0, 0, 0
166, 0, 0, 0
167, 0, 0, 0
168, 0, 0, 0
169, 0, 0, 0
170, 0, 0, 0
171, 0, 0, 0
172, 0, 0, 0
173, 0, 0, 0
174, 0, 0, 0
175, 0, 0, 0
176, 0, 0, 0
177, 0, 0, 0
178, 0, 0, 0
179, 0, 0, 0
