# TOPAS Version: 3.3.p1
# Parameter File: Simple_Pattern.txt
# Results for scorer MLIC_Scorer
# Scored in component: MLIC
# X in 165 bins of 0.2 cm
# Y in 1 bin  of 10 cm
# Z in 1 bin  of 10 cm
# EnergyDeposit ( MeV ) : Sum   
0, 0, 0, 928.1088256835938
1, 0, 0, 939.1741943359375
2, 0, 0, 943.0393676757812
3, 0, 0, 941.6329345703125
4, 0, 0, 954.9312744140625
5, 0, 0, 944.9259643554688
6, 0, 0, 957.6152954101562
7, 0, 0, 964.5675048828125
8, 0, 0, 960.51806640625
9, 0, 0, 969.677490234375
10, 0, 0, 966.3853759765625
11, 0, 0, 973.91943359375
12, 0, 0, 980.3231201171875
13, 0, 0, 983.0449829101562
14, 0, 0, 989.6041259765625
15, 0, 0, 985.7205810546875
16, 0, 0, 995.2343139648438
17, 0, 0, 1000.5185546875
18, 0, 0, 999.4793090820312
19, 0, 0, 1016.339660644531
20, 0, 0, 1007.33837890625
21, 0, 0, 1014.679321289062
22, 0, 0, 1015.896301269531
23, 0, 0, 1014.602722167969
24, 0, 0, 1024.663818359375
25, 0, 0, 1024.795288085938
26, 0, 0, 1030.661376953125
27, 0, 0, 1033.392333984375
28, 0, 0, 1045.077392578125
29, 0, 0, 1047.7216796875
30, 0, 0, 1050.467651367188
31, 0, 0, 1055.520629882812
32, 0, 0, 1064.9375
33, 0, 0, 1072.144409179688
34, 0, 0, 1072.5
35, 0, 0, 1075.559326171875
36, 0, 0, 1072.992431640625
37, 0, 0, 1091.885986328125
38, 0, 0, 1096.0390625
39, 0, 0, 1095.558715820312
40, 0, 0, 1106.798095703125
41, 0, 0, 1114.584594726562
42, 0, 0, 1127.355224609375
43, 0, 0, 1111.727172851562
44, 0, 0, 1133.564208984375
45, 0, 0, 1136.463500976562
46, 0, 0, 1148.308715820312
47, 0, 0, 1145.690307617188
48, 0, 0, 1159.110473632812
49, 0, 0, 1168.406860351562
50, 0, 0, 1171.539794921875
51, 0, 0, 1184.903564453125
52, 0, 0, 1184.5654296875
53, 0, 0, 1202.598510742188
54, 0, 0, 1207.048095703125
55, 0, 0, 1218.80712890625
56, 0, 0, 1220.895141601562
57, 0, 0, 1227.782470703125
58, 0, 0, 1238.335327148438
59, 0, 0, 1241.44140625
60, 0, 0, 1262.265747070312
61, 0, 0, 1263.144409179688
62, 0, 0, 1280.393188476562
63, 0, 0, 1286.86376953125
64, 0, 0, 1294.590942382812
65, 0, 0, 1313.213134765625
66, 0, 0, 1306.143188476562
67, 0, 0, 1323.941162109375
68, 0, 0, 1341.301391601562
69, 0, 0, 1346.1298828125
70, 0, 0, 1367.293334960938
71, 0, 0, 1372.179931640625
72, 0, 0, 1387.919799804688
73, 0, 0, 1409.087768554688
74, 0, 0, 1415.448608398438
75, 0, 0, 1436.353637695312
76, 0, 0, 1445.72216796875
77, 0, 0, 1463.072998046875
78, 0, 0, 1479.851440429688
79, 0, 0, 1492.938232421875
80, 0, 0, 1513.03466796875
81, 0, 0, 1528.851684570312
82, 0, 0, 1553.727783203125
83, 0, 0, 1579.411499023438
84, 0, 0, 1596.683715820312
85, 0, 0, 1617.0576171875
86, 0, 0, 1644.79052734375
87, 0, 0, 1671.095947265625
88, 0, 0, 1691.921508789062
89, 0, 0, 1723.312377929688
90, 0, 0, 1749.241088867188
91, 0, 0, 1781.830078125
92, 0, 0, 1810.38037109375
93, 0, 0, 1843.872680664062
94, 0, 0, 1887.366455078125
95, 0, 0, 1927.548461914062
96, 0, 0, 1968.09619140625
97, 0, 0, 2013.087158203125
98, 0, 0, 2064.864501953125
99, 0, 0, 2123.357666015625
100, 0, 0, 2189.49560546875
101, 0, 0, 2252.989013671875
102, 0, 0, 2330.9072265625
103, 0, 0, 2418.202392578125
104, 0, 0, 2518.556640625
105, 0, 0, 2637.32763671875
106, 0, 0, 2755.196533203125
107, 0, 0, 2923.235107421875
108, 0, 0, 3128.711669921875
109, 0, 0, 3385.261962890625
110, 0, 0, 3764.260009765625
111, 0, 0, 4232.8349609375
112, 0, 0, 4864.24951171875
113, 0, 0, 5245.62158203125
114, 0, 0, 5320.32421875
115, 0, 0, 4665.18017578125
116, 0, 0, 2991.190673828125
117, 0, 0, 1476.5185546875
118, 0, 0, 523.7758178710938
119, 0, 0, 135.6660766601562
120, 0, 0, 5.62515115737915
121, 0, 0, 0
122, 0, 0, 0
123, 0, 0, 0
124, 0, 0, 0.001572801964357495
125, 0, 0, 0
126, 0, 0, 0.02483795583248138
127, 0, 0, 0.0005528626497834921
128, 0, 0, 0
129, 0, 0, 0
130, 0, 0, 0
131, 0, 0, 0
132, 0, 0, 0
133, 0, 0, 0
134, 0, 0, 0
135, 0, 0, 0
136, 0, 0, 0
137, 0, 0, 0
138, 0, 0, 0
139, 0, 0, 0
140, 0, 0, 0
141, 0, 0, 0
142, 0, 0, 0
143, 0, 0, 0
144, 0, 0, 0
145, 0, 0, 0
146, 0, 0, 0
147, 0, 0, 0
148, 0, 0, 0
149, 0, 0, 0
150, 0, 0, 0
151, 0, 0, 0
152, 0, 0, 0
153, 0, 0, 0
154, 0, 0, 0
155, 0, 0, 0
156, 0, 0, 0
157, 0, 0, 0
158, 0, 0, 0
159, 0, 0, 0
160, 0, 0, 0
161, 0, 0, 0
162, 0, 0, 0
163, 0, 0, 0
164, 0, 0, 0
