# TOPAS Version: 3.3.p1
# Parameter File: Simple_Pattern.txt
# Results for scorer MLIC_Scorer
# Scored in component: MLIC
# X in 180 bins of 0.222222 cm
# Y in 1 bin  of 10 cm
# Z in 1 bin  of 10 cm
# EnergyDeposit ( MeV ) : Sum   
0, 0, 0, 88.18986511230469
1, 0, 0, 87.07058715820312
2, 0, 0, 89.97946166992188
3, 0, 0, 87.01240539550781
4, 0, 0, 89.79082489013672
5, 0, 0, 90.13953399658203
6, 0, 0, 91.36112976074219
7, 0, 0, 91.21394348144531
8, 0, 0, 91.90127563476562
9, 0, 0, 90.69402313232422
10, 0, 0, 90.56526947021484
11, 0, 0, 91.12786865234375
12, 0, 0, 96.07472991943359
13, 0, 0, 92.42716979980469
14, 0, 0, 92.91728973388672
15, 0, 0, 95.28727722167969
16, 0, 0, 95.11608123779297
17, 0, 0, 96.41207885742188
18, 0, 0, 93.88335418701172
19, 0, 0, 94.64346313476562
20, 0, 0, 97.53199005126953
21, 0, 0, 95.88803100585938
22, 0, 0, 96.61502838134766
23, 0, 0, 97.62860870361328
24, 0, 0, 98.75305938720703
25, 0, 0, 96.77145385742188
26, 0, 0, 98.40433502197266
27, 0, 0, 102.5173950195312
28, 0, 0, 102.2135467529297
29, 0, 0, 100.9441909790039
30, 0, 0, 102.6787490844727
31, 0, 0, 104.828971862793
32, 0, 0, 104.5814819335938
33, 0, 0, 102.4588928222656
34, 0, 0, 104.0665588378906
35, 0, 0, 106.0239486694336
36, 0, 0, 105.5961685180664
37, 0, 0, 108.5279541015625
38, 0, 0, 109.0133514404297
39, 0, 0, 107.3667602539062
40, 0, 0, 111.4413681030273
41, 0, 0, 109.2878723144531
42, 0, 0, 111.9675827026367
43, 0, 0, 111.640251159668
44, 0, 0, 112.4918746948242
45, 0, 0, 115.7149276733398
46, 0, 0, 114.491325378418
47, 0, 0, 117.4045944213867
48, 0, 0, 116.2441177368164
49, 0, 0, 120.1648025512695
50, 0, 0, 118.8638916015625
51, 0, 0, 120.5355682373047
52, 0, 0, 123.5894241333008
53, 0, 0, 121.7476043701172
54, 0, 0, 123.3479690551758
55, 0, 0, 124.6803131103516
56, 0, 0, 126.659423828125
57, 0, 0, 129.3456573486328
58, 0, 0, 130.1111450195312
59, 0, 0, 132.2239074707031
60, 0, 0, 134.7290191650391
61, 0, 0, 137.4148864746094
62, 0, 0, 137.8941040039062
63, 0, 0, 139.3421478271484
64, 0, 0, 141.1955871582031
65, 0, 0, 142.7742004394531
66, 0, 0, 145.9409637451172
67, 0, 0, 149.175537109375
68, 0, 0, 149.9957885742188
69, 0, 0, 153.2068023681641
70, 0, 0, 156.0952453613281
71, 0, 0, 160.8006744384766
72, 0, 0, 163.0078125
73, 0, 0, 165.6870269775391
74, 0, 0, 170.0131072998047
75, 0, 0, 173.3522186279297
76, 0, 0, 177.5597229003906
77, 0, 0, 184.8466796875
78, 0, 0, 188.6061401367188
79, 0, 0, 194.0745697021484
80, 0, 0, 202.4039001464844
81, 0, 0, 207.9027252197266
82, 0, 0, 218.1637268066406
83, 0, 0, 225.6515808105469
84, 0, 0, 238.4282531738281
85, 0, 0, 250.3747406005859
86, 0, 0, 267.6997985839844
87, 0, 0, 290.6163940429688
88, 0, 0, 320.1086120605469
89, 0, 0, 364.4387817382812
90, 0, 0, 438.0338439941406
91, 0, 0, 487.7178039550781
92, 0, 0, 529.2699584960938
93, 0, 0, 369.9744873046875
94, 0, 0, 242.2328186035156
95, 0, 0, 71.09657287597656
96, 0, 0, 12.21020889282227
97, 0, 0, 0.02701643109321594
98, 0, 0, 0
99, 0, 0, 0
100, 0, 0, 0
101, 0, 0, 0
102, 0, 0, 0
103, 0, 0, 0
104, 0, 0, 0
105, 0, 0, 0.0001102865135180764
106, 0, 0, 0
107, 0, 0, 0
108, 0, 0, 0
109, 0, 0, 0
110, 0, 0, 0
111, 0, 0, 0
112, 0, 0, 0
113, 0, 0, 0
114, 0, 0, 0
115, 0, 0, 0
116, 0, 0, 0
117, 0, 0, 0.03800160065293312
118, 0, 0, 0
119, 0, 0, 0
120, 0, 0, 0.005653638392686844
121, 0, 0, 0
122, 0, 0, 0
123, 0, 0, 0
124, 0, 0, 0
125, 0, 0, 0
126, 0, 0, 0
127, 0, 0, 0
128, 0, 0, 0
129, 0, 0, 0
130, 0, 0, 0
131, 0, 0, 0
132, 0, 0, 0
133, 0, 0, 0
134, 0, 0, 0
135, 0, 0, 0
136, 0, 0, 0
137, 0, 0, 0
138, 0, 0, 0
139, 0, 0, 0
140, 0, 0, 0
141, 0, 0, 0
142, 0, 0, 0
143, 0, 0, 0
144, 0, 0, 0
145, 0, 0, 0
146, 0, 0, 0
147, 0, 0, 0
148, 0, 0, 0
149, 0, 0, 0
150, 0, 0, 0
151, 0, 0, 0
152, 0, 0, 0
153, 0, 0, 0
154, 0, 0, 0
155, 0, 0, 0
156, 0, 0, 0
157, 0, 0, 0
158, 0, 0, 0
159, 0, 0, 0
160, 0, 0, 0
161, 0, 0, 0
162, 0, 0, 0
163, 0, 0, 0
164, 0, 0, 0
165, 0, 0, 0
166, 0, 0, 0
167, 0, 0, 0
168, 0, 0, 0
169, 0, 0, 0
170, 0, 0, 0
171, 0, 0, 0
172, 0, 0, 0
173, 0, 0, 0
174, 0, 0, 0
175, 0, 0, 0
176, 0, 0, 0
177, 0, 0, 0
178, 0, 0, 0
179, 0, 0, 0
