# TOPAS Version: 3.3.p1
# Parameter File: Simple_Pattern.txt
# Results for scorer MLIC_Scorer
# Scored in component: MLIC
# X in 180 bins of 0.222222 cm
# Y in 1 bin  of 10 cm
# Z in 1 bin  of 10 cm
# EnergyDeposit ( MeV ) : Sum   
0, 0, 0, 1120.749145507812
1, 0, 0, 1121.164916992188
2, 0, 0, 1133.665283203125
3, 0, 0, 1141.834106445312
4, 0, 0, 1137.67333984375
5, 0, 0, 1135.746826171875
6, 0, 0, 1146.606689453125
7, 0, 0, 1150.114013671875
8, 0, 0, 1154.905883789062
9, 0, 0, 1170.581787109375
10, 0, 0, 1170.968994140625
11, 0, 0, 1184.0693359375
12, 0, 0, 1189.435546875
13, 0, 0, 1188.436645507812
14, 0, 0, 1195.835205078125
15, 0, 0, 1195.3828125
16, 0, 0, 1209.904541015625
17, 0, 0, 1214.615478515625
18, 0, 0, 1225.96630859375
19, 0, 0, 1225.6533203125
20, 0, 0, 1248.8173828125
21, 0, 0, 1247.495727539062
22, 0, 0, 1255.13916015625
23, 0, 0, 1259.979858398438
24, 0, 0, 1263.951904296875
25, 0, 0, 1283.191528320312
26, 0, 0, 1292.028076171875
27, 0, 0, 1295.678955078125
28, 0, 0, 1302.40966796875
29, 0, 0, 1311.159545898438
30, 0, 0, 1312.984497070312
31, 0, 0, 1333.857666015625
32, 0, 0, 1346.50537109375
33, 0, 0, 1360.97265625
34, 0, 0, 1363.763061523438
35, 0, 0, 1373.560180664062
36, 0, 0, 1379.6494140625
37, 0, 0, 1406.835571289062
38, 0, 0, 1421.704833984375
39, 0, 0, 1419.25732421875
40, 0, 0, 1427.0322265625
41, 0, 0, 1445.6611328125
42, 0, 0, 1460.153198242188
43, 0, 0, 1484.707763671875
44, 0, 0, 1491.461791992188
45, 0, 0, 1502.461669921875
46, 0, 0, 1520.445434570312
47, 0, 0, 1543.248046875
48, 0, 0, 1563.775390625
49, 0, 0, 1573.740600585938
50, 0, 0, 1585.9521484375
51, 0, 0, 1608.201416015625
52, 0, 0, 1634.766357421875
53, 0, 0, 1658.115966796875
54, 0, 0, 1672.85546875
55, 0, 0, 1704.50146484375
56, 0, 0, 1726.942626953125
57, 0, 0, 1758.533447265625
58, 0, 0, 1788.944213867188
59, 0, 0, 1809.441650390625
60, 0, 0, 1846.072875976562
61, 0, 0, 1879.859985351562
62, 0, 0, 1909.46533203125
63, 0, 0, 1943.20556640625
64, 0, 0, 1985.891357421875
65, 0, 0, 2033.993530273438
66, 0, 0, 2077.224365234375
67, 0, 0, 2129.03564453125
68, 0, 0, 2192.034423828125
69, 0, 0, 2261.818359375
70, 0, 0, 2337.48046875
71, 0, 0, 2425.92626953125
72, 0, 0, 2516.385498046875
73, 0, 0, 2642.84912109375
74, 0, 0, 2790.165771484375
75, 0, 0, 2998.432373046875
76, 0, 0, 3283.30419921875
77, 0, 0, 3639.885498046875
78, 0, 0, 4017.361083984375
79, 0, 0, 4127.4130859375
80, 0, 0, 3552.482421875
81, 0, 0, 2671.73974609375
82, 0, 0, 2014.013061523438
83, 0, 0, 1691.420166015625
84, 0, 0, 1688.90478515625
85, 0, 0, 1790.426635742188
86, 0, 0, 1865.252197265625
87, 0, 0, 2004.355102539062
88, 0, 0, 2190.981201171875
89, 0, 0, 2464.259521484375
90, 0, 0, 2897.681396484375
91, 0, 0, 3369.5341796875
92, 0, 0, 3081.219970703125
93, 0, 0, 2308.090576171875
94, 0, 0, 1146.208129882812
95, 0, 0, 317.5134887695312
96, 0, 0, 73.59148406982422
97, 0, 0, 0
98, 0, 0, 0
99, 0, 0, 0
100, 0, 0, 0
101, 0, 0, 0
102, 0, 0, 0
103, 0, 0, 0
104, 0, 0, 0
105, 0, 0, 0
106, 0, 0, 0
107, 0, 0, 0
108, 0, 0, 0
109, 0, 0, 0
110, 0, 0, 0
111, 0, 0, 0
112, 0, 0, 0
113, 0, 0, 0
114, 0, 0, 0
115, 0, 0, 0
116, 0, 0, 0
117, 0, 0, 0
118, 0, 0, 0
119, 0, 0, 0
120, 0, 0, 0
121, 0, 0, 0
122, 0, 0, 0
123, 0, 0, 0
124, 0, 0, 0
125, 0, 0, 0
126, 0, 0, 0
127, 0, 0, 0
128, 0, 0, 0
129, 0, 0, 0
130, 0, 0, 0
131, 0, 0, 0
132, 0, 0, 0
133, 0, 0, 0
134, 0, 0, 0
135, 0, 0, 0
136, 0, 0, 0
137, 0, 0, 0
138, 0, 0, 0
139, 0, 0, 0
140, 0, 0, 0
141, 0, 0, 0
142, 0, 0, 0
143, 0, 0, 0
144, 0, 0, 0
145, 0, 0, 0
146, 0, 0, 0
147, 0, 0, 0
148, 0, 0, 0
149, 0, 0, 0
150, 0, 0, 0
151, 0, 0, 0
152, 0, 0, 0
153, 0, 0, 0
154, 0, 0, 0
155, 0, 0, 0
156, 0, 0, 0
157, 0, 0, 0
158, 0, 0, 0
159, 0, 0, 0
160, 0, 0, 0
161, 0, 0, 0
162, 0, 0, 0
163, 0, 0, 0
164, 0, 0, 0
165, 0, 0, 0
166, 0, 0, 0
167, 0, 0, 0
168, 0, 0, 0
169, 0, 0, 0
170, 0, 0, 0
171, 0, 0, 0
172, 0, 0, 0
173, 0, 0, 0
174, 0, 0, 0
175, 0, 0, 0
176, 0, 0, 0
177, 0, 0, 0
178, 0, 0, 0
179, 0, 0, 0
