# TOPAS Version: 3.3.p1
# Parameter File: Simple_Pattern.txt
# Results for scorer MLIC_Scorer
# Scored in component: MLIC
# X in 180 bins of 0.222222 cm
# Y in 1 bin  of 10 cm
# Z in 1 bin  of 10 cm
# EnergyDeposit ( MeV ) : Sum   
0, 0, 0, 51.6967658996582
1, 0, 0, 53.77713775634766
2, 0, 0, 55.20570373535156
3, 0, 0, 54.60153579711914
4, 0, 0, 53.32069396972656
5, 0, 0, 51.53557586669922
6, 0, 0, 54.45886611938477
7, 0, 0, 53.37700271606445
8, 0, 0, 54.29465484619141
9, 0, 0, 54.00471115112305
10, 0, 0, 56.84613418579102
11, 0, 0, 56.41501235961914
12, 0, 0, 55.60868453979492
13, 0, 0, 54.44241714477539
14, 0, 0, 57.88026809692383
15, 0, 0, 58.36183547973633
16, 0, 0, 57.49291229248047
17, 0, 0, 56.59611511230469
18, 0, 0, 56.75086975097656
19, 0, 0, 59.19092178344727
20, 0, 0, 59.49657440185547
21, 0, 0, 60.32848739624023
22, 0, 0, 58.56564331054688
23, 0, 0, 59.2972412109375
24, 0, 0, 60.66205215454102
25, 0, 0, 60.79945373535156
26, 0, 0, 60.55398941040039
27, 0, 0, 62.40829467773438
28, 0, 0, 60.49900054931641
29, 0, 0, 62.75461196899414
30, 0, 0, 61.84275817871094
31, 0, 0, 63.52873992919922
32, 0, 0, 63.93402481079102
33, 0, 0, 64.87876892089844
34, 0, 0, 66.40921020507812
35, 0, 0, 65.852294921875
36, 0, 0, 66.56396484375
37, 0, 0, 66.48423767089844
38, 0, 0, 66.97583770751953
39, 0, 0, 67.23149871826172
40, 0, 0, 67.79604339599609
41, 0, 0, 69.17327117919922
42, 0, 0, 69.54610443115234
43, 0, 0, 70.82957458496094
44, 0, 0, 70.09814453125
45, 0, 0, 70.90538024902344
46, 0, 0, 70.54638671875
47, 0, 0, 73.27904510498047
48, 0, 0, 74.98139953613281
49, 0, 0, 73.99018859863281
50, 0, 0, 76.66898345947266
51, 0, 0, 79.46723937988281
52, 0, 0, 78.40971374511719
53, 0, 0, 78.51533508300781
54, 0, 0, 81.40776824951172
55, 0, 0, 81.08876037597656
56, 0, 0, 82.42062377929688
57, 0, 0, 84.37035369873047
58, 0, 0, 85.45942687988281
59, 0, 0, 84.64138031005859
60, 0, 0, 89.00125885009766
61, 0, 0, 89.86455535888672
62, 0, 0, 91.79308319091797
63, 0, 0, 93.68709564208984
64, 0, 0, 95.29818725585938
65, 0, 0, 97.76770782470703
66, 0, 0, 98.83718109130859
67, 0, 0, 101.5310440063477
68, 0, 0, 106.9470977783203
69, 0, 0, 109.6428375244141
70, 0, 0, 114.9828186035156
71, 0, 0, 116.4356384277344
72, 0, 0, 124.5931930541992
73, 0, 0, 127.8104248046875
74, 0, 0, 138.6608581542969
75, 0, 0, 147.2017669677734
76, 0, 0, 163.1388092041016
77, 0, 0, 195.1234741210938
78, 0, 0, 197.250732421875
79, 0, 0, 203.1815643310547
80, 0, 0, 160.5182800292969
81, 0, 0, 107.7762603759766
82, 0, 0, 104.4801177978516
83, 0, 0, 70.73326110839844
84, 0, 0, 66.16754913330078
85, 0, 0, 70.29820251464844
86, 0, 0, 75.39340209960938
87, 0, 0, 82.27767181396484
88, 0, 0, 91.90047454833984
89, 0, 0, 103.4932632446289
90, 0, 0, 117.1547546386719
91, 0, 0, 137.3841705322266
92, 0, 0, 130.8361206054688
93, 0, 0, 95.96259307861328
94, 0, 0, 42.39726257324219
95, 0, 0, 15.31009197235107
96, 0, 0, 0
97, 0, 0, 0
98, 0, 0, 0
99, 0, 0, 0
100, 0, 0, 0
101, 0, 0, 0
102, 0, 0, 0
103, 0, 0, 0
104, 0, 0, 0
105, 0, 0, 0
106, 0, 0, 0
107, 0, 0, 0
108, 0, 0, 0
109, 0, 0, 0
110, 0, 0, 0
111, 0, 0, 0
112, 0, 0, 0
113, 0, 0, 0
114, 0, 0, 0
115, 0, 0, 0
116, 0, 0, 0
117, 0, 0, 0
118, 0, 0, 0
119, 0, 0, 0
120, 0, 0, 0
121, 0, 0, 0
122, 0, 0, 0
123, 0, 0, 0
124, 0, 0, 0
125, 0, 0, 0
126, 0, 0, 0
127, 0, 0, 0
128, 0, 0, 0
129, 0, 0, 0
130, 0, 0, 0
131, 0, 0, 0
132, 0, 0, 0
133, 0, 0, 0
134, 0, 0, 0
135, 0, 0, 0
136, 0, 0, 0
137, 0, 0, 0
138, 0, 0, 0
139, 0, 0, 0
140, 0, 0, 0
141, 0, 0, 0
142, 0, 0, 0
143, 0, 0, 0
144, 0, 0, 0
145, 0, 0, 0
146, 0, 0, 0
147, 0, 0, 0
148, 0, 0, 0
149, 0, 0, 0
150, 0, 0, 0
151, 0, 0, 0
152, 0, 0, 0
153, 0, 0, 0
154, 0, 0, 0
155, 0, 0, 0
156, 0, 0, 0
157, 0, 0, 0
158, 0, 0, 0
159, 0, 0, 0
160, 0, 0, 0
161, 0, 0, 0
162, 0, 0, 0
163, 0, 0, 0
164, 0, 0, 0
165, 0, 0, 0
166, 0, 0, 0
167, 0, 0, 0
168, 0, 0, 0
169, 0, 0, 0
170, 0, 0, 0
171, 0, 0, 0
172, 0, 0, 0
173, 0, 0, 0
174, 0, 0, 0
175, 0, 0, 0
176, 0, 0, 0
177, 0, 0, 0
178, 0, 0, 0
179, 0, 0, 0
