# TOPAS Version: 3.3.p1
# Parameter File: Simple_Pattern.txt
# Results for scorer MLIC_Scorer
# Scored in component: MLIC
# X in 180 bins of 0.222222 cm
# Y in 1 bin  of 10 cm
# Z in 1 bin  of 10 cm
# EnergyDeposit ( MeV ) : Sum   
0, 0, 0, 1086.679077148438
1, 0, 0, 1094.2197265625
2, 0, 0, 1092.509399414062
3, 0, 0, 1106.671997070312
4, 0, 0, 1111.717895507812
5, 0, 0, 1100.983642578125
6, 0, 0, 1111.587036132812
7, 0, 0, 1123.4619140625
8, 0, 0, 1126.952758789062
9, 0, 0, 1134.456909179688
10, 0, 0, 1145.635986328125
11, 0, 0, 1136.197631835938
12, 0, 0, 1143.769287109375
13, 0, 0, 1157.972290039062
14, 0, 0, 1160.748413085938
15, 0, 0, 1161.365234375
16, 0, 0, 1166.852905273438
17, 0, 0, 1178.297485351562
18, 0, 0, 1187.308959960938
19, 0, 0, 1189.304321289062
20, 0, 0, 1197.281494140625
21, 0, 0, 1201.83935546875
22, 0, 0, 1208.232299804688
23, 0, 0, 1213.824340820312
24, 0, 0, 1219.938598632812
25, 0, 0, 1231.989501953125
26, 0, 0, 1238.064575195312
27, 0, 0, 1247.775512695312
28, 0, 0, 1251.038330078125
29, 0, 0, 1264.67626953125
30, 0, 0, 1274.34423828125
31, 0, 0, 1270.735961914062
32, 0, 0, 1280.187866210938
33, 0, 0, 1292.099609375
34, 0, 0, 1305.092529296875
35, 0, 0, 1320.845458984375
36, 0, 0, 1322.929321289062
37, 0, 0, 1335.259887695312
38, 0, 0, 1340.889892578125
39, 0, 0, 1356.345947265625
40, 0, 0, 1355.08837890625
41, 0, 0, 1371.52197265625
42, 0, 0, 1381.4052734375
43, 0, 0, 1393.251098632812
44, 0, 0, 1412.928100585938
45, 0, 0, 1420.79052734375
46, 0, 0, 1423.801391601562
47, 0, 0, 1442.852905273438
48, 0, 0, 1454.58056640625
49, 0, 0, 1468.881591796875
50, 0, 0, 1486.600219726562
51, 0, 0, 1489.321166992188
52, 0, 0, 1520.009033203125
53, 0, 0, 1528.312622070312
54, 0, 0, 1537.26318359375
55, 0, 0, 1563.396484375
56, 0, 0, 1576.2509765625
57, 0, 0, 1601.620483398438
58, 0, 0, 1625.672607421875
59, 0, 0, 1644.119018554688
60, 0, 0, 1666.8076171875
61, 0, 0, 1675.468994140625
62, 0, 0, 1695.522094726562
63, 0, 0, 1731.4091796875
64, 0, 0, 1757.332153320312
65, 0, 0, 1784.914794921875
66, 0, 0, 1805.33837890625
67, 0, 0, 1836.409057617188
68, 0, 0, 1871.518676757812
69, 0, 0, 1905.6357421875
70, 0, 0, 1942.25732421875
71, 0, 0, 1980.712524414062
72, 0, 0, 2018.7119140625
73, 0, 0, 2070.150146484375
74, 0, 0, 2110.629638671875
75, 0, 0, 2161.77197265625
76, 0, 0, 2214.664306640625
77, 0, 0, 2274.1884765625
78, 0, 0, 2352.267578125
79, 0, 0, 2434.90625
80, 0, 0, 2501.28125
81, 0, 0, 2606.83984375
82, 0, 0, 2717.459716796875
83, 0, 0, 2838.650390625
84, 0, 0, 2986.681640625
85, 0, 0, 3164.993408203125
86, 0, 0, 3394.552001953125
87, 0, 0, 3690.69580078125
88, 0, 0, 4133.564453125
89, 0, 0, 4656.3359375
90, 0, 0, 5447.4599609375
91, 0, 0, 6164.5869140625
92, 0, 0, 5974.3203125
93, 0, 0, 4522.525390625
94, 0, 0, 2171.77197265625
95, 0, 0, 528.9088134765625
96, 0, 0, 116.2316741943359
97, 0, 0, 19.35749816894531
98, 0, 0, 0.001164809567853808
99, 0, 0, 0.01913677901029587
100, 0, 0, 0
101, 0, 0, 0
102, 0, 0, 0
103, 0, 0, 0
104, 0, 0, 0.00318159069865942
105, 0, 0, 0
106, 0, 0, 0
107, 0, 0, 0
108, 0, 0, 0
109, 0, 0, 0
110, 0, 0, 0
111, 0, 0, 0
112, 0, 0, 0
113, 0, 0, 0
114, 0, 0, 0
115, 0, 0, 0
116, 0, 0, 0
117, 0, 0, 0
118, 0, 0, 0
119, 0, 0, 0
120, 0, 0, 0
121, 0, 0, 0
122, 0, 0, 0
123, 0, 0, 0
124, 0, 0, 0
125, 0, 0, 0
126, 0, 0, 0
127, 0, 0, 0
128, 0, 0, 0
129, 0, 0, 0
130, 0, 0, 0
131, 0, 0, 0
132, 0, 0, 0
133, 0, 0, 0
134, 0, 0, 0
135, 0, 0, 0
136, 0, 0, 0
137, 0, 0, 0
138, 0, 0, 0
139, 0, 0, 0
140, 0, 0, 0
141, 0, 0, 0
142, 0, 0, 0
143, 0, 0, 0
144, 0, 0, 0
145, 0, 0, 0
146, 0, 0, 0
147, 0, 0, 0
148, 0, 0, 0
149, 0, 0, 0
150, 0, 0, 0
151, 0, 0, 0
152, 0, 0, 0
153, 0, 0, 0
154, 0, 0, 0
155, 0, 0, 0
156, 0, 0, 0
157, 0, 0, 0
158, 0, 0, 0
159, 0, 0, 0
160, 0, 0, 0
161, 0, 0, 0
162, 0, 0, 0
163, 0, 0, 0
164, 0, 0, 0
165, 0, 0, 0
166, 0, 0, 0
167, 0, 0, 0
168, 0, 0, 0
169, 0, 0, 0
170, 0, 0, 0
171, 0, 0, 0
172, 0, 0, 0
173, 0, 0, 0
174, 0, 0, 0
175, 0, 0, 0
176, 0, 0, 0
177, 0, 0, 0
178, 0, 0, 0
179, 0, 0, 0
