# TOPAS Version: 3.3.p1
# Parameter File: Simple_Pattern.txt
# Results for scorer MLIC_Scorer
# Scored in component: MLIC
# X in 180 bins of 0.222222 cm
# Y in 1 bin  of 10 cm
# Z in 1 bin  of 10 cm
# EnergyDeposit ( MeV ) : Sum   
0, 0, 0, 28.0023193359375
1, 0, 0, 26.40418243408203
2, 0, 0, 27.14907264709473
3, 0, 0, 28.43755531311035
4, 0, 0, 27.8297233581543
5, 0, 0, 28.02243804931641
6, 0, 0, 27.93209648132324
7, 0, 0, 29.24678611755371
8, 0, 0, 28.61658096313477
9, 0, 0, 27.78422737121582
10, 0, 0, 28.60675621032715
11, 0, 0, 26.72829437255859
12, 0, 0, 28.59571266174316
13, 0, 0, 28.25224685668945
14, 0, 0, 30.25875663757324
15, 0, 0, 29.23637771606445
16, 0, 0, 28.66584777832031
17, 0, 0, 28.8440055847168
18, 0, 0, 28.5560188293457
19, 0, 0, 28.03351974487305
20, 0, 0, 27.6894416809082
21, 0, 0, 27.35542488098145
22, 0, 0, 28.4919490814209
23, 0, 0, 28.90670585632324
24, 0, 0, 28.78106880187988
25, 0, 0, 28.7267951965332
26, 0, 0, 29.45656204223633
27, 0, 0, 29.61626434326172
28, 0, 0, 29.62045478820801
29, 0, 0, 30.83746528625488
30, 0, 0, 30.85437202453613
31, 0, 0, 31.17087173461914
32, 0, 0, 30.65753746032715
33, 0, 0, 30.57176208496094
34, 0, 0, 30.11185264587402
35, 0, 0, 31.86825942993164
36, 0, 0, 32.38541030883789
37, 0, 0, 33.7915153503418
38, 0, 0, 30.87423324584961
39, 0, 0, 32.83168792724609
40, 0, 0, 32.33350372314453
41, 0, 0, 32.11605453491211
42, 0, 0, 33.1501350402832
43, 0, 0, 32.73989486694336
44, 0, 0, 31.56254768371582
45, 0, 0, 32.033203125
46, 0, 0, 32.79685211181641
47, 0, 0, 31.57441139221191
48, 0, 0, 31.0522575378418
49, 0, 0, 31.45807075500488
50, 0, 0, 32.70281219482422
51, 0, 0, 32.7076301574707
52, 0, 0, 32.9074592590332
53, 0, 0, 33.07848358154297
54, 0, 0, 34.2310791015625
55, 0, 0, 33.54263305664062
56, 0, 0, 33.58281326293945
57, 0, 0, 36.90617752075195
58, 0, 0, 37.15340423583984
59, 0, 0, 35.12851715087891
60, 0, 0, 35.24364471435547
61, 0, 0, 34.39923095703125
62, 0, 0, 34.29441452026367
63, 0, 0, 33.72987365722656
64, 0, 0, 35.64324569702148
65, 0, 0, 35.37889099121094
66, 0, 0, 34.70275497436523
67, 0, 0, 34.50437164306641
68, 0, 0, 35.37988662719727
69, 0, 0, 35.48114776611328
70, 0, 0, 36.29757690429688
71, 0, 0, 38.16181945800781
72, 0, 0, 38.13601303100586
73, 0, 0, 38.90677261352539
74, 0, 0, 37.98873138427734
75, 0, 0, 37.26369476318359
76, 0, 0, 39.29445648193359
77, 0, 0, 40.74021148681641
78, 0, 0, 39.59894561767578
79, 0, 0, 41.66156005859375
80, 0, 0, 41.98319625854492
81, 0, 0, 44.30603790283203
82, 0, 0, 45.30112457275391
83, 0, 0, 47.00170516967773
84, 0, 0, 49.99966812133789
85, 0, 0, 52.37699890136719
86, 0, 0, 55.06724166870117
87, 0, 0, 59.86154174804688
88, 0, 0, 65.77388763427734
89, 0, 0, 73.11985778808594
90, 0, 0, 83.45665740966797
91, 0, 0, 96.32869720458984
92, 0, 0, 123.9568634033203
93, 0, 0, 95.00376129150391
94, 0, 0, 23.16829490661621
95, 0, 0, 18.45831298828125
96, 0, 0, 0
97, 0, 0, 0
98, 0, 0, 0
99, 0, 0, 0
100, 0, 0, 0
101, 0, 0, 0
102, 0, 0, 0
103, 0, 0, 0
104, 0, 0, 0
105, 0, 0, 0
106, 0, 0, 0
107, 0, 0, 0
108, 0, 0, 0
109, 0, 0, 0
110, 0, 0, 0
111, 0, 0, 0
112, 0, 0, 0
113, 0, 0, 0
114, 0, 0, 0
115, 0, 0, 0
116, 0, 0, 0
117, 0, 0, 0
118, 0, 0, 0
119, 0, 0, 0
120, 0, 0, 0
121, 0, 0, 0
122, 0, 0, 0
123, 0, 0, 0
124, 0, 0, 0
125, 0, 0, 0
126, 0, 0, 0
127, 0, 0, 0
128, 0, 0, 0
129, 0, 0, 0
130, 0, 0, 0
131, 0, 0, 0
132, 0, 0, 0
133, 0, 0, 0
134, 0, 0, 0
135, 0, 0, 0
136, 0, 0, 0
137, 0, 0, 0
138, 0, 0, 0
139, 0, 0, 0
140, 0, 0, 0
141, 0, 0, 0
142, 0, 0, 0
143, 0, 0, 0
144, 0, 0, 0
145, 0, 0, 0
146, 0, 0, 0
147, 0, 0, 0
148, 0, 0, 0
149, 0, 0, 0
150, 0, 0, 0
151, 0, 0, 0
152, 0, 0, 0
153, 0, 0, 0
154, 0, 0, 0
155, 0, 0, 0
156, 0, 0, 0
157, 0, 0, 0
158, 0, 0, 0
159, 0, 0, 0
160, 0, 0, 0
161, 0, 0, 0
162, 0, 0, 0
163, 0, 0, 0
164, 0, 0, 0.01738994009792805
165, 0, 0, 0
166, 0, 0, 0
167, 0, 0, 0
168, 0, 0, 0
169, 0, 0, 0
170, 0, 0, 0
171, 0, 0, 0
172, 0, 0, 0
173, 0, 0, 0
174, 0, 0, 0
175, 0, 0, 0
176, 0, 0, 0
177, 0, 0, 0
178, 0, 0, 0
179, 0, 0, 0
