# TOPAS Version: 3.3.p1
# Parameter File: Simple_Pattern.txt
# Results for scorer MLIC_Scorer
# Scored in component: MLIC
# X in 180 bins of 0.222222 cm
# Y in 1 bin  of 10 cm
# Z in 1 bin  of 10 cm
# EnergyDeposit ( MeV ) : Sum   
0, 0, 0, 1084.78759765625
1, 0, 0, 1090.942260742188
2, 0, 0, 1099.053833007812
3, 0, 0, 1102.895629882812
4, 0, 0, 1104.913208007812
5, 0, 0, 1109.002563476562
6, 0, 0, 1111.036254882812
7, 0, 0, 1117.070556640625
8, 0, 0, 1135.117553710938
9, 0, 0, 1134.299560546875
10, 0, 0, 1147.00830078125
11, 0, 0, 1145.049560546875
12, 0, 0, 1145.645263671875
13, 0, 0, 1158.504150390625
14, 0, 0, 1165.57275390625
15, 0, 0, 1168.432373046875
16, 0, 0, 1167.838134765625
17, 0, 0, 1179.392456054688
18, 0, 0, 1181.02490234375
19, 0, 0, 1199.002563476562
20, 0, 0, 1200.869140625
21, 0, 0, 1204.693237304688
22, 0, 0, 1206.3837890625
23, 0, 0, 1202.527099609375
24, 0, 0, 1226.563354492188
25, 0, 0, 1232.946166992188
26, 0, 0, 1241.125
27, 0, 0, 1242.169067382812
28, 0, 0, 1251.424560546875
29, 0, 0, 1260.888427734375
30, 0, 0, 1276.44775390625
31, 0, 0, 1273.156005859375
32, 0, 0, 1280.21875
33, 0, 0, 1295.199951171875
34, 0, 0, 1295.667724609375
35, 0, 0, 1311.677124023438
36, 0, 0, 1324.380493164062
37, 0, 0, 1328.3251953125
38, 0, 0, 1343.116455078125
39, 0, 0, 1365.010864257812
40, 0, 0, 1365.324096679688
41, 0, 0, 1373.525268554688
42, 0, 0, 1386.672729492188
43, 0, 0, 1382.659912109375
44, 0, 0, 1409.085815429688
45, 0, 0, 1419.784545898438
46, 0, 0, 1429.547485351562
47, 0, 0, 1447.70361328125
48, 0, 0, 1452.073364257812
49, 0, 0, 1462.155151367188
50, 0, 0, 1485.319702148438
51, 0, 0, 1500.036254882812
52, 0, 0, 1511.979858398438
53, 0, 0, 1537.490600585938
54, 0, 0, 1549.151000976562
55, 0, 0, 1563.788696289062
56, 0, 0, 1585.171264648438
57, 0, 0, 1599.508422851562
58, 0, 0, 1622.616088867188
59, 0, 0, 1636.968994140625
60, 0, 0, 1662.89306640625
61, 0, 0, 1677.784545898438
62, 0, 0, 1702.6806640625
63, 0, 0, 1730.484252929688
64, 0, 0, 1756.393188476562
65, 0, 0, 1777.642333984375
66, 0, 0, 1806.730346679688
67, 0, 0, 1838.528198242188
68, 0, 0, 1866.108032226562
69, 0, 0, 1905.36767578125
70, 0, 0, 1931.99951171875
71, 0, 0, 1970.576782226562
72, 0, 0, 2016.674438476562
73, 0, 0, 2055.16552734375
74, 0, 0, 2114.37109375
75, 0, 0, 2159.451171875
76, 0, 0, 2214.8447265625
77, 0, 0, 2272.005126953125
78, 0, 0, 2335.4736328125
79, 0, 0, 2415.78662109375
80, 0, 0, 2498.139892578125
81, 0, 0, 2593.33837890625
82, 0, 0, 2706.425537109375
83, 0, 0, 2816.61865234375
84, 0, 0, 2975.94384765625
85, 0, 0, 3155.862060546875
86, 0, 0, 3376.69677734375
87, 0, 0, 3665.5625
88, 0, 0, 4065.4873046875
89, 0, 0, 4698.4765625
90, 0, 0, 5520.57275390625
91, 0, 0, 6355.205078125
92, 0, 0, 5844.90625
93, 0, 0, 4232.98779296875
94, 0, 0, 2003.622192382812
95, 0, 0, 677.453125
96, 0, 0, 150.4164733886719
97, 0, 0, 3.789646625518799
98, 0, 0, 0
99, 0, 0, 0
100, 0, 0, 0
101, 0, 0, 0
102, 0, 0, 0
103, 0, 0, 0
104, 0, 0, 0.004039826802909374
105, 0, 0, 0
106, 0, 0, 0
107, 0, 0, 0
108, 0, 0, 0
109, 0, 0, 0
110, 0, 0, 0
111, 0, 0, 0.007052872329950333
112, 0, 0, 0
113, 0, 0, 0
114, 0, 0, 0.03421755507588387
115, 0, 0, 0
116, 0, 0, 0
117, 0, 0, 0
118, 0, 0, 0
119, 0, 0, 0
120, 0, 0, 0
121, 0, 0, 0
122, 0, 0, 0
123, 0, 0, 0
124, 0, 0, 0
125, 0, 0, 0
126, 0, 0, 0
127, 0, 0, 0
128, 0, 0, 0
129, 0, 0, 0.05559790134429932
130, 0, 0, 0
131, 0, 0, 0
132, 0, 0, 0
133, 0, 0, 0
134, 0, 0, 0
135, 0, 0, 0
136, 0, 0, 0
137, 0, 0, 0
138, 0, 0, 0
139, 0, 0, 0
140, 0, 0, 0.0301106832921505
141, 0, 0, 0
142, 0, 0, 0
143, 0, 0, 0
144, 0, 0, 0
145, 0, 0, 0
146, 0, 0, 0
147, 0, 0, 0
148, 0, 0, 0
149, 0, 0, 0
150, 0, 0, 0
151, 0, 0, 0
152, 0, 0, 0
153, 0, 0, 0
154, 0, 0, 0
155, 0, 0, 0
156, 0, 0, 0
157, 0, 0, 0
158, 0, 0, 0
159, 0, 0, 0
160, 0, 0, 0
161, 0, 0, 0
162, 0, 0, 0
163, 0, 0, 0
164, 0, 0, 0
165, 0, 0, 0
166, 0, 0, 0
167, 0, 0, 0
168, 0, 0, 0
169, 0, 0, 0
170, 0, 0, 0
171, 0, 0, 0
172, 0, 0, 0
173, 0, 0, 0
174, 0, 0, 0
175, 0, 0, 0
176, 0, 0, 0
177, 0, 0, 0
178, 0, 0, 0
179, 0, 0, 0
