# TOPAS Version: 3.3.p1
# Parameter File: Simple_Pattern.txt
# Results for scorer MLIC_Scorer
# Scored in component: MLIC
# X in 180 bins of 0.222222 cm
# Y in 1 bin  of 10 cm
# Z in 1 bin  of 10 cm
# EnergyDeposit ( MeV ) : Sum   
0, 0, 0, 43.71898651123047
1, 0, 0, 45.18849182128906
2, 0, 0, 43.38153076171875
3, 0, 0, 43.39553070068359
4, 0, 0, 46.35590744018555
5, 0, 0, 43.94918823242188
6, 0, 0, 45.96940994262695
7, 0, 0, 46.03839111328125
8, 0, 0, 47.48904418945312
9, 0, 0, 46.51644134521484
10, 0, 0, 46.02373886108398
11, 0, 0, 47.59104919433594
12, 0, 0, 47.76229095458984
13, 0, 0, 46.45690536499023
14, 0, 0, 47.28412246704102
15, 0, 0, 48.4918098449707
16, 0, 0, 48.03395843505859
17, 0, 0, 48.24235153198242
18, 0, 0, 47.81739044189453
19, 0, 0, 47.59769821166992
20, 0, 0, 48.40467834472656
21, 0, 0, 50.09949493408203
22, 0, 0, 48.744873046875
23, 0, 0, 51.0261116027832
24, 0, 0, 48.32750701904297
25, 0, 0, 50.55227279663086
26, 0, 0, 51.62046813964844
27, 0, 0, 50.57912445068359
28, 0, 0, 50.28173065185547
29, 0, 0, 52.99024200439453
30, 0, 0, 53.1722412109375
31, 0, 0, 50.90249252319336
32, 0, 0, 51.96532440185547
33, 0, 0, 52.68268966674805
34, 0, 0, 52.37201309204102
35, 0, 0, 53.64377212524414
36, 0, 0, 53.19907760620117
37, 0, 0, 54.31183624267578
38, 0, 0, 56.27899932861328
39, 0, 0, 54.52175140380859
40, 0, 0, 55.71862411499023
41, 0, 0, 56.38761901855469
42, 0, 0, 57.51392364501953
43, 0, 0, 58.92132949829102
44, 0, 0, 56.93338775634766
45, 0, 0, 57.74878311157227
46, 0, 0, 58.97594451904297
47, 0, 0, 58.78071212768555
48, 0, 0, 60.69297409057617
49, 0, 0, 60.93804931640625
50, 0, 0, 61.55043029785156
51, 0, 0, 62.3179931640625
52, 0, 0, 61.47470855712891
53, 0, 0, 62.15327072143555
54, 0, 0, 63.31590270996094
55, 0, 0, 64.13921356201172
56, 0, 0, 65.22175598144531
57, 0, 0, 64.46121978759766
58, 0, 0, 67.04015350341797
59, 0, 0, 68.16123962402344
60, 0, 0, 66.86043548583984
61, 0, 0, 69.65619659423828
62, 0, 0, 68.94981384277344
63, 0, 0, 70.82567596435547
64, 0, 0, 72.99638366699219
65, 0, 0, 72.43370819091797
66, 0, 0, 75.00074768066406
67, 0, 0, 76.76359558105469
68, 0, 0, 76.85112762451172
69, 0, 0, 77.83633422851562
70, 0, 0, 78.41571807861328
71, 0, 0, 80.56889343261719
72, 0, 0, 82.62460327148438
73, 0, 0, 86.47303009033203
74, 0, 0, 86.11557769775391
75, 0, 0, 89.49105834960938
76, 0, 0, 90.92408752441406
77, 0, 0, 93.15205383300781
78, 0, 0, 96.92141723632812
79, 0, 0, 100.2453842163086
80, 0, 0, 103.1066665649414
81, 0, 0, 107.1487808227539
82, 0, 0, 111.7083587646484
83, 0, 0, 115.8203353881836
84, 0, 0, 123.2384185791016
85, 0, 0, 129.8512115478516
86, 0, 0, 138.5580291748047
87, 0, 0, 151.2821960449219
88, 0, 0, 170.6083679199219
89, 0, 0, 193.3648223876953
90, 0, 0, 205.6006469726562
91, 0, 0, 250.2728576660156
92, 0, 0, 280.5288696289062
93, 0, 0, 176.6229248046875
94, 0, 0, 77.36772155761719
95, 0, 0, 32.17738342285156
96, 0, 0, 2.542213916778564
97, 0, 0, 0
98, 0, 0, 0
99, 0, 0, 0
100, 0, 0, 0
101, 0, 0, 0
102, 0, 0, 0
103, 0, 0, 0
104, 0, 0, 0
105, 0, 0, 0
106, 0, 0, 0
107, 0, 0, 0
108, 0, 0, 0
109, 0, 0, 0
110, 0, 0, 0
111, 0, 0, 0
112, 0, 0, 0
113, 0, 0, 0
114, 0, 0, 0
115, 0, 0, 0
116, 0, 0, 0
117, 0, 0, 0
118, 0, 0, 0
119, 0, 0, 0
120, 0, 0, 0
121, 0, 0, 0
122, 0, 0, 0
123, 0, 0, 0
124, 0, 0, 0
125, 0, 0, 0
126, 0, 0, 0
127, 0, 0, 0
128, 0, 0, 0
129, 0, 0, 0
130, 0, 0, 0
131, 0, 0, 0
132, 0, 0, 0
133, 0, 0, 0
134, 0, 0, 0
135, 0, 0, 0
136, 0, 0, 0
137, 0, 0, 0
138, 0, 0, 0
139, 0, 0, 0
140, 0, 0, 0
141, 0, 0, 0
142, 0, 0, 0
143, 0, 0, 0
144, 0, 0, 0
145, 0, 0, 0
146, 0, 0, 0
147, 0, 0, 0
148, 0, 0, 0
149, 0, 0, 0
150, 0, 0, 0
151, 0, 0, 0
152, 0, 0, 0
153, 0, 0, 0
154, 0, 0, 0
155, 0, 0, 0
156, 0, 0, 0
157, 0, 0, 0
158, 0, 0, 0
159, 0, 0, 0
160, 0, 0, 0
161, 0, 0, 0
162, 0, 0, 0
163, 0, 0, 0
164, 0, 0, 0
165, 0, 0, 0
166, 0, 0, 0
167, 0, 0, 0
168, 0, 0, 0
169, 0, 0, 0
170, 0, 0, 0
171, 0, 0, 0
172, 0, 0, 0
173, 0, 0, 0
174, 0, 0, 0
175, 0, 0, 0
176, 0, 0, 0
177, 0, 0, 0
178, 0, 0, 0
179, 0, 0, 0
