# TOPAS Version: 3.3.p1
# Parameter File: Simple_Pattern.txt
# Results for scorer MLIC_Scorer
# Scored in component: MLIC
# X in 180 bins of 0.222222 cm
# Y in 1 bin  of 10 cm
# Z in 1 bin  of 10 cm
# EnergyDeposit ( MeV ) : Sum   
0, 0, 0, 1087.010986328125
1, 0, 0, 1092.48876953125
2, 0, 0, 1086.487060546875
3, 0, 0, 1099.419311523438
4, 0, 0, 1100.45068359375
5, 0, 0, 1103.685791015625
6, 0, 0, 1111.586059570312
7, 0, 0, 1111.153564453125
8, 0, 0, 1115.570678710938
9, 0, 0, 1122.731079101562
10, 0, 0, 1132.420532226562
11, 0, 0, 1135.967407226562
12, 0, 0, 1143.549560546875
13, 0, 0, 1142.20947265625
14, 0, 0, 1143.191040039062
15, 0, 0, 1140.429321289062
16, 0, 0, 1153.463745117188
17, 0, 0, 1163.123657226562
18, 0, 0, 1167.132568359375
19, 0, 0, 1163.050048828125
20, 0, 0, 1174.977783203125
21, 0, 0, 1182.140502929688
22, 0, 0, 1186.009033203125
23, 0, 0, 1186.911499023438
24, 0, 0, 1187.813232421875
25, 0, 0, 1205.561401367188
26, 0, 0, 1199.402587890625
27, 0, 0, 1208.458984375
28, 0, 0, 1210.181518554688
29, 0, 0, 1211.087890625
30, 0, 0, 1228.017944335938
31, 0, 0, 1229.127563476562
32, 0, 0, 1234.699462890625
33, 0, 0, 1235.497680664062
34, 0, 0, 1243.670532226562
35, 0, 0, 1248.615600585938
36, 0, 0, 1260.899291992188
37, 0, 0, 1257.241943359375
38, 0, 0, 1251.736694335938
39, 0, 0, 1260.645263671875
40, 0, 0, 1263.46826171875
41, 0, 0, 1266.3193359375
42, 0, 0, 1280.068115234375
43, 0, 0, 1274.989868164062
44, 0, 0, 1287.203369140625
45, 0, 0, 1289.017944335938
46, 0, 0, 1301.873291015625
47, 0, 0, 1307.296264648438
48, 0, 0, 1311.717041015625
49, 0, 0, 1321.306762695312
50, 0, 0, 1328.195434570312
51, 0, 0, 1328.751098632812
52, 0, 0, 1332.47021484375
53, 0, 0, 1344.77880859375
54, 0, 0, 1348.16796875
55, 0, 0, 1361.624267578125
56, 0, 0, 1386.78955078125
57, 0, 0, 1383.764282226562
58, 0, 0, 1407.27392578125
59, 0, 0, 1404.087036132812
60, 0, 0, 1418.4150390625
61, 0, 0, 1437.154418945312
62, 0, 0, 1446.461547851562
63, 0, 0, 1463.486206054688
64, 0, 0, 1480.04150390625
65, 0, 0, 1493.3232421875
66, 0, 0, 1502.418823242188
67, 0, 0, 1529.332641601562
68, 0, 0, 1536.70068359375
69, 0, 0, 1555.81396484375
70, 0, 0, 1579.646606445312
71, 0, 0, 1598.660522460938
72, 0, 0, 1622.536743164062
73, 0, 0, 1643.912719726562
74, 0, 0, 1676.538452148438
75, 0, 0, 1706.208374023438
76, 0, 0, 1742.454223632812
77, 0, 0, 1783.154541015625
78, 0, 0, 1826.792114257812
79, 0, 0, 1875.462158203125
80, 0, 0, 1928.417846679688
81, 0, 0, 2006.637817382812
82, 0, 0, 2075.03369140625
83, 0, 0, 2153.014892578125
84, 0, 0, 2249.8876953125
85, 0, 0, 2374.964599609375
86, 0, 0, 2539.960205078125
87, 0, 0, 2732.97216796875
88, 0, 0, 3009.00439453125
89, 0, 0, 3432.041015625
90, 0, 0, 4076.95703125
91, 0, 0, 4588.31103515625
92, 0, 0, 4399.0224609375
93, 0, 0, 3260.046630859375
94, 0, 0, 1800.938354492188
95, 0, 0, 596.6165161132812
96, 0, 0, 102.9997024536133
97, 0, 0, 0.08861859887838364
98, 0, 0, 0.006275621708482504
99, 0, 0, 0
100, 0, 0, 0
101, 0, 0, 0.03055516630411148
102, 0, 0, 0.01213157083839178
103, 0, 0, 0
104, 0, 0, 0.1074696928262711
105, 0, 0, 0.04493004083633423
106, 0, 0, 0.007235226687043905
107, 0, 0, 0.003265558974817395
108, 0, 0, 0.01078633405268192
109, 0, 0, 0
110, 0, 0, 0
111, 0, 0, 0.05782982707023621
112, 0, 0, 0.03178993985056877
113, 0, 0, 0.06975424289703369
114, 0, 0, 0.1246652081608772
115, 0, 0, 0
116, 0, 0, 0
117, 0, 0, 0
118, 0, 0, 0
119, 0, 0, 0.02192716486752033
120, 0, 0, 0.0473567321896553
121, 0, 0, 0.09153708070516586
122, 0, 0, 0.01353814918547869
123, 0, 0, 0.0715867355465889
124, 0, 0, 0
125, 0, 0, 0
126, 0, 0, 0
127, 0, 0, 0
128, 0, 0, 0
129, 0, 0, 0
130, 0, 0, 0
131, 0, 0, 0
132, 0, 0, 0
133, 0, 0, 0
134, 0, 0, 0
135, 0, 0, 0
136, 0, 0, 0.02643259614706039
137, 0, 0, 0
138, 0, 0, 0
139, 0, 0, 0
140, 0, 0, 0
141, 0, 0, 0
142, 0, 0, 0
143, 0, 0, 0
144, 0, 0, 0
145, 0, 0, 0
146, 0, 0, 0
147, 0, 0, 0
148, 0, 0, 0.02387912757694721
149, 0, 0, 0
150, 0, 0, 0.01442800648510456
151, 0, 0, 0
152, 0, 0, 0
153, 0, 0, 0.03612029552459717
154, 0, 0, 0
155, 0, 0, 0.04352259635925293
156, 0, 0, 0.01418275106698275
157, 0, 0, 0
158, 0, 0, 0
159, 0, 0, 0
160, 0, 0, 0
161, 0, 0, 0
162, 0, 0, 0
163, 0, 0, 0.0980534628033638
164, 0, 0, 0
165, 0, 0, 0.005286599043756723
166, 0, 0, 0
167, 0, 0, 0
168, 0, 0, 0.01555819530040026
169, 0, 0, 0
170, 0, 0, 0
171, 0, 0, 0
172, 0, 0, 0
173, 0, 0, 0
174, 0, 0, 0
175, 0, 0, 0
176, 0, 0, 0
177, 0, 0, 0
178, 0, 0, 0
179, 0, 0, 0.001217145589180291
