# TOPAS Version: 3.3.p1
# Parameter File: Simple_Pattern.txt
# Results for scorer MLIC_Scorer
# Scored in component: MLIC
# X in 180 bins of 0.222222 cm
# Y in 1 bin  of 10 cm
# Z in 1 bin  of 10 cm
# EnergyDeposit ( MeV ) : Sum   
0, 0, 0, 1117.21484375
1, 0, 0, 1127.72607421875
2, 0, 0, 1133.479736328125
3, 0, 0, 1129.960815429688
4, 0, 0, 1131.574096679688
5, 0, 0, 1144.167846679688
6, 0, 0, 1149.39892578125
7, 0, 0, 1158.472045898438
8, 0, 0, 1162.92626953125
9, 0, 0, 1162.170532226562
10, 0, 0, 1170.95751953125
11, 0, 0, 1180.4365234375
12, 0, 0, 1191.25634765625
13, 0, 0, 1181.783813476562
14, 0, 0, 1202.85205078125
15, 0, 0, 1204.50830078125
16, 0, 0, 1207.840942382812
17, 0, 0, 1216.214111328125
18, 0, 0, 1226.423583984375
19, 0, 0, 1248.297729492188
20, 0, 0, 1240.111328125
21, 0, 0, 1250.515869140625
22, 0, 0, 1250.438110351562
23, 0, 0, 1263.423828125
24, 0, 0, 1275.59326171875
25, 0, 0, 1282.52880859375
26, 0, 0, 1295.487426757812
27, 0, 0, 1301.855834960938
28, 0, 0, 1310.01513671875
29, 0, 0, 1318.15234375
30, 0, 0, 1329.059814453125
31, 0, 0, 1341.22998046875
32, 0, 0, 1350.719116210938
33, 0, 0, 1352.788452148438
34, 0, 0, 1367.856201171875
35, 0, 0, 1384.742309570312
36, 0, 0, 1400.69384765625
37, 0, 0, 1400.713623046875
38, 0, 0, 1413.394775390625
39, 0, 0, 1429.628784179688
40, 0, 0, 1436.892944335938
41, 0, 0, 1457.2275390625
42, 0, 0, 1464.135498046875
43, 0, 0, 1484.236572265625
44, 0, 0, 1497.664428710938
45, 0, 0, 1517.232421875
46, 0, 0, 1526.862182617188
47, 0, 0, 1546.162475585938
48, 0, 0, 1570.86279296875
49, 0, 0, 1576.753540039062
50, 0, 0, 1605.89013671875
51, 0, 0, 1626.618408203125
52, 0, 0, 1639.781005859375
53, 0, 0, 1667.080688476562
54, 0, 0, 1701.223876953125
55, 0, 0, 1706.932250976562
56, 0, 0, 1741.091674804688
57, 0, 0, 1764.700439453125
58, 0, 0, 1788.717163085938
59, 0, 0, 1819.226684570312
60, 0, 0, 1851.5576171875
61, 0, 0, 1889.729248046875
62, 0, 0, 1926.734008789062
63, 0, 0, 1968.42919921875
64, 0, 0, 2005.258056640625
65, 0, 0, 2047.8203125
66, 0, 0, 2107.233154296875
67, 0, 0, 2162.700439453125
68, 0, 0, 2227.31396484375
69, 0, 0, 2290.462890625
70, 0, 0, 2366.837890625
71, 0, 0, 2458.468017578125
72, 0, 0, 2565.333984375
73, 0, 0, 2685.33984375
74, 0, 0, 2857.350830078125
75, 0, 0, 3052.484619140625
76, 0, 0, 3354.470458984375
77, 0, 0, 3774.543701171875
78, 0, 0, 4146.03515625
79, 0, 0, 4241.89013671875
80, 0, 0, 3624.573486328125
81, 0, 0, 2706.09375
82, 0, 0, 2008.114135742188
83, 0, 0, 1637.323974609375
84, 0, 0, 1594.16748046875
85, 0, 0, 1670.31396484375
86, 0, 0, 1723.593505859375
87, 0, 0, 1849.920288085938
88, 0, 0, 2043.984497070312
89, 0, 0, 2284.7041015625
90, 0, 0, 2666.74755859375
91, 0, 0, 2985.057861328125
92, 0, 0, 3055.7958984375
93, 0, 0, 2217.115234375
94, 0, 0, 1079.477905273438
95, 0, 0, 318.8309936523438
96, 0, 0, 89.18618011474609
97, 0, 0, 15.798264503479
98, 0, 0, 0
99, 0, 0, 0
100, 0, 0, 0
101, 0, 0, 0
102, 0, 0, 0.006391658447682858
103, 0, 0, 0.02992679923772812
104, 0, 0, 0.004889081232249737
105, 0, 0, 0
106, 0, 0, 0
107, 0, 0, 0
108, 0, 0, 0
109, 0, 0, 0
110, 0, 0, 0
111, 0, 0, 0
112, 0, 0, 0.005065102130174637
113, 0, 0, 0.03715216740965843
114, 0, 0, 0
115, 0, 0, 0
116, 0, 0, 0
117, 0, 0, 0.004376390017569065
118, 0, 0, 0
119, 0, 0, 0
120, 0, 0, 0
121, 0, 0, 0
122, 0, 0, 0
123, 0, 0, 0
124, 0, 0, 0.003134933998808265
125, 0, 0, 0
126, 0, 0, 0.008869723416864872
127, 0, 0, 0
128, 0, 0, 0
129, 0, 0, 0
130, 0, 0, 0
131, 0, 0, 0
132, 0, 0, 0
133, 0, 0, 0
134, 0, 0, 0
135, 0, 0, 0
136, 0, 0, 0
137, 0, 0, 0
138, 0, 0, 0
139, 0, 0, 0
140, 0, 0, 0
141, 0, 0, 0
142, 0, 0, 0
143, 0, 0, 0
144, 0, 0, 0
145, 0, 0, 0
146, 0, 0, 0
147, 0, 0, 0
148, 0, 0, 0
149, 0, 0, 0
150, 0, 0, 0
151, 0, 0, 0
152, 0, 0, 0
153, 0, 0, 0
154, 0, 0, 0
155, 0, 0, 0
156, 0, 0, 0
157, 0, 0, 0
158, 0, 0, 0
159, 0, 0, 0
160, 0, 0, 0
161, 0, 0, 0
162, 0, 0, 0
163, 0, 0, 0
164, 0, 0, 0
165, 0, 0, 0
166, 0, 0, 0
167, 0, 0, 0
168, 0, 0, 0
169, 0, 0, 0
170, 0, 0, 0
171, 0, 0, 0
172, 0, 0, 0
173, 0, 0, 0
174, 0, 0, 0
175, 0, 0, 0
176, 0, 0, 0
177, 0, 0, 0
178, 0, 0, 0
179, 0, 0, 0
