# TOPAS Version: 3.3.p1
# Parameter File: Simple_Pattern.txt
# Results for scorer MLIC_Scorer
# Scored in component: MLIC
# X in 180 bins of 0.222222 cm
# Y in 1 bin  of 10 cm
# Z in 1 bin  of 10 cm
# EnergyDeposit ( MeV ) : Sum   
0, 0, 0, 1091.69091796875
1, 0, 0, 1087.864624023438
2, 0, 0, 1087.737915039062
3, 0, 0, 1102.220458984375
4, 0, 0, 1108.53515625
5, 0, 0, 1112.100219726562
6, 0, 0, 1111.505981445312
7, 0, 0, 1131.304077148438
8, 0, 0, 1125.867553710938
9, 0, 0, 1119.687744140625
10, 0, 0, 1136.73193359375
11, 0, 0, 1140.55615234375
12, 0, 0, 1138.770141601562
13, 0, 0, 1157.40576171875
14, 0, 0, 1156.740844726562
15, 0, 0, 1164.749633789062
16, 0, 0, 1169.1953125
17, 0, 0, 1169.061767578125
18, 0, 0, 1178.993530273438
19, 0, 0, 1191.121337890625
20, 0, 0, 1202.990112304688
21, 0, 0, 1195.949462890625
22, 0, 0, 1211.018798828125
23, 0, 0, 1206.75830078125
24, 0, 0, 1225.916137695312
25, 0, 0, 1232.208129882812
26, 0, 0, 1240.880981445312
27, 0, 0, 1255.862182617188
28, 0, 0, 1260.713134765625
29, 0, 0, 1257.48583984375
30, 0, 0, 1266.85302734375
31, 0, 0, 1272.594482421875
32, 0, 0, 1282.462646484375
33, 0, 0, 1292.035522460938
34, 0, 0, 1298.253662109375
35, 0, 0, 1310.741943359375
36, 0, 0, 1318.5966796875
37, 0, 0, 1329.407958984375
38, 0, 0, 1343.02783203125
39, 0, 0, 1354.235717773438
40, 0, 0, 1351.13134765625
41, 0, 0, 1369.9052734375
42, 0, 0, 1380.273559570312
43, 0, 0, 1394.968994140625
44, 0, 0, 1407.10888671875
45, 0, 0, 1412.922607421875
46, 0, 0, 1429.112426757812
47, 0, 0, 1439.72802734375
48, 0, 0, 1457.066650390625
49, 0, 0, 1471.696411132812
50, 0, 0, 1485.3876953125
51, 0, 0, 1503.581787109375
52, 0, 0, 1508.154052734375
53, 0, 0, 1520.96240234375
54, 0, 0, 1542.538818359375
55, 0, 0, 1547.15771484375
56, 0, 0, 1575.1513671875
57, 0, 0, 1584.721313476562
58, 0, 0, 1608.773681640625
59, 0, 0, 1632.469848632812
60, 0, 0, 1647.1171875
61, 0, 0, 1680.9072265625
62, 0, 0, 1701.83984375
63, 0, 0, 1721.19091796875
64, 0, 0, 1737.530029296875
65, 0, 0, 1775.546142578125
66, 0, 0, 1796.193725585938
67, 0, 0, 1818.438598632812
68, 0, 0, 1857.905883789062
69, 0, 0, 1893.435913085938
70, 0, 0, 1930.973022460938
71, 0, 0, 1969.712280273438
72, 0, 0, 2007.367065429688
73, 0, 0, 2047.530639648438
74, 0, 0, 2093.25244140625
75, 0, 0, 2152.612060546875
76, 0, 0, 2193.763427734375
77, 0, 0, 2269.374267578125
78, 0, 0, 2328.351318359375
79, 0, 0, 2392.592529296875
80, 0, 0, 2476.17822265625
81, 0, 0, 2573.483642578125
82, 0, 0, 2668.7578125
83, 0, 0, 2782.98681640625
84, 0, 0, 2927.555908203125
85, 0, 0, 3093.673095703125
86, 0, 0, 3306.777099609375
87, 0, 0, 3593.38525390625
88, 0, 0, 3971.6669921875
89, 0, 0, 4566.53369140625
90, 0, 0, 5377.921875
91, 0, 0, 6171.91357421875
92, 0, 0, 5643.64794921875
93, 0, 0, 4337.49755859375
94, 0, 0, 2110.384765625
95, 0, 0, 704.6256713867188
96, 0, 0, 112.4998550415039
97, 0, 0, 6.130343437194824
98, 0, 0, 0
99, 0, 0, 0.02385121397674084
100, 0, 0, 0
101, 0, 0, 0
102, 0, 0, 0
103, 0, 0, 0
104, 0, 0, 0
105, 0, 0, 0.002032834570854902
106, 0, 0, 0.003192761680111289
107, 0, 0, 0.05349360033869743
108, 0, 0, 0
109, 0, 0, 0
110, 0, 0, 0
111, 0, 0, 0
112, 0, 0, 0
113, 0, 0, 0.04609139636158943
114, 0, 0, 0
115, 0, 0, 0.005685616750270128
116, 0, 0, 0
117, 0, 0, 0.001840807730332017
118, 0, 0, 0
119, 0, 0, 0
120, 0, 0, 0
121, 0, 0, 0
122, 0, 0, 0
123, 0, 0, 0
124, 0, 0, 0
125, 0, 0, 0
126, 0, 0, 0
127, 0, 0, 0
128, 0, 0, 0
129, 0, 0, 0
130, 0, 0, 0
131, 0, 0, 0
132, 0, 0, 0
133, 0, 0, 0
134, 0, 0, 0
135, 0, 0, 0
136, 0, 0, 0
137, 0, 0, 0
138, 0, 0, 0
139, 0, 0, 0
140, 0, 0, 0
141, 0, 0, 0
142, 0, 0, 0
143, 0, 0, 0
144, 0, 0, 0
145, 0, 0, 0
146, 0, 0, 0
147, 0, 0, 0
148, 0, 0, 0
149, 0, 0, 0
150, 0, 0, 0
151, 0, 0, 0
152, 0, 0, 0
153, 0, 0, 0
154, 0, 0, 0
155, 0, 0, 0
156, 0, 0, 0
157, 0, 0, 0
158, 0, 0, 0
159, 0, 0, 0
160, 0, 0, 0
161, 0, 0, 0
162, 0, 0, 0
163, 0, 0, 0
164, 0, 0, 0
165, 0, 0, 0
166, 0, 0, 0
167, 0, 0, 0
168, 0, 0, 0
169, 0, 0, 0
170, 0, 0, 0
171, 0, 0, 0
172, 0, 0, 0
173, 0, 0, 0
174, 0, 0, 0
175, 0, 0, 0
176, 0, 0, 0
177, 0, 0, 0
178, 0, 0, 0
179, 0, 0, 0
