# TOPAS Version: 3.3.p1
# Parameter File: Simple_Pattern.txt
# Results for scorer MLIC_Scorer
# Scored in component: MLIC
# X in 180 bins of 0.222222 cm
# Y in 1 bin  of 10 cm
# Z in 1 bin  of 10 cm
# EnergyDeposit ( MeV ) : Sum   
0, 0, 0, 64.68376159667969
1, 0, 0, 66.52923583984375
2, 0, 0, 64.70388031005859
3, 0, 0, 67.74650573730469
4, 0, 0, 65.312255859375
5, 0, 0, 65.03572082519531
6, 0, 0, 65.53372955322266
7, 0, 0, 67.72817993164062
8, 0, 0, 67.04263305664062
9, 0, 0, 69.95333099365234
10, 0, 0, 67.91387176513672
11, 0, 0, 68.75656890869141
12, 0, 0, 69.83955383300781
13, 0, 0, 69.03217315673828
14, 0, 0, 67.80697631835938
15, 0, 0, 67.95750427246094
16, 0, 0, 68.06699371337891
17, 0, 0, 69.51869201660156
18, 0, 0, 70.32523345947266
19, 0, 0, 68.92720031738281
20, 0, 0, 70.11170959472656
21, 0, 0, 71.47742462158203
22, 0, 0, 71.54271697998047
23, 0, 0, 69.60603332519531
24, 0, 0, 70.43159484863281
25, 0, 0, 67.89354705810547
26, 0, 0, 70.88783264160156
27, 0, 0, 71.15472412109375
28, 0, 0, 69.29836273193359
29, 0, 0, 71.64829254150391
30, 0, 0, 70.16535186767578
31, 0, 0, 71.66135406494141
32, 0, 0, 71.53178405761719
33, 0, 0, 72.95872497558594
34, 0, 0, 72.33377075195312
35, 0, 0, 73.95893859863281
36, 0, 0, 73.76576995849609
37, 0, 0, 72.79904174804688
38, 0, 0, 73.31618499755859
39, 0, 0, 75.20066833496094
40, 0, 0, 75.34909057617188
41, 0, 0, 75.38947296142578
42, 0, 0, 76.29209136962891
43, 0, 0, 76.17539215087891
44, 0, 0, 77.16985321044922
45, 0, 0, 79.59075164794922
46, 0, 0, 79.2181396484375
47, 0, 0, 79.70452117919922
48, 0, 0, 80.39983367919922
49, 0, 0, 81.28383636474609
50, 0, 0, 82.45013427734375
51, 0, 0, 82.38372802734375
52, 0, 0, 83.95654296875
53, 0, 0, 83.78160858154297
54, 0, 0, 82.70107269287109
55, 0, 0, 85.88170623779297
56, 0, 0, 84.18628692626953
57, 0, 0, 85.5018310546875
58, 0, 0, 86.97974395751953
59, 0, 0, 88.803955078125
60, 0, 0, 90.24523162841797
61, 0, 0, 91.50675964355469
62, 0, 0, 94.20328521728516
63, 0, 0, 90.85887908935547
64, 0, 0, 93.86756134033203
65, 0, 0, 95.09558868408203
66, 0, 0, 94.56368255615234
67, 0, 0, 98.90655517578125
68, 0, 0, 97.91197967529297
69, 0, 0, 102.624267578125
70, 0, 0, 102.9304504394531
71, 0, 0, 103.5519256591797
72, 0, 0, 104.5967330932617
73, 0, 0, 108.0864562988281
74, 0, 0, 108.9494552612305
75, 0, 0, 112.4700622558594
76, 0, 0, 115.3545227050781
77, 0, 0, 117.0459823608398
78, 0, 0, 120.9116668701172
79, 0, 0, 125.6360015869141
80, 0, 0, 128.5268249511719
81, 0, 0, 134.8840026855469
82, 0, 0, 137.774169921875
83, 0, 0, 144.8596649169922
84, 0, 0, 148.6268463134766
85, 0, 0, 157.2430267333984
86, 0, 0, 165.0340881347656
87, 0, 0, 175.1722717285156
88, 0, 0, 194.8860626220703
89, 0, 0, 227.6287231445312
90, 0, 0, 254.9562835693359
91, 0, 0, 289.0845336914062
92, 0, 0, 268.3548583984375
93, 0, 0, 176.3926696777344
94, 0, 0, 83.40342712402344
95, 0, 0, 52.8890266418457
96, 0, 0, 7.459335327148438
97, 0, 0, 0
98, 0, 0, 0
99, 0, 0, 0
100, 0, 0, 0
101, 0, 0, 0
102, 0, 0, 0
103, 0, 0, 0
104, 0, 0, 0
105, 0, 0, 0
106, 0, 0, 0
107, 0, 0, 0
108, 0, 0, 0.004345070105046034
109, 0, 0, 0
110, 0, 0, 0
111, 0, 0, 0
112, 0, 0, 0
113, 0, 0, 0
114, 0, 0, 0
115, 0, 0, 0
116, 0, 0, 0
117, 0, 0, 0
118, 0, 0, 0
119, 0, 0, 0.03806663677096367
120, 0, 0, 0
121, 0, 0, 0
122, 0, 0, 0
123, 0, 0, 0
124, 0, 0, 0
125, 0, 0, 0
126, 0, 0, 0
127, 0, 0, 0.0211827140301466
128, 0, 0, 0
129, 0, 0, 0
130, 0, 0, 0
131, 0, 0, 0
132, 0, 0, 0
133, 0, 0, 0
134, 0, 0, 0
135, 0, 0, 0
136, 0, 0, 0
137, 0, 0, 0
138, 0, 0, 0
139, 0, 0, 0
140, 0, 0, 0
141, 0, 0, 0
142, 0, 0, 0
143, 0, 0, 0
144, 0, 0, 0
145, 0, 0, 0
146, 0, 0, 0
147, 0, 0, 0
148, 0, 0, 0
149, 0, 0, 0
150, 0, 0, 0
151, 0, 0, 0
152, 0, 0, 0
153, 0, 0, 0
154, 0, 0, 0
155, 0, 0, 0
156, 0, 0, 0
157, 0, 0, 0
158, 0, 0, 0
159, 0, 0, 0
160, 0, 0, 0
161, 0, 0, 0
162, 0, 0, 0
163, 0, 0, 0
164, 0, 0, 0
165, 0, 0, 0
166, 0, 0, 0
167, 0, 0, 0.01294295955449343
168, 0, 0, 0
169, 0, 0, 0
170, 0, 0, 0
171, 0, 0, 0
172, 0, 0, 0
173, 0, 0, 0
174, 0, 0, 0
175, 0, 0, 0
176, 0, 0, 0
177, 0, 0, 0
178, 0, 0, 0
179, 0, 0, 0
