# TOPAS Version: 3.3.p1
# Parameter File: Simple_Pattern.txt
# Results for scorer MLIC_Scorer
# Scored in component: MLIC
# X in 180 bins of 0.222222 cm
# Y in 1 bin  of 10 cm
# Z in 1 bin  of 10 cm
# EnergyDeposit ( MeV ) : Sum   
0, 0, 0, 1080.509521484375
1, 0, 0, 1096.499145507812
2, 0, 0, 1095.489013671875
3, 0, 0, 1099.124145507812
4, 0, 0, 1097.664306640625
5, 0, 0, 1109.427612304688
6, 0, 0, 1121.325561523438
7, 0, 0, 1119.867431640625
8, 0, 0, 1118.261474609375
9, 0, 0, 1116.835327148438
10, 0, 0, 1131.770263671875
11, 0, 0, 1135.960327148438
12, 0, 0, 1141.5009765625
13, 0, 0, 1136.123901367188
14, 0, 0, 1152.351806640625
15, 0, 0, 1161.788452148438
16, 0, 0, 1168.2607421875
17, 0, 0, 1169.905151367188
18, 0, 0, 1180.202514648438
19, 0, 0, 1186.159790039062
20, 0, 0, 1193.6494140625
21, 0, 0, 1198.828735351562
22, 0, 0, 1202.921142578125
23, 0, 0, 1204.293579101562
24, 0, 0, 1220.911376953125
25, 0, 0, 1233.38232421875
26, 0, 0, 1231.661010742188
27, 0, 0, 1237.103149414062
28, 0, 0, 1252.973754882812
29, 0, 0, 1255.7890625
30, 0, 0, 1258.909545898438
31, 0, 0, 1274.539306640625
32, 0, 0, 1280.09228515625
33, 0, 0, 1290.102172851562
34, 0, 0, 1290.614868164062
35, 0, 0, 1292.989013671875
36, 0, 0, 1320.0556640625
37, 0, 0, 1328.031982421875
38, 0, 0, 1327.729125976562
39, 0, 0, 1339.302856445312
40, 0, 0, 1340.512939453125
41, 0, 0, 1368.981567382812
42, 0, 0, 1377.873168945312
43, 0, 0, 1386.311889648438
44, 0, 0, 1397.8837890625
45, 0, 0, 1406.001342773438
46, 0, 0, 1424.454711914062
47, 0, 0, 1437.110473632812
48, 0, 0, 1447.400512695312
49, 0, 0, 1456.73388671875
50, 0, 0, 1471.592895507812
51, 0, 0, 1489.726196289062
52, 0, 0, 1506.424926757812
53, 0, 0, 1530.177612304688
54, 0, 0, 1527.223876953125
55, 0, 0, 1552.499633789062
56, 0, 0, 1578.031005859375
57, 0, 0, 1579.991088867188
58, 0, 0, 1612.132690429688
59, 0, 0, 1633.469604492188
60, 0, 0, 1643.149658203125
61, 0, 0, 1667.21142578125
62, 0, 0, 1688.219970703125
63, 0, 0, 1719.666381835938
64, 0, 0, 1738.5791015625
65, 0, 0, 1766.87109375
66, 0, 0, 1789.858764648438
67, 0, 0, 1831.568969726562
68, 0, 0, 1846.881225585938
69, 0, 0, 1889.741333007812
70, 0, 0, 1921.208862304688
71, 0, 0, 1950.813110351562
72, 0, 0, 1998.770385742188
73, 0, 0, 2047.57275390625
74, 0, 0, 2082.974609375
75, 0, 0, 2126.673583984375
76, 0, 0, 2182.233642578125
77, 0, 0, 2239.433349609375
78, 0, 0, 2303.001220703125
79, 0, 0, 2374.186767578125
80, 0, 0, 2448.504150390625
81, 0, 0, 2537.9794921875
82, 0, 0, 2643.752197265625
83, 0, 0, 2761.984619140625
84, 0, 0, 2893.309326171875
85, 0, 0, 3066.8232421875
86, 0, 0, 3271.727783203125
87, 0, 0, 3540.807373046875
88, 0, 0, 3924.44921875
89, 0, 0, 4487.70068359375
90, 0, 0, 5274.6162109375
91, 0, 0, 6091.99267578125
92, 0, 0, 5791.78076171875
93, 0, 0, 4306.6201171875
94, 0, 0, 2409.604248046875
95, 0, 0, 753.1807250976562
96, 0, 0, 100.7434997558594
97, 0, 0, 10.06804084777832
98, 0, 0, 0.003646372817456722
99, 0, 0, 0.003248788649216294
100, 0, 0, 0.007736059837043285
101, 0, 0, 0
102, 0, 0, 0.05122201517224312
103, 0, 0, 0
104, 0, 0, 0
105, 0, 0, 0
106, 0, 0, 0
107, 0, 0, 0
108, 0, 0, 0
109, 0, 0, 0
110, 0, 0, 0
111, 0, 0, 0.05335689708590508
112, 0, 0, 0
113, 0, 0, 0
114, 0, 0, 0
115, 0, 0, 0
116, 0, 0, 0
117, 0, 0, 0
118, 0, 0, 0
119, 0, 0, 0
120, 0, 0, 0
121, 0, 0, 0
122, 0, 0, 0
123, 0, 0, 0
124, 0, 0, 0.08922763168811798
125, 0, 0, 0
126, 0, 0, 0.01184019073843956
127, 0, 0, 0
128, 0, 0, 0
129, 0, 0, 0
130, 0, 0, 0
131, 0, 0, 0
132, 0, 0, 0
133, 0, 0, 0
134, 0, 0, 0
135, 0, 0, 0
136, 0, 0, 0
137, 0, 0, 0
138, 0, 0, 0
139, 0, 0, 0
140, 0, 0, 0
141, 0, 0, 0
142, 0, 0, 0
143, 0, 0, 0
144, 0, 0, 0
145, 0, 0, 0
146, 0, 0, 0
147, 0, 0, 0
148, 0, 0, 0
149, 0, 0, 0
150, 0, 0, 0
151, 0, 0, 0
152, 0, 0, 0
153, 0, 0, 0
154, 0, 0, 0
155, 0, 0, 0
156, 0, 0, 0
157, 0, 0, 0
158, 0, 0, 0
159, 0, 0, 0
160, 0, 0, 0
161, 0, 0, 0
162, 0, 0, 0
163, 0, 0, 0
164, 0, 0, 0
165, 0, 0, 0
166, 0, 0, 0
167, 0, 0, 0
168, 0, 0, 0
169, 0, 0, 0
170, 0, 0, 0
171, 0, 0, 0
172, 0, 0, 0
173, 0, 0, 0
174, 0, 0, 0
175, 0, 0, 0
176, 0, 0, 0
177, 0, 0, 0
178, 0, 0, 0
179, 0, 0, 0
