# TOPAS Version: 3.3.p1
# Parameter File: Simple_Pattern.txt
# Results for scorer MLIC_Scorer
# Scored in component: MLIC
# X in 180 bins of 0.222222 cm
# Y in 1 bin  of 10 cm
# Z in 1 bin  of 10 cm
# EnergyDeposit ( MeV ) : Sum   
0, 0, 0, 1098.148315429688
1, 0, 0, 1097.00634765625
2, 0, 0, 1087.518798828125
3, 0, 0, 1095.676025390625
4, 0, 0, 1106.828002929688
5, 0, 0, 1113.725830078125
6, 0, 0, 1115.716918945312
7, 0, 0, 1123.066284179688
8, 0, 0, 1119.191650390625
9, 0, 0, 1132.837158203125
10, 0, 0, 1135.444580078125
11, 0, 0, 1138.1005859375
12, 0, 0, 1144.994140625
13, 0, 0, 1163.627807617188
14, 0, 0, 1165.308471679688
15, 0, 0, 1168.759765625
16, 0, 0, 1170.562866210938
17, 0, 0, 1172.35009765625
18, 0, 0, 1173.766357421875
19, 0, 0, 1187.25244140625
20, 0, 0, 1194.216430664062
21, 0, 0, 1205.9013671875
22, 0, 0, 1211.647338867188
23, 0, 0, 1209.316284179688
24, 0, 0, 1208.050048828125
25, 0, 0, 1224.33349609375
26, 0, 0, 1235.890747070312
27, 0, 0, 1241.63623046875
28, 0, 0, 1240.273559570312
29, 0, 0, 1261.593994140625
30, 0, 0, 1277.044067382812
31, 0, 0, 1267.482421875
32, 0, 0, 1286.570556640625
33, 0, 0, 1295.468505859375
34, 0, 0, 1303.40673828125
35, 0, 0, 1304.848510742188
36, 0, 0, 1321.9775390625
37, 0, 0, 1327.925537109375
38, 0, 0, 1335.662963867188
39, 0, 0, 1345.183471679688
40, 0, 0, 1356.18505859375
41, 0, 0, 1363.218872070312
42, 0, 0, 1376.729370117188
43, 0, 0, 1398.17041015625
44, 0, 0, 1401.34228515625
45, 0, 0, 1418.264770507812
46, 0, 0, 1429.99609375
47, 0, 0, 1447.213745117188
48, 0, 0, 1446.354614257812
49, 0, 0, 1469.481689453125
50, 0, 0, 1476.327392578125
51, 0, 0, 1491.103881835938
52, 0, 0, 1509.87939453125
53, 0, 0, 1527.446044921875
54, 0, 0, 1538.305419921875
55, 0, 0, 1554.184692382812
56, 0, 0, 1572.939575195312
57, 0, 0, 1604.4208984375
58, 0, 0, 1623.036254882812
59, 0, 0, 1631.974853515625
60, 0, 0, 1648.207885742188
61, 0, 0, 1669.918334960938
62, 0, 0, 1707.832763671875
63, 0, 0, 1723.7255859375
64, 0, 0, 1753.432373046875
65, 0, 0, 1770.375732421875
66, 0, 0, 1802.713012695312
67, 0, 0, 1827.377075195312
68, 0, 0, 1858.324584960938
69, 0, 0, 1894.53662109375
70, 0, 0, 1928.757202148438
71, 0, 0, 1963.370239257812
72, 0, 0, 1996.97705078125
73, 0, 0, 2044.57177734375
74, 0, 0, 2092.8701171875
75, 0, 0, 2137.7197265625
76, 0, 0, 2191.092041015625
77, 0, 0, 2256.35107421875
78, 0, 0, 2319.56640625
79, 0, 0, 2399.627197265625
80, 0, 0, 2461.902587890625
81, 0, 0, 2559.64111328125
82, 0, 0, 2655.21923828125
83, 0, 0, 2777.22998046875
84, 0, 0, 2911.044921875
85, 0, 0, 3073.50244140625
86, 0, 0, 3284.454345703125
87, 0, 0, 3553.2939453125
88, 0, 0, 3929.4638671875
89, 0, 0, 4482.439453125
90, 0, 0, 5315.4765625
91, 0, 0, 6072.54833984375
92, 0, 0, 5902.4453125
93, 0, 0, 4164.65869140625
94, 0, 0, 2204.846923828125
95, 0, 0, 671.7592163085938
96, 0, 0, 115.9428482055664
97, 0, 0, 1.807247877120972
98, 0, 0, 0.006918140221387148
99, 0, 0, 0.008445948362350464
100, 0, 0, 0.01271244697272778
101, 0, 0, 0
102, 0, 0, 0
103, 0, 0, 0
104, 0, 0, 0
105, 0, 0, 0.001638970803469419
106, 0, 0, 0.002494471613317728
107, 0, 0, 0
108, 0, 0, 0.07419733703136444
109, 0, 0, 0
110, 0, 0, 0
111, 0, 0, 0.002114727627485991
112, 0, 0, 0
113, 0, 0, 0
114, 0, 0, 0
115, 0, 0, 0
116, 0, 0, 0
117, 0, 0, 0
118, 0, 0, 0
119, 0, 0, 0
120, 0, 0, 0
121, 0, 0, 0.03177381306886673
122, 0, 0, 0
123, 0, 0, 0
124, 0, 0, 0
125, 0, 0, 0
126, 0, 0, 0
127, 0, 0, 0
128, 0, 0, 0
129, 0, 0, 0
130, 0, 0, 0
131, 0, 0, 0.02544939517974854
132, 0, 0, 0
133, 0, 0, 0
134, 0, 0, 0.02144790068268776
135, 0, 0, 0
136, 0, 0, 0
137, 0, 0, 0
138, 0, 0, 0
139, 0, 0, 0
140, 0, 0, 0
141, 0, 0, 0
142, 0, 0, 0
143, 0, 0, 0
144, 0, 0, 0
145, 0, 0, 0
146, 0, 0, 0
147, 0, 0, 0
148, 0, 0, 0
149, 0, 0, 0.02108293399214745
150, 0, 0, 0
151, 0, 0, 0
152, 0, 0, 0
153, 0, 0, 0
154, 0, 0, 0
155, 0, 0, 0
156, 0, 0, 0
157, 0, 0, 0
158, 0, 0, 0
159, 0, 0, 0
160, 0, 0, 0
161, 0, 0, 0
162, 0, 0, 0
163, 0, 0, 0
164, 0, 0, 0
165, 0, 0, 0
166, 0, 0, 0
167, 0, 0, 0
168, 0, 0, 0
169, 0, 0, 0
170, 0, 0, 0
171, 0, 0, 0
172, 0, 0, 0
173, 0, 0, 0
174, 0, 0, 0
175, 0, 0, 0
176, 0, 0, 0
177, 0, 0, 0
178, 0, 0, 0
179, 0, 0, 0
