# TOPAS Version: 3.3.p1
# Parameter File: Simple_Pattern.txt
# Results for scorer MLIC_Scorer
# Scored in component: MLIC
# X in 180 bins of 0.222222 cm
# Y in 1 bin  of 10 cm
# Z in 1 bin  of 10 cm
# EnergyDeposit ( MeV ) : Sum   
0, 0, 0, 96.86074066162109
1, 0, 0, 98.61188507080078
2, 0, 0, 99.13385772705078
3, 0, 0, 94.89381408691406
4, 0, 0, 96.57884979248047
5, 0, 0, 97.73531341552734
6, 0, 0, 99.95499420166016
7, 0, 0, 100.9365615844727
8, 0, 0, 99.55143737792969
9, 0, 0, 100.3848724365234
10, 0, 0, 100.0781784057617
11, 0, 0, 103.8146133422852
12, 0, 0, 100.8909912109375
13, 0, 0, 102.3762054443359
14, 0, 0, 101.9987564086914
15, 0, 0, 103.2475509643555
16, 0, 0, 104.3355102539062
17, 0, 0, 102.4211654663086
18, 0, 0, 104.3103637695312
19, 0, 0, 104.7556381225586
20, 0, 0, 106.5965270996094
21, 0, 0, 106.195930480957
22, 0, 0, 109.4715423583984
23, 0, 0, 108.0627212524414
24, 0, 0, 107.5048904418945
25, 0, 0, 108.7153778076172
26, 0, 0, 109.729133605957
27, 0, 0, 107.5020446777344
28, 0, 0, 109.9228668212891
29, 0, 0, 113.3658599853516
30, 0, 0, 113.3447952270508
31, 0, 0, 111.9752044677734
32, 0, 0, 111.8512802124023
33, 0, 0, 114.4111022949219
34, 0, 0, 116.2861938476562
35, 0, 0, 115.0692977905273
36, 0, 0, 116.4348831176758
37, 0, 0, 118.1621475219727
38, 0, 0, 117.6124496459961
39, 0, 0, 120.8625259399414
40, 0, 0, 122.6732711791992
41, 0, 0, 119.291130065918
42, 0, 0, 122.936408996582
43, 0, 0, 123.7322463989258
44, 0, 0, 127.7607650756836
45, 0, 0, 127.6378555297852
46, 0, 0, 129.2892608642578
47, 0, 0, 126.0640487670898
48, 0, 0, 128.2663269042969
49, 0, 0, 130.7260589599609
50, 0, 0, 131.9116668701172
51, 0, 0, 134.0532684326172
52, 0, 0, 133.6134796142578
53, 0, 0, 138.1130065917969
54, 0, 0, 139.3207550048828
55, 0, 0, 137.4524688720703
56, 0, 0, 142.1334533691406
57, 0, 0, 143.8193359375
58, 0, 0, 142.6414031982422
59, 0, 0, 143.0979919433594
60, 0, 0, 148.8342590332031
61, 0, 0, 150.8559417724609
62, 0, 0, 151.1491394042969
63, 0, 0, 153.1426849365234
64, 0, 0, 156.0234375
65, 0, 0, 156.9609680175781
66, 0, 0, 162.4677581787109
67, 0, 0, 164.9437103271484
68, 0, 0, 166.7494201660156
69, 0, 0, 169.7231750488281
70, 0, 0, 171.8612060546875
71, 0, 0, 175.9529418945312
72, 0, 0, 179.8302612304688
73, 0, 0, 183.5336456298828
74, 0, 0, 185.3242797851562
75, 0, 0, 192.3850250244141
76, 0, 0, 197.3989105224609
77, 0, 0, 202.8745422363281
78, 0, 0, 208.8995513916016
79, 0, 0, 216.6465301513672
80, 0, 0, 221.2746887207031
81, 0, 0, 231.0538940429688
82, 0, 0, 239.7246551513672
83, 0, 0, 251.4512786865234
84, 0, 0, 263.9717407226562
85, 0, 0, 280.1158142089844
86, 0, 0, 299.6607055664062
87, 0, 0, 324.8730773925781
88, 0, 0, 361.8975830078125
89, 0, 0, 396.9020080566406
90, 0, 0, 483.172119140625
91, 0, 0, 531.9432373046875
92, 0, 0, 558.9036254882812
93, 0, 0, 475.34423828125
94, 0, 0, 175.6792297363281
95, 0, 0, 60.48245620727539
96, 0, 0, 11.35861396789551
97, 0, 0, 0
98, 0, 0, 0
99, 0, 0, 0
100, 0, 0, 0
101, 0, 0, 0
102, 0, 0, 0
103, 0, 0, 0
104, 0, 0, 0
105, 0, 0, 0
106, 0, 0, 0
107, 0, 0, 0
108, 0, 0, 0
109, 0, 0, 0
110, 0, 0, 0
111, 0, 0, 0
112, 0, 0, 0
113, 0, 0, 0
114, 0, 0, 0
115, 0, 0, 0
116, 0, 0, 0
117, 0, 0, 0
118, 0, 0, 0
119, 0, 0, 0
120, 0, 0, 0
121, 0, 0, 0
122, 0, 0, 0
123, 0, 0, 0
124, 0, 0, 0
125, 0, 0, 0
126, 0, 0, 0
127, 0, 0, 0
128, 0, 0, 0
129, 0, 0, 0
130, 0, 0, 0
131, 0, 0, 0
132, 0, 0, 0
133, 0, 0, 0
134, 0, 0, 0
135, 0, 0, 0
136, 0, 0, 0
137, 0, 0, 0
138, 0, 0, 0
139, 0, 0, 0
140, 0, 0, 0
141, 0, 0, 0
142, 0, 0, 0
143, 0, 0, 0
144, 0, 0, 0
145, 0, 0, 0
146, 0, 0, 0
147, 0, 0, 0
148, 0, 0, 0
149, 0, 0, 0
150, 0, 0, 0
151, 0, 0, 0
152, 0, 0, 0
153, 0, 0, 0
154, 0, 0, 0
155, 0, 0, 0
156, 0, 0, 0
157, 0, 0, 0
158, 0, 0, 0
159, 0, 0, 0
160, 0, 0, 0
161, 0, 0, 0
162, 0, 0, 0
163, 0, 0, 0
164, 0, 0, 0
165, 0, 0, 0
166, 0, 0, 0
167, 0, 0, 0
168, 0, 0, 0
169, 0, 0, 0
170, 0, 0, 0
171, 0, 0, 0
172, 0, 0, 0
173, 0, 0, 0
174, 0, 0, 0
175, 0, 0, 0
176, 0, 0, 0
177, 0, 0, 0
178, 0, 0, 0
179, 0, 0, 0
