# TOPAS Version: 3.3.p1
# Parameter File: Simple_Pattern.txt
# Results for scorer MLIC_Scorer
# Scored in component: MLIC
# X in 180 bins of 0.222222 cm
# Y in 1 bin  of 10 cm
# Z in 1 bin  of 10 cm
# EnergyDeposit ( MeV ) : Sum   
0, 0, 0, 41.72391510009766
1, 0, 0, 40.65163421630859
2, 0, 0, 39.76668167114258
3, 0, 0, 40.24629974365234
4, 0, 0, 40.69944763183594
5, 0, 0, 40.81913375854492
6, 0, 0, 40.46665954589844
7, 0, 0, 40.92926025390625
8, 0, 0, 41.06025314331055
9, 0, 0, 43.38871765136719
10, 0, 0, 41.93186569213867
11, 0, 0, 43.57612228393555
12, 0, 0, 42.80097579956055
13, 0, 0, 42.24077987670898
14, 0, 0, 44.08317184448242
15, 0, 0, 42.42123413085938
16, 0, 0, 43.60675430297852
17, 0, 0, 42.64068984985352
18, 0, 0, 43.81480026245117
19, 0, 0, 43.06996917724609
20, 0, 0, 44.26235198974609
21, 0, 0, 45.02988052368164
22, 0, 0, 45.29084396362305
23, 0, 0, 44.01297760009766
24, 0, 0, 47.11245346069336
25, 0, 0, 45.80904769897461
26, 0, 0, 45.45458984375
27, 0, 0, 46.19657516479492
28, 0, 0, 46.12758636474609
29, 0, 0, 45.63714599609375
30, 0, 0, 45.97000885009766
31, 0, 0, 47.06264495849609
32, 0, 0, 48.09582901000977
33, 0, 0, 47.68888854980469
34, 0, 0, 48.52903747558594
35, 0, 0, 48.82714462280273
36, 0, 0, 49.62714385986328
37, 0, 0, 49.6307487487793
38, 0, 0, 50.05710601806641
39, 0, 0, 48.78061294555664
40, 0, 0, 48.8216438293457
41, 0, 0, 51.73812103271484
42, 0, 0, 50.03125381469727
43, 0, 0, 52.06874465942383
44, 0, 0, 51.49295043945312
45, 0, 0, 51.77175140380859
46, 0, 0, 52.57540512084961
47, 0, 0, 52.86033248901367
48, 0, 0, 53.32525253295898
49, 0, 0, 53.86246871948242
50, 0, 0, 54.11065673828125
51, 0, 0, 55.37662124633789
52, 0, 0, 55.16206741333008
53, 0, 0, 56.09024047851562
54, 0, 0, 55.31176376342773
55, 0, 0, 57.65082550048828
56, 0, 0, 57.63320922851562
57, 0, 0, 60.81742858886719
58, 0, 0, 58.61045455932617
59, 0, 0, 61.14251327514648
60, 0, 0, 60.80886459350586
61, 0, 0, 61.90857315063477
62, 0, 0, 62.57897567749023
63, 0, 0, 62.37413787841797
64, 0, 0, 63.98128509521484
65, 0, 0, 67.346923828125
66, 0, 0, 66.22640228271484
67, 0, 0, 69.07682800292969
68, 0, 0, 69.33190155029297
69, 0, 0, 69.17247009277344
70, 0, 0, 71.4471435546875
71, 0, 0, 72.09861755371094
72, 0, 0, 74.28343200683594
73, 0, 0, 76.73050689697266
74, 0, 0, 77.14984893798828
75, 0, 0, 79.35520935058594
76, 0, 0, 81.70306396484375
77, 0, 0, 83.16315460205078
78, 0, 0, 86.19186401367188
79, 0, 0, 89.00421905517578
80, 0, 0, 91.42488098144531
81, 0, 0, 96.13489532470703
82, 0, 0, 99.67905426025391
83, 0, 0, 104.076301574707
84, 0, 0, 108.4482345581055
85, 0, 0, 114.9434432983398
86, 0, 0, 123.5320663452148
87, 0, 0, 133.7033843994141
88, 0, 0, 148.8670043945312
89, 0, 0, 173.0471954345703
90, 0, 0, 201.4188995361328
91, 0, 0, 198.92138671875
92, 0, 0, 221.0213317871094
93, 0, 0, 181.2439727783203
94, 0, 0, 99.49594879150391
95, 0, 0, 50.65473556518555
96, 0, 0, 20.88534355163574
97, 0, 0, 0
98, 0, 0, 0
99, 0, 0, 0
100, 0, 0, 0
101, 0, 0, 0
102, 0, 0, 0
103, 0, 0, 0
104, 0, 0, 0
105, 0, 0, 0
106, 0, 0, 0
107, 0, 0, 0
108, 0, 0, 0
109, 0, 0, 0
110, 0, 0, 0
111, 0, 0, 0
112, 0, 0, 0
113, 0, 0, 0
114, 0, 0, 0
115, 0, 0, 0
116, 0, 0, 0
117, 0, 0, 0
118, 0, 0, 0
119, 0, 0, 0
120, 0, 0, 0
121, 0, 0, 0
122, 0, 0, 0
123, 0, 0, 0
124, 0, 0, 0
125, 0, 0, 0
126, 0, 0, 0
127, 0, 0, 0
128, 0, 0, 0
129, 0, 0, 0
130, 0, 0, 0
131, 0, 0, 0
132, 0, 0, 0
133, 0, 0, 0
134, 0, 0, 0
135, 0, 0, 0
136, 0, 0, 0
137, 0, 0, 0
138, 0, 0, 0
139, 0, 0, 0
140, 0, 0, 0
141, 0, 0, 0
142, 0, 0, 0
143, 0, 0, 0
144, 0, 0, 0
145, 0, 0, 0
146, 0, 0, 0
147, 0, 0, 0
148, 0, 0, 0
149, 0, 0, 0
150, 0, 0, 0
151, 0, 0, 0
152, 0, 0, 0
153, 0, 0, 0
154, 0, 0, 0
155, 0, 0, 0
156, 0, 0, 0
157, 0, 0, 0
158, 0, 0, 0
159, 0, 0, 0
160, 0, 0, 0
161, 0, 0, 0
162, 0, 0, 0
163, 0, 0, 0
164, 0, 0, 0
165, 0, 0, 0
166, 0, 0, 0
167, 0, 0, 0
168, 0, 0, 0
169, 0, 0, 0
170, 0, 0, 0
171, 0, 0, 0
172, 0, 0, 0
173, 0, 0, 0
174, 0, 0, 0
175, 0, 0, 0
176, 0, 0, 0
177, 0, 0, 0
178, 0, 0, 0
179, 0, 0, 0
