# TOPAS Version: 3.3.p1
# Parameter File: Simple_Pattern.txt
# Results for scorer MLIC_Scorer
# Scored in component: MLIC
# X in 180 bins of 0.222222 cm
# Y in 1 bin  of 10 cm
# Z in 1 bin  of 10 cm
# EnergyDeposit ( MeV ) : Sum   
0, 0, 0, 1089.580688476562
1, 0, 0, 1089.483154296875
2, 0, 0, 1095.738525390625
3, 0, 0, 1097.625854492188
4, 0, 0, 1104.8427734375
5, 0, 0, 1108.456909179688
6, 0, 0, 1123.66552734375
7, 0, 0, 1112.480102539062
8, 0, 0, 1124.226440429688
9, 0, 0, 1123.931396484375
10, 0, 0, 1135.51806640625
11, 0, 0, 1132.718994140625
12, 0, 0, 1137.777465820312
13, 0, 0, 1147.286376953125
14, 0, 0, 1149.730712890625
15, 0, 0, 1145.6337890625
16, 0, 0, 1158.550048828125
17, 0, 0, 1161.661743164062
18, 0, 0, 1168.704223632812
19, 0, 0, 1172.87646484375
20, 0, 0, 1176.674682617188
21, 0, 0, 1181.203491210938
22, 0, 0, 1177.04833984375
23, 0, 0, 1201.483642578125
24, 0, 0, 1195.3173828125
25, 0, 0, 1202.415405273438
26, 0, 0, 1199.296752929688
27, 0, 0, 1210.372436523438
28, 0, 0, 1206.02294921875
29, 0, 0, 1222.185546875
30, 0, 0, 1223.209716796875
31, 0, 0, 1226.431762695312
32, 0, 0, 1227.396728515625
33, 0, 0, 1243.678955078125
34, 0, 0, 1252.8515625
35, 0, 0, 1250.801025390625
36, 0, 0, 1261.598754882812
37, 0, 0, 1258.388916015625
38, 0, 0, 1272.18798828125
39, 0, 0, 1280.9423828125
40, 0, 0, 1279.872802734375
41, 0, 0, 1293.3154296875
42, 0, 0, 1297.621826171875
43, 0, 0, 1292.037841796875
44, 0, 0, 1315.430908203125
45, 0, 0, 1333.007934570312
46, 0, 0, 1323.45849609375
47, 0, 0, 1329.933959960938
48, 0, 0, 1336.882202148438
49, 0, 0, 1331.38818359375
50, 0, 0, 1346.2353515625
51, 0, 0, 1353.313110351562
52, 0, 0, 1355.919799804688
53, 0, 0, 1368.110595703125
54, 0, 0, 1384.32470703125
55, 0, 0, 1394.9150390625
56, 0, 0, 1391.053344726562
57, 0, 0, 1410.2373046875
58, 0, 0, 1409.609008789062
59, 0, 0, 1431.601684570312
60, 0, 0, 1445.468383789062
61, 0, 0, 1458.56787109375
62, 0, 0, 1475.800903320312
63, 0, 0, 1485.324584960938
64, 0, 0, 1505.884399414062
65, 0, 0, 1523.919799804688
66, 0, 0, 1539.690795898438
67, 0, 0, 1553.25146484375
68, 0, 0, 1576.0146484375
69, 0, 0, 1596.926879882812
70, 0, 0, 1614.208862304688
71, 0, 0, 1639.638305664062
72, 0, 0, 1671.404541015625
73, 0, 0, 1695.452270507812
74, 0, 0, 1721.97607421875
75, 0, 0, 1756.700073242188
76, 0, 0, 1802.3427734375
77, 0, 0, 1838.530151367188
78, 0, 0, 1879.921875
79, 0, 0, 1939.54443359375
80, 0, 0, 1999.880004882812
81, 0, 0, 2070.294189453125
82, 0, 0, 2141.123779296875
83, 0, 0, 2232.13232421875
84, 0, 0, 2346.027587890625
85, 0, 0, 2467.55712890625
86, 0, 0, 2640.9423828125
87, 0, 0, 2864.31884765625
88, 0, 0, 3179.918212890625
89, 0, 0, 3614.7158203125
90, 0, 0, 4244.45556640625
91, 0, 0, 4794.8046875
92, 0, 0, 4450.61767578125
93, 0, 0, 3114.91064453125
94, 0, 0, 1702.2265625
95, 0, 0, 649.8492431640625
96, 0, 0, 150.1914825439453
97, 0, 0, 6.453120708465576
98, 0, 0, 0.004535364918410778
99, 0, 0, 0
100, 0, 0, 0
101, 0, 0, 0
102, 0, 0, 0.01742802932858467
103, 0, 0, 0
104, 0, 0, 0
105, 0, 0, 0
106, 0, 0, 0
107, 0, 0, 0.009506580419838428
108, 0, 0, 0.01059776823967695
109, 0, 0, 0
110, 0, 0, 0
111, 0, 0, 0.1163724660873413
112, 0, 0, 0
113, 0, 0, 0.06075605750083923
114, 0, 0, 0
115, 0, 0, 0.02117486111819744
116, 0, 0, 0
117, 0, 0, 0
118, 0, 0, 0
119, 0, 0, 0.01851080544292927
120, 0, 0, 0.04966605827212334
121, 0, 0, 0
122, 0, 0, 0.0209431629627943
123, 0, 0, 0.004829822108149529
124, 0, 0, 0
125, 0, 0, 0
126, 0, 0, 0.0168557446449995
127, 0, 0, 0
128, 0, 0, 0.01125858817249537
129, 0, 0, 0
130, 0, 0, 0.01132834516465664
131, 0, 0, 0.03688374161720276
132, 0, 0, 0
133, 0, 0, 0.148028239607811
134, 0, 0, 0
135, 0, 0, 0.0447419248521328
136, 0, 0, 0
137, 0, 0, 0
138, 0, 0, 0
139, 0, 0, 0
140, 0, 0, 0.05901641771197319
141, 0, 0, 0
142, 0, 0, 0
143, 0, 0, 0
144, 0, 0, 0
145, 0, 0, 0
146, 0, 0, 0
147, 0, 0, 0
148, 0, 0, 0
149, 0, 0, 0
150, 0, 0, 0
151, 0, 0, 0
152, 0, 0, 0.04925606772303581
153, 0, 0, 0
154, 0, 0, 0
155, 0, 0, 0
156, 0, 0, 0
157, 0, 0, 0
158, 0, 0, 0
159, 0, 0, 0
160, 0, 0, 0
161, 0, 0, 0
162, 0, 0, 0.2067749351263046
163, 0, 0, 0
164, 0, 0, 0
165, 0, 0, 0
166, 0, 0, 0
167, 0, 0, 0
168, 0, 0, 0
169, 0, 0, 0.09203224629163742
170, 0, 0, 0.009789524599909782
171, 0, 0, 0
172, 0, 0, 0.006192802917212248
173, 0, 0, 0
174, 0, 0, 0.01328111253678799
175, 0, 0, 0
176, 0, 0, 0
177, 0, 0, 0
178, 0, 0, 0
179, 0, 0, 0
