# TOPAS Version: 3.3.p1
# Parameter File: Simple_Pattern.txt
# Results for scorer MLIC_Scorer
# Scored in component: MLIC
# X in 180 bins of 0.222222 cm
# Y in 1 bin  of 10 cm
# Z in 1 bin  of 10 cm
# EnergyDeposit ( MeV ) : Sum   
0, 0, 0, 1157.761108398438
1, 0, 0, 1151.662719726562
2, 0, 0, 1166.260009765625
3, 0, 0, 1166.034545898438
4, 0, 0, 1179.269775390625
5, 0, 0, 1178.791748046875
6, 0, 0, 1186.400024414062
7, 0, 0, 1193.199829101562
8, 0, 0, 1198.29296875
9, 0, 0, 1204.442993164062
10, 0, 0, 1213.751708984375
11, 0, 0, 1217.164184570312
12, 0, 0, 1223.939331054688
13, 0, 0, 1229.580688476562
14, 0, 0, 1238.710205078125
15, 0, 0, 1246.161865234375
16, 0, 0, 1261.640258789062
17, 0, 0, 1272.610595703125
18, 0, 0, 1278.532104492188
19, 0, 0, 1278.33349609375
20, 0, 0, 1290.036743164062
21, 0, 0, 1303.108764648438
22, 0, 0, 1307.644653320312
23, 0, 0, 1320.482543945312
24, 0, 0, 1323.2373046875
25, 0, 0, 1342.595947265625
26, 0, 0, 1339.924926757812
27, 0, 0, 1349.9619140625
28, 0, 0, 1362.616088867188
29, 0, 0, 1381.942626953125
30, 0, 0, 1387.218994140625
31, 0, 0, 1402.399047851562
32, 0, 0, 1418.087890625
33, 0, 0, 1436.004272460938
34, 0, 0, 1445.041137695312
35, 0, 0, 1451.9814453125
36, 0, 0, 1454.456176757812
37, 0, 0, 1480.568115234375
38, 0, 0, 1492.755859375
39, 0, 0, 1496.186401367188
40, 0, 0, 1522.589721679688
41, 0, 0, 1543.275512695312
42, 0, 0, 1557.443725585938
43, 0, 0, 1576.929321289062
44, 0, 0, 1593.6591796875
45, 0, 0, 1621.302124023438
46, 0, 0, 1626.879760742188
47, 0, 0, 1656.662353515625
48, 0, 0, 1681.0224609375
49, 0, 0, 1702.604370117188
50, 0, 0, 1725.759521484375
51, 0, 0, 1752.97998046875
52, 0, 0, 1766.081665039062
53, 0, 0, 1803.999145507812
54, 0, 0, 1832.542114257812
55, 0, 0, 1851.385864257812
56, 0, 0, 1896.987548828125
57, 0, 0, 1934.88037109375
58, 0, 0, 1970.684204101562
59, 0, 0, 2008.9462890625
60, 0, 0, 2052.57421875
61, 0, 0, 2097.037353515625
62, 0, 0, 2157.408447265625
63, 0, 0, 2207.709716796875
64, 0, 0, 2269.596923828125
65, 0, 0, 2326.12109375
66, 0, 0, 2404.629150390625
67, 0, 0, 2500.213134765625
68, 0, 0, 2577.585205078125
69, 0, 0, 2678.268310546875
70, 0, 0, 2813.3291015625
71, 0, 0, 2950.61767578125
72, 0, 0, 3123.822021484375
73, 0, 0, 3334.67529296875
74, 0, 0, 3608.35693359375
75, 0, 0, 3998.020263671875
76, 0, 0, 4558.7421875
77, 0, 0, 5354.96435546875
78, 0, 0, 6017.083984375
79, 0, 0, 6026.07958984375
80, 0, 0, 4537.92333984375
81, 0, 0, 2572.693603515625
82, 0, 0, 1054.7861328125
83, 0, 0, 284.2457885742188
84, 0, 0, 112.1447677612305
85, 0, 0, 76.65254974365234
86, 0, 0, 63.41439819335938
87, 0, 0, 45.63772583007812
88, 0, 0, 27.74424743652344
89, 0, 0, 33.25228118896484
90, 0, 0, 51.85226058959961
91, 0, 0, 17.71142768859863
92, 0, 0, 25.19585990905762
93, 0, 0, 19.57081985473633
94, 0, 0, 6.363288879394531
95, 0, 0, 0
96, 0, 0, 0
97, 0, 0, 0
98, 0, 0, 0
99, 0, 0, 0
100, 0, 0, 0
101, 0, 0, 0
102, 0, 0, 0.008448242209851742
103, 0, 0, 0
104, 0, 0, 0
105, 0, 0, 0.0004554863553494215
106, 0, 0, 0
107, 0, 0, 0.04440131038427353
108, 0, 0, 0
109, 0, 0, 0
110, 0, 0, 0.01188434660434723
111, 0, 0, 0
112, 0, 0, 0.003753383178263903
113, 0, 0, 0
114, 0, 0, 0
115, 0, 0, 0
116, 0, 0, 0.008148222230374813
117, 0, 0, 0
118, 0, 0, 0.001345483236946166
119, 0, 0, 0
120, 0, 0, 0.002055543474853039
121, 0, 0, 0
122, 0, 0, 0
123, 0, 0, 0
124, 0, 0, 0
125, 0, 0, 0
126, 0, 0, 0
127, 0, 0, 0
128, 0, 0, 0
129, 0, 0, 0
130, 0, 0, 0
131, 0, 0, 0
132, 0, 0, 0
133, 0, 0, 0
134, 0, 0, 0
135, 0, 0, 0
136, 0, 0, 0
137, 0, 0, 0
138, 0, 0, 0
139, 0, 0, 0
140, 0, 0, 0
141, 0, 0, 0
142, 0, 0, 0
143, 0, 0, 0.0588250607252121
144, 0, 0, 0
145, 0, 0, 0
146, 0, 0, 0
147, 0, 0, 0
148, 0, 0, 0
149, 0, 0, 0
150, 0, 0, 0
151, 0, 0, 0
152, 0, 0, 0
153, 0, 0, 0
154, 0, 0, 0
155, 0, 0, 0
156, 0, 0, 0
157, 0, 0, 0
158, 0, 0, 0
159, 0, 0, 0
160, 0, 0, 0
161, 0, 0, 0
162, 0, 0, 0
163, 0, 0, 0
164, 0, 0, 0
165, 0, 0, 0
166, 0, 0, 0
167, 0, 0, 0
168, 0, 0, 0
169, 0, 0, 0
170, 0, 0, 0
171, 0, 0, 0
172, 0, 0, 0
173, 0, 0, 0
174, 0, 0, 0
175, 0, 0, 0
176, 0, 0, 0
177, 0, 0, 0
178, 0, 0, 0
179, 0, 0, 0
