# TOPAS Version: 3.3.p1
# Parameter File: Simple_Pattern.txt
# Results for scorer MLIC_Scorer
# Scored in component: MLIC
# X in 180 bins of 0.222222 cm
# Y in 1 bin  of 10 cm
# Z in 1 bin  of 10 cm
# EnergyDeposit ( MeV ) : Sum   
0, 0, 0, 1092.794677734375
1, 0, 0, 1094.008911132812
2, 0, 0, 1097.761840820312
3, 0, 0, 1103.212158203125
4, 0, 0, 1107.232788085938
5, 0, 0, 1119.52099609375
6, 0, 0, 1104.93505859375
7, 0, 0, 1118.454833984375
8, 0, 0, 1124.270263671875
9, 0, 0, 1123.407348632812
10, 0, 0, 1134.1240234375
11, 0, 0, 1137.09326171875
12, 0, 0, 1141.246704101562
13, 0, 0, 1156.614868164062
14, 0, 0, 1153.15966796875
15, 0, 0, 1168.332763671875
16, 0, 0, 1168.634399414062
17, 0, 0, 1173.964599609375
18, 0, 0, 1183.239135742188
19, 0, 0, 1188.059692382812
20, 0, 0, 1200.1279296875
21, 0, 0, 1205.4921875
22, 0, 0, 1212.658325195312
23, 0, 0, 1219.07958984375
24, 0, 0, 1224.943969726562
25, 0, 0, 1227.994995117188
26, 0, 0, 1236.792846679688
27, 0, 0, 1248.767578125
28, 0, 0, 1247.806396484375
29, 0, 0, 1268.738525390625
30, 0, 0, 1267.611206054688
31, 0, 0, 1276.054443359375
32, 0, 0, 1289.239990234375
33, 0, 0, 1291.141723632812
34, 0, 0, 1294.809936523438
35, 0, 0, 1306.493041992188
36, 0, 0, 1317.810913085938
37, 0, 0, 1322.561401367188
38, 0, 0, 1332.915771484375
39, 0, 0, 1351.029052734375
40, 0, 0, 1363.916015625
41, 0, 0, 1368.9765625
42, 0, 0, 1389.230834960938
43, 0, 0, 1396.696166992188
44, 0, 0, 1406.75830078125
45, 0, 0, 1423.791748046875
46, 0, 0, 1429.638671875
47, 0, 0, 1437.314697265625
48, 0, 0, 1456.903564453125
49, 0, 0, 1470.364135742188
50, 0, 0, 1492.612182617188
51, 0, 0, 1498.618896484375
52, 0, 0, 1510.746215820312
53, 0, 0, 1525.911376953125
54, 0, 0, 1545.077026367188
55, 0, 0, 1563.752685546875
56, 0, 0, 1585.249267578125
57, 0, 0, 1600.306640625
58, 0, 0, 1620.076293945312
59, 0, 0, 1642.480834960938
60, 0, 0, 1658.316772460938
61, 0, 0, 1688.972900390625
62, 0, 0, 1706.022583007812
63, 0, 0, 1727.54248046875
64, 0, 0, 1750.217895507812
65, 0, 0, 1777.05908203125
66, 0, 0, 1812.574584960938
67, 0, 0, 1843.677124023438
68, 0, 0, 1861.673095703125
69, 0, 0, 1908.271484375
70, 0, 0, 1942.421508789062
71, 0, 0, 1972.715454101562
72, 0, 0, 2017.215454101562
73, 0, 0, 2068.830078125
74, 0, 0, 2106.4462890625
75, 0, 0, 2155.006591796875
76, 0, 0, 2209.533203125
77, 0, 0, 2286.471435546875
78, 0, 0, 2348.546630859375
79, 0, 0, 2421.333984375
80, 0, 0, 2507.4326171875
81, 0, 0, 2591.89990234375
82, 0, 0, 2706.435302734375
83, 0, 0, 2822.377197265625
84, 0, 0, 2963.544189453125
85, 0, 0, 3154.144775390625
86, 0, 0, 3357.693359375
87, 0, 0, 3657.083984375
88, 0, 0, 4068.71533203125
89, 0, 0, 4671.9599609375
90, 0, 0, 5412.30224609375
91, 0, 0, 6231.07666015625
92, 0, 0, 5849.41748046875
93, 0, 0, 4392.412109375
94, 0, 0, 2130.157958984375
95, 0, 0, 700.095947265625
96, 0, 0, 128.0352478027344
97, 0, 0, 21.49758529663086
98, 0, 0, 0
99, 0, 0, 0
100, 0, 0, 0
101, 0, 0, 0
102, 0, 0, 0
103, 0, 0, 0
104, 0, 0, 0
105, 0, 0, 0.01242250204086304
106, 0, 0, 0
107, 0, 0, 0
108, 0, 0, 0
109, 0, 0, 0
110, 0, 0, 0
111, 0, 0, 0
112, 0, 0, 0
113, 0, 0, 0
114, 0, 0, 0
115, 0, 0, 0
116, 0, 0, 0
117, 0, 0, 0
118, 0, 0, 0
119, 0, 0, 0
120, 0, 0, 0
121, 0, 0, 0
122, 0, 0, 0
123, 0, 0, 0
124, 0, 0, 0
125, 0, 0, 0
126, 0, 0, 0
127, 0, 0, 0
128, 0, 0, 0
129, 0, 0, 0
130, 0, 0, 0
131, 0, 0, 0
132, 0, 0, 0
133, 0, 0, 0
134, 0, 0, 0
135, 0, 0, 0
136, 0, 0, 0
137, 0, 0, 0
138, 0, 0, 0
139, 0, 0, 0
140, 0, 0, 0
141, 0, 0, 0
142, 0, 0, 0
143, 0, 0, 0
144, 0, 0, 0
145, 0, 0, 0
146, 0, 0, 0
147, 0, 0, 0
148, 0, 0, 0
149, 0, 0, 0
150, 0, 0, 0
151, 0, 0, 0
152, 0, 0, 0
153, 0, 0, 0
154, 0, 0, 0
155, 0, 0, 0
156, 0, 0, 0
157, 0, 0, 0
158, 0, 0, 0
159, 0, 0, 0
160, 0, 0, 0
161, 0, 0, 0
162, 0, 0, 0
163, 0, 0, 0
164, 0, 0, 0
165, 0, 0, 0
166, 0, 0, 0
167, 0, 0, 0
168, 0, 0, 0
169, 0, 0, 0
170, 0, 0, 0
171, 0, 0, 0.02799529395997524
172, 0, 0, 0
173, 0, 0, 0
174, 0, 0, 0
175, 0, 0, 0
176, 0, 0, 0
177, 0, 0, 0
178, 0, 0, 0
179, 0, 0, 0
