# TOPAS Version: 3.3.p1
# Parameter File: Simple_Pattern.txt
# Results for scorer MLIC_Scorer
# Scored in component: MLIC
# X in 165 bins of 0.2 cm
# Y in 1 bin  of 10 cm
# Z in 1 bin  of 10 cm
# EnergyDeposit ( MeV ) : Sum   
0, 0, 0, 936.4537353515625
1, 0, 0, 945.3200073242188
2, 0, 0, 947.547119140625
3, 0, 0, 951.8857421875
4, 0, 0, 950.192626953125
5, 0, 0, 953.7267456054688
6, 0, 0, 962.1456298828125
7, 0, 0, 948.407470703125
8, 0, 0, 961.1885986328125
9, 0, 0, 969.6168212890625
10, 0, 0, 974.2428588867188
11, 0, 0, 982.2672729492188
12, 0, 0, 974.824462890625
13, 0, 0, 980.8463134765625
14, 0, 0, 981.0736083984375
15, 0, 0, 990.678466796875
16, 0, 0, 989.7301025390625
17, 0, 0, 998.149658203125
18, 0, 0, 997.2446899414062
19, 0, 0, 1005.401611328125
20, 0, 0, 1011.52685546875
21, 0, 0, 1017.946472167969
22, 0, 0, 1015.328369140625
23, 0, 0, 1021.226135253906
24, 0, 0, 1020.958679199219
25, 0, 0, 1025.9404296875
26, 0, 0, 1028.663208007812
27, 0, 0, 1036.885986328125
28, 0, 0, 1041.971557617188
29, 0, 0, 1047.070068359375
30, 0, 0, 1051.741455078125
31, 0, 0, 1057.357666015625
32, 0, 0, 1061.02734375
33, 0, 0, 1065.77001953125
34, 0, 0, 1076.965454101562
35, 0, 0, 1075.79736328125
36, 0, 0, 1085.55224609375
37, 0, 0, 1087.81689453125
38, 0, 0, 1099.994018554688
39, 0, 0, 1090.4638671875
40, 0, 0, 1098.52587890625
41, 0, 0, 1114.802368164062
42, 0, 0, 1112.814086914062
43, 0, 0, 1124.220092773438
44, 0, 0, 1135.815795898438
45, 0, 0, 1131.7802734375
46, 0, 0, 1147.15576171875
47, 0, 0, 1157.687133789062
48, 0, 0, 1156.261596679688
49, 0, 0, 1157.82080078125
50, 0, 0, 1168.778076171875
51, 0, 0, 1177.312622070312
52, 0, 0, 1179.6669921875
53, 0, 0, 1196.856201171875
54, 0, 0, 1199.49365234375
55, 0, 0, 1221.18798828125
56, 0, 0, 1223.163818359375
57, 0, 0, 1225.121459960938
58, 0, 0, 1237.322387695312
59, 0, 0, 1242.623168945312
60, 0, 0, 1255.416381835938
61, 0, 0, 1263.689331054688
62, 0, 0, 1275.162231445312
63, 0, 0, 1287.83984375
64, 0, 0, 1288.6953125
65, 0, 0, 1298.276489257812
66, 0, 0, 1311.427124023438
67, 0, 0, 1334.259399414062
68, 0, 0, 1343.023803710938
69, 0, 0, 1353.717895507812
70, 0, 0, 1369.344848632812
71, 0, 0, 1375.755859375
72, 0, 0, 1388.726440429688
73, 0, 0, 1403.610595703125
74, 0, 0, 1409.885986328125
75, 0, 0, 1428.175048828125
76, 0, 0, 1439.639282226562
77, 0, 0, 1458.4775390625
78, 0, 0, 1475.173706054688
79, 0, 0, 1495.475219726562
80, 0, 0, 1516.969116210938
81, 0, 0, 1528.596313476562
82, 0, 0, 1540.05224609375
83, 0, 0, 1566.840209960938
84, 0, 0, 1583.668090820312
85, 0, 0, 1611.019287109375
86, 0, 0, 1632.455322265625
87, 0, 0, 1656.425659179688
88, 0, 0, 1689.984375
89, 0, 0, 1712.484619140625
90, 0, 0, 1738.548217773438
91, 0, 0, 1757.55908203125
92, 0, 0, 1799.9091796875
93, 0, 0, 1834.73974609375
94, 0, 0, 1862.53759765625
95, 0, 0, 1908.946533203125
96, 0, 0, 1943.12890625
97, 0, 0, 1991.38330078125
98, 0, 0, 2040.498168945312
99, 0, 0, 2090.9482421875
100, 0, 0, 2161.876953125
101, 0, 0, 2224.53271484375
102, 0, 0, 2309.134033203125
103, 0, 0, 2379.159912109375
104, 0, 0, 2477.393798828125
105, 0, 0, 2591.043212890625
106, 0, 0, 2716.567138671875
107, 0, 0, 2871.76806640625
108, 0, 0, 3070.927490234375
109, 0, 0, 3316.550048828125
110, 0, 0, 3644.86669921875
111, 0, 0, 4125.9501953125
112, 0, 0, 4752.53173828125
113, 0, 0, 5359.84716796875
114, 0, 0, 5355.30712890625
115, 0, 0, 4229.2978515625
116, 0, 0, 2876.268798828125
117, 0, 0, 1491.607177734375
118, 0, 0, 586.7605590820312
119, 0, 0, 113.3090744018555
120, 0, 0, 13.36392307281494
121, 0, 0, 0
122, 0, 0, 0
123, 0, 0, 0
124, 0, 0, 0
125, 0, 0, 0
126, 0, 0, 0
127, 0, 0, 0
128, 0, 0, 0
129, 0, 0, 0
130, 0, 0, 0
131, 0, 0, 0
132, 0, 0, 0
133, 0, 0, 0
134, 0, 0, 0
135, 0, 0, 0
136, 0, 0, 0
137, 0, 0, 0
138, 0, 0, 0
139, 0, 0, 0
140, 0, 0, 0
141, 0, 0, 0
142, 0, 0, 0
143, 0, 0, 0
144, 0, 0, 0
145, 0, 0, 0
146, 0, 0, 0
147, 0, 0, 0
148, 0, 0, 0
149, 0, 0, 0
150, 0, 0, 0
151, 0, 0, 0
152, 0, 0, 0
153, 0, 0, 0
154, 0, 0, 0
155, 0, 0, 0
156, 0, 0, 0
157, 0, 0, 0.02803956717252731
158, 0, 0, 0
159, 0, 0, 0
160, 0, 0, 0
161, 0, 0, 0
162, 0, 0, 0
163, 0, 0, 0
164, 0, 0, 0
