# TOPAS Version: 3.3.p1
# Parameter File: Simple_Pattern.txt
# Results for scorer MLIC_Scorer
# Scored in component: MLIC
# X in 180 bins of 0.222222 cm
# Y in 1 bin  of 10 cm
# Z in 1 bin  of 10 cm
# EnergyDeposit ( MeV ) : Sum   
0, 0, 0, 1080.167236328125
1, 0, 0, 1093.289794921875
2, 0, 0, 1094.942749023438
3, 0, 0, 1101.956787109375
4, 0, 0, 1099.81982421875
5, 0, 0, 1112.144775390625
6, 0, 0, 1107.417358398438
7, 0, 0, 1108.564453125
8, 0, 0, 1123.194213867188
9, 0, 0, 1119.6904296875
10, 0, 0, 1127.66455078125
11, 0, 0, 1131.12451171875
12, 0, 0, 1148.387084960938
13, 0, 0, 1137.325561523438
14, 0, 0, 1144.98046875
15, 0, 0, 1150.852661132812
16, 0, 0, 1150.89794921875
17, 0, 0, 1159.917358398438
18, 0, 0, 1177.457153320312
19, 0, 0, 1163.297607421875
20, 0, 0, 1177.0712890625
21, 0, 0, 1181.113891601562
22, 0, 0, 1189.4404296875
23, 0, 0, 1192.204467773438
24, 0, 0, 1193.548583984375
25, 0, 0, 1197.423950195312
26, 0, 0, 1197.778198242188
27, 0, 0, 1207.380615234375
28, 0, 0, 1217.2333984375
29, 0, 0, 1228.211547851562
30, 0, 0, 1211.947021484375
31, 0, 0, 1234.772094726562
32, 0, 0, 1239.181518554688
33, 0, 0, 1239.310668945312
34, 0, 0, 1241.104370117188
35, 0, 0, 1238.466552734375
36, 0, 0, 1254.115844726562
37, 0, 0, 1264.450805664062
38, 0, 0, 1265.1083984375
39, 0, 0, 1276.456176757812
40, 0, 0, 1276.553100585938
41, 0, 0, 1285.32763671875
42, 0, 0, 1291.443237304688
43, 0, 0, 1294.027709960938
44, 0, 0, 1304.237548828125
45, 0, 0, 1308.561279296875
46, 0, 0, 1306.102294921875
47, 0, 0, 1319.649169921875
48, 0, 0, 1322.97998046875
49, 0, 0, 1330.96484375
50, 0, 0, 1343.830200195312
51, 0, 0, 1358.365966796875
52, 0, 0, 1352.261840820312
53, 0, 0, 1359.962036132812
54, 0, 0, 1368.30908203125
55, 0, 0, 1386.733642578125
56, 0, 0, 1385.811157226562
57, 0, 0, 1399.138793945312
58, 0, 0, 1414.76513671875
59, 0, 0, 1421.100341796875
60, 0, 0, 1433.3916015625
61, 0, 0, 1440.035888671875
62, 0, 0, 1450.572021484375
63, 0, 0, 1471.638061523438
64, 0, 0, 1489.905029296875
65, 0, 0, 1493.617065429688
66, 0, 0, 1502.466796875
67, 0, 0, 1530.60009765625
68, 0, 0, 1554.653686523438
69, 0, 0, 1577.735595703125
70, 0, 0, 1607.0810546875
71, 0, 0, 1616.869750976562
72, 0, 0, 1649.147583007812
73, 0, 0, 1678.894653320312
74, 0, 0, 1716.674926757812
75, 0, 0, 1744.192260742188
76, 0, 0, 1781.391723632812
77, 0, 0, 1817.410400390625
78, 0, 0, 1861.56689453125
79, 0, 0, 1913.157592773438
80, 0, 0, 1968.061767578125
81, 0, 0, 2033.050415039062
82, 0, 0, 2107.3896484375
83, 0, 0, 2185.038330078125
84, 0, 0, 2293.28125
85, 0, 0, 2413.374267578125
86, 0, 0, 2576.49609375
87, 0, 0, 2766.011474609375
88, 0, 0, 3032.580810546875
89, 0, 0, 3486.345703125
90, 0, 0, 4114.80029296875
91, 0, 0, 4685.80712890625
92, 0, 0, 4313.18505859375
93, 0, 0, 3196.1220703125
94, 0, 0, 1806.54150390625
95, 0, 0, 576.4307250976562
96, 0, 0, 113.3607025146484
97, 0, 0, 24.25316047668457
98, 0, 0, 0.06764911860227585
99, 0, 0, 0.3508566915988922
100, 0, 0, 0.001913958578370512
101, 0, 0, 0
102, 0, 0, 0.02494155056774616
103, 0, 0, 0.03443429991602898
104, 0, 0, 0.01072569284588099
105, 0, 0, 0.01237807888537645
106, 0, 0, 0
107, 0, 0, 0.003823630511760712
108, 0, 0, 0.05883375555276871
109, 0, 0, 0
110, 0, 0, 0
111, 0, 0, 0
112, 0, 0, 0.02286725305020809
113, 0, 0, 0.007116233929991722
114, 0, 0, 0
115, 0, 0, 0.00670784804970026
116, 0, 0, 0
117, 0, 0, 0
118, 0, 0, 0.0178279597312212
119, 0, 0, 0.03263498470187187
120, 0, 0, 0.0892137885093689
121, 0, 0, 0
122, 0, 0, 0
123, 0, 0, 0
124, 0, 0, 0.0004610387841239572
125, 0, 0, 0
126, 0, 0, 0
127, 0, 0, 0.2008452862501144
128, 0, 0, 0
129, 0, 0, 0.03035954385995865
130, 0, 0, 0.04975301772356033
131, 0, 0, 0.02677996642887592
132, 0, 0, 0
133, 0, 0, 0
134, 0, 0, 0
135, 0, 0, 0.009076438844203949
136, 0, 0, 0
137, 0, 0, 0.02135573700070381
138, 0, 0, 0.0201416052877903
139, 0, 0, 0
140, 0, 0, 0.2367368638515472
141, 0, 0, 0.02706144563853741
142, 0, 0, 0.05238949134945869
143, 0, 0, 0.004782678093761206
144, 0, 0, 0.02682624757289886
145, 0, 0, 0
146, 0, 0, 0.008522190153598785
147, 0, 0, 0
148, 0, 0, 0.05971305444836617
149, 0, 0, 0
150, 0, 0, 0.03459265828132629
151, 0, 0, 0.016193563118577
152, 0, 0, 0.08150292932987213
153, 0, 0, 0
154, 0, 0, 0.1164587438106537
155, 0, 0, 0.04381134733557701
156, 0, 0, 0
157, 0, 0, 0
158, 0, 0, 0.09505906701087952
159, 0, 0, 0
160, 0, 0, 0
161, 0, 0, 0
162, 0, 0, 0
163, 0, 0, 0
164, 0, 0, 0
165, 0, 0, 0
166, 0, 0, 0
167, 0, 0, 0.04355506598949432
168, 0, 0, 0
169, 0, 0, 0.01424737367779016
170, 0, 0, 0
171, 0, 0, 0
172, 0, 0, 0.04588733613491058
173, 0, 0, 0.02269390970468521
174, 0, 0, 0.01263091340661049
175, 0, 0, 0.08915490657091141
176, 0, 0, 0.01969719864428043
177, 0, 0, 0.01158753037452698
178, 0, 0, 0.02220353670418262
179, 0, 0, 0.02177938260138035
