# TOPAS Version: 3.3.p1
# Parameter File: Simple_Pattern.txt
# Results for scorer MLIC_Scorer
# Scored in component: MLIC
# X in 180 bins of 0.222222 cm
# Y in 1 bin  of 10 cm
# Z in 1 bin  of 10 cm
# EnergyDeposit ( MeV ) : Sum   
0, 0, 0, 1085.136840820312
1, 0, 0, 1087.963989257812
2, 0, 0, 1084.648071289062
3, 0, 0, 1105.938842773438
4, 0, 0, 1105.844360351562
5, 0, 0, 1113.922607421875
6, 0, 0, 1120.335083007812
7, 0, 0, 1115.601440429688
8, 0, 0, 1122.81884765625
9, 0, 0, 1130.40087890625
10, 0, 0, 1141.914428710938
11, 0, 0, 1143.613159179688
12, 0, 0, 1150.751220703125
13, 0, 0, 1148.1171875
14, 0, 0, 1155.399658203125
15, 0, 0, 1160.147827148438
16, 0, 0, 1171.406494140625
17, 0, 0, 1164.732421875
18, 0, 0, 1185.590576171875
19, 0, 0, 1188.554321289062
20, 0, 0, 1190.953369140625
21, 0, 0, 1199.470825195312
22, 0, 0, 1202.054077148438
23, 0, 0, 1209.003662109375
24, 0, 0, 1221.961669921875
25, 0, 0, 1228.44091796875
26, 0, 0, 1236.72216796875
27, 0, 0, 1242.085571289062
28, 0, 0, 1252.50244140625
29, 0, 0, 1263.420288085938
30, 0, 0, 1267.358520507812
31, 0, 0, 1274.536987304688
32, 0, 0, 1284.4677734375
33, 0, 0, 1300.703369140625
34, 0, 0, 1303.275390625
35, 0, 0, 1318.0068359375
36, 0, 0, 1318.56787109375
37, 0, 0, 1327.193481445312
38, 0, 0, 1340.353759765625
39, 0, 0, 1353.3955078125
40, 0, 0, 1363.815063476562
41, 0, 0, 1372.63037109375
42, 0, 0, 1379.284545898438
43, 0, 0, 1392.41455078125
44, 0, 0, 1411.620239257812
45, 0, 0, 1418.936767578125
46, 0, 0, 1433.458374023438
47, 0, 0, 1446.567260742188
48, 0, 0, 1458.893920898438
49, 0, 0, 1474.92333984375
50, 0, 0, 1486.472045898438
51, 0, 0, 1499.060913085938
52, 0, 0, 1514.609252929688
53, 0, 0, 1528.332397460938
54, 0, 0, 1547.282592773438
55, 0, 0, 1559.3046875
56, 0, 0, 1582.552734375
57, 0, 0, 1596.91357421875
58, 0, 0, 1616.709838867188
59, 0, 0, 1645.151245117188
60, 0, 0, 1662.481201171875
61, 0, 0, 1690.598388671875
62, 0, 0, 1713.937622070312
63, 0, 0, 1719.077026367188
64, 0, 0, 1758.671752929688
65, 0, 0, 1781.69287109375
66, 0, 0, 1807.50341796875
67, 0, 0, 1832.615600585938
68, 0, 0, 1870.157836914062
69, 0, 0, 1906.337036132812
70, 0, 0, 1947.494140625
71, 0, 0, 1991.357299804688
72, 0, 0, 2024.64794921875
73, 0, 0, 2058.335205078125
74, 0, 0, 2121.774658203125
75, 0, 0, 2167.876953125
76, 0, 0, 2220.281982421875
77, 0, 0, 2282.604736328125
78, 0, 0, 2347.309814453125
79, 0, 0, 2433.615234375
80, 0, 0, 2518.734130859375
81, 0, 0, 2603.46240234375
82, 0, 0, 2715.653564453125
83, 0, 0, 2841.57421875
84, 0, 0, 2982.7841796875
85, 0, 0, 3168.53076171875
86, 0, 0, 3382.517822265625
87, 0, 0, 3681.173828125
88, 0, 0, 4073.0380859375
89, 0, 0, 4787.6845703125
90, 0, 0, 5585.41845703125
91, 0, 0, 6116.65185546875
92, 0, 0, 5889.13427734375
93, 0, 0, 4282.80517578125
94, 0, 0, 2244.01025390625
95, 0, 0, 736.6166381835938
96, 0, 0, 142.9140472412109
97, 0, 0, 0.02889847010374069
98, 0, 0, 0
99, 0, 0, 0.001009521074593067
100, 0, 0, 0
101, 0, 0, 0
102, 0, 0, 0.002684268169105053
103, 0, 0, 0
104, 0, 0, 0
105, 0, 0, 0
106, 0, 0, 0
107, 0, 0, 0
108, 0, 0, 0
109, 0, 0, 0
110, 0, 0, 0
111, 0, 0, 0
112, 0, 0, 0
113, 0, 0, 0
114, 0, 0, 0
115, 0, 0, 0
116, 0, 0, 0
117, 0, 0, 0
118, 0, 0, 0
119, 0, 0, 0
120, 0, 0, 0
121, 0, 0, 0
122, 0, 0, 0
123, 0, 0, 0
124, 0, 0, 0
125, 0, 0, 0
126, 0, 0, 0
127, 0, 0, 0
128, 0, 0, 0
129, 0, 0, 0
130, 0, 0, 0
131, 0, 0, 0
132, 0, 0, 0
133, 0, 0, 0
134, 0, 0, 0
135, 0, 0, 0
136, 0, 0, 0
137, 0, 0, 0
138, 0, 0, 0
139, 0, 0, 0
140, 0, 0, 0
141, 0, 0, 0
142, 0, 0, 0
143, 0, 0, 0
144, 0, 0, 0
145, 0, 0, 0
146, 0, 0, 0
147, 0, 0, 0
148, 0, 0, 0
149, 0, 0, 0
150, 0, 0, 0
151, 0, 0, 0
152, 0, 0, 0
153, 0, 0, 0
154, 0, 0, 0
155, 0, 0, 0
156, 0, 0, 0
157, 0, 0, 0
158, 0, 0, 0
159, 0, 0, 0
160, 0, 0, 0
161, 0, 0, 0
162, 0, 0, 0
163, 0, 0, 0
164, 0, 0, 0
165, 0, 0, 0
166, 0, 0, 0
167, 0, 0, 0
168, 0, 0, 0
169, 0, 0, 0
170, 0, 0, 0
171, 0, 0, 0
172, 0, 0, 0
173, 0, 0, 0
174, 0, 0, 0
175, 0, 0, 0
176, 0, 0, 0
177, 0, 0, 0
178, 0, 0, 0
179, 0, 0, 0
