# TOPAS Version: 3.3.p1
# Parameter File: Simple_Pattern.txt
# Results for scorer MLIC_Scorer
# Scored in component: MLIC
# X in 165 bins of 0.2 cm
# Y in 1 bin  of 10 cm
# Z in 1 bin  of 10 cm
# EnergyDeposit ( MeV ) : Sum   
0, 0, 0, 983.7496948242188
1, 0, 0, 993.6066284179688
2, 0, 0, 983.32421875
3, 0, 0, 1005.043579101562
4, 0, 0, 1010.2412109375
5, 0, 0, 1011.039489746094
6, 0, 0, 1008.722045898438
7, 0, 0, 1003.571228027344
8, 0, 0, 1027.224365234375
9, 0, 0, 1027.685424804688
10, 0, 0, 1030.390747070312
11, 0, 0, 1033.803466796875
12, 0, 0, 1034.111328125
13, 0, 0, 1042.706909179688
14, 0, 0, 1043.749267578125
15, 0, 0, 1057.416259765625
16, 0, 0, 1058.71533203125
17, 0, 0, 1060.230224609375
18, 0, 0, 1066.919555664062
19, 0, 0, 1072.655883789062
20, 0, 0, 1073.053344726562
21, 0, 0, 1074.0986328125
22, 0, 0, 1085.356689453125
23, 0, 0, 1096.179321289062
24, 0, 0, 1096.527954101562
25, 0, 0, 1104.449584960938
26, 0, 0, 1113.849609375
27, 0, 0, 1112.227172851562
28, 0, 0, 1114.088500976562
29, 0, 0, 1129.436889648438
30, 0, 0, 1130.261474609375
31, 0, 0, 1142.576416015625
32, 0, 0, 1151.41162109375
33, 0, 0, 1154.079345703125
34, 0, 0, 1157.984497070312
35, 0, 0, 1164.271118164062
36, 0, 0, 1177.502563476562
37, 0, 0, 1178.427978515625
38, 0, 0, 1194.12158203125
39, 0, 0, 1201.5576171875
40, 0, 0, 1201.046264648438
41, 0, 0, 1208.0888671875
42, 0, 0, 1214.883056640625
43, 0, 0, 1227.265258789062
44, 0, 0, 1238.859130859375
45, 0, 0, 1244.487182617188
46, 0, 0, 1263.926879882812
47, 0, 0, 1269.176025390625
48, 0, 0, 1274.983154296875
49, 0, 0, 1278.80810546875
50, 0, 0, 1299.566162109375
51, 0, 0, 1300.382690429688
52, 0, 0, 1316.56396484375
53, 0, 0, 1329.97998046875
54, 0, 0, 1339.36328125
55, 0, 0, 1358.082397460938
56, 0, 0, 1362.947265625
57, 0, 0, 1378.95654296875
58, 0, 0, 1399.934936523438
59, 0, 0, 1407.530639648438
60, 0, 0, 1429.518676757812
61, 0, 0, 1434.51123046875
62, 0, 0, 1447.115234375
63, 0, 0, 1466.55517578125
64, 0, 0, 1485.215698242188
65, 0, 0, 1508.11669921875
66, 0, 0, 1517.065063476562
67, 0, 0, 1542.280395507812
68, 0, 0, 1562.790649414062
69, 0, 0, 1578.208374023438
70, 0, 0, 1603.393188476562
71, 0, 0, 1623.16064453125
72, 0, 0, 1655.666625976562
73, 0, 0, 1673.549194335938
74, 0, 0, 1703.89794921875
75, 0, 0, 1716.702758789062
76, 0, 0, 1765.188720703125
77, 0, 0, 1791.780395507812
78, 0, 0, 1820.82861328125
79, 0, 0, 1862.037841796875
80, 0, 0, 1902.327880859375
81, 0, 0, 1942.68994140625
82, 0, 0, 1982.963012695312
83, 0, 0, 2028.840087890625
84, 0, 0, 2087.447998046875
85, 0, 0, 2147.50732421875
86, 0, 0, 2220.22998046875
87, 0, 0, 2284.478759765625
88, 0, 0, 2365.17041015625
89, 0, 0, 2448.468017578125
90, 0, 0, 2558.640869140625
91, 0, 0, 2670.95068359375
92, 0, 0, 2812.5048828125
93, 0, 0, 2979.85009765625
94, 0, 0, 3198.364013671875
95, 0, 0, 3484.692626953125
96, 0, 0, 3878.81884765625
97, 0, 0, 4454.63525390625
98, 0, 0, 5059.419921875
99, 0, 0, 5648.44580078125
100, 0, 0, 5198.7119140625
101, 0, 0, 4146.7705078125
102, 0, 0, 2418.354736328125
103, 0, 0, 998.5060424804688
104, 0, 0, 284.2899169921875
105, 0, 0, 55.60353469848633
106, 0, 0, 18.38414001464844
107, 0, 0, 5.557181358337402
108, 0, 0, 8.034248352050781
109, 0, 0, 8.028075218200684
110, 0, 0, 0
111, 0, 0, 0
112, 0, 0, 0.001728825620375574
113, 0, 0, 0
114, 0, 0, 0
115, 0, 0, 0.003322747768834233
116, 0, 0, 0
117, 0, 0, 0
118, 0, 0, 0
119, 0, 0, 0
120, 0, 0, 0
121, 0, 0, 0
122, 0, 0, 0
123, 0, 0, 0
124, 0, 0, 0
125, 0, 0, 0
126, 0, 0, 0
127, 0, 0, 0
128, 0, 0, 0
129, 0, 0, 0
130, 0, 0, 0
131, 0, 0, 0
132, 0, 0, 0
133, 0, 0, 0
134, 0, 0, 0
135, 0, 0, 0
136, 0, 0, 0
137, 0, 0, 0
138, 0, 0, 0
139, 0, 0, 0
140, 0, 0, 0
141, 0, 0, 0
142, 0, 0, 0
143, 0, 0, 0
144, 0, 0, 0
145, 0, 0, 0
146, 0, 0, 0
147, 0, 0, 0
148, 0, 0, 0
149, 0, 0, 0
150, 0, 0, 0
151, 0, 0, 0
152, 0, 0, 0
153, 0, 0, 0
154, 0, 0, 0
155, 0, 0, 0
156, 0, 0, 0
157, 0, 0, 0
158, 0, 0, 0
159, 0, 0, 0
160, 0, 0, 0
161, 0, 0, 0
162, 0, 0, 0
163, 0, 0, 0
164, 0, 0, 0
