# TOPAS Version: 3.3.p1
# Parameter File: Simple_Pattern.txt
# Results for scorer MLIC_Scorer
# Scored in component: MLIC
# X in 165 bins of 0.2 cm
# Y in 1 bin  of 10 cm
# Z in 1 bin  of 10 cm
# EnergyDeposit ( MeV ) : Sum   
0, 0, 0, 942.5582885742188
1, 0, 0, 939.9379272460938
2, 0, 0, 947.1008911132812
3, 0, 0, 946.3619995117188
4, 0, 0, 958.1649780273438
5, 0, 0, 949.3809814453125
6, 0, 0, 961.1246337890625
7, 0, 0, 963.4937744140625
8, 0, 0, 968.2838134765625
9, 0, 0, 963.2987060546875
10, 0, 0, 969.2861328125
11, 0, 0, 976.8823852539062
12, 0, 0, 979.1881103515625
13, 0, 0, 982.1284790039062
14, 0, 0, 990.0700073242188
15, 0, 0, 990.9031372070312
16, 0, 0, 992.9619750976562
17, 0, 0, 1003.859191894531
18, 0, 0, 1004.151916503906
19, 0, 0, 996.21142578125
20, 0, 0, 1013.812561035156
21, 0, 0, 1011.566467285156
22, 0, 0, 1018.597412109375
23, 0, 0, 1020.857482910156
24, 0, 0, 1031.225219726562
25, 0, 0, 1035.741088867188
26, 0, 0, 1035.071899414062
27, 0, 0, 1037.321655273438
28, 0, 0, 1046.746215820312
29, 0, 0, 1046.479370117188
30, 0, 0, 1047.881469726562
31, 0, 0, 1060.675659179688
32, 0, 0, 1069.523071289062
33, 0, 0, 1066.29638671875
34, 0, 0, 1074.08154296875
35, 0, 0, 1082.387817382812
36, 0, 0, 1081.343627929688
37, 0, 0, 1099.270385742188
38, 0, 0, 1100.69091796875
39, 0, 0, 1100.403686523438
40, 0, 0, 1093.768798828125
41, 0, 0, 1119.146240234375
42, 0, 0, 1113.277099609375
43, 0, 0, 1131.767456054688
44, 0, 0, 1135.640869140625
45, 0, 0, 1142.074096679688
46, 0, 0, 1142.08984375
47, 0, 0, 1152.908203125
48, 0, 0, 1162.55859375
49, 0, 0, 1169.167114257812
50, 0, 0, 1168.213623046875
51, 0, 0, 1176.95947265625
52, 0, 0, 1191.579345703125
53, 0, 0, 1195.310913085938
54, 0, 0, 1201.60888671875
55, 0, 0, 1207.191284179688
56, 0, 0, 1220.53759765625
57, 0, 0, 1230.54296875
58, 0, 0, 1234.807250976562
59, 0, 0, 1244.3046875
60, 0, 0, 1253.570068359375
61, 0, 0, 1266.691650390625
62, 0, 0, 1267.7802734375
63, 0, 0, 1283.50244140625
64, 0, 0, 1290.263671875
65, 0, 0, 1304.725463867188
66, 0, 0, 1320.88720703125
67, 0, 0, 1316.8330078125
68, 0, 0, 1345.836791992188
69, 0, 0, 1345.639892578125
70, 0, 0, 1366.083984375
71, 0, 0, 1370.563232421875
72, 0, 0, 1389.307739257812
73, 0, 0, 1400.201904296875
74, 0, 0, 1417.65234375
75, 0, 0, 1428.703735351562
76, 0, 0, 1445.802978515625
77, 0, 0, 1460.608764648438
78, 0, 0, 1482.716552734375
79, 0, 0, 1492.415649414062
80, 0, 0, 1510.721069335938
81, 0, 0, 1535.161743164062
82, 0, 0, 1544.794189453125
83, 0, 0, 1567.24853515625
84, 0, 0, 1583.562255859375
85, 0, 0, 1610.59619140625
86, 0, 0, 1628.027954101562
87, 0, 0, 1654.703979492188
88, 0, 0, 1679.412475585938
89, 0, 0, 1705.733276367188
90, 0, 0, 1732.477294921875
91, 0, 0, 1768.499877929688
92, 0, 0, 1801.77294921875
93, 0, 0, 1821.866943359375
94, 0, 0, 1871.515014648438
95, 0, 0, 1907.951782226562
96, 0, 0, 1948.858154296875
97, 0, 0, 1988.614501953125
98, 0, 0, 2045.238037109375
99, 0, 0, 2093.607177734375
100, 0, 0, 2164.69775390625
101, 0, 0, 2230.385009765625
102, 0, 0, 2301.985595703125
103, 0, 0, 2390.6591796875
104, 0, 0, 2480.8076171875
105, 0, 0, 2596.399658203125
106, 0, 0, 2723.99462890625
107, 0, 0, 2887.644775390625
108, 0, 0, 3089.221923828125
109, 0, 0, 3339.439697265625
110, 0, 0, 3684.00146484375
111, 0, 0, 4188.0712890625
112, 0, 0, 4714.962890625
113, 0, 0, 5252.83251953125
114, 0, 0, 5142.80615234375
115, 0, 0, 4320.23876953125
116, 0, 0, 2887.5029296875
117, 0, 0, 1486.513549804688
118, 0, 0, 403.2709655761719
119, 0, 0, 86.10368347167969
120, 0, 0, 6.75007152557373
121, 0, 0, 0.007929733954370022
122, 0, 0, 0
123, 0, 0, 0
124, 0, 0, 0
125, 0, 0, 0
126, 0, 0, 0
127, 0, 0, 0
128, 0, 0, 0
129, 0, 0, 0.05931852385401726
130, 0, 0, 0.000126899205497466
131, 0, 0, 0
132, 0, 0, 0
133, 0, 0, 0.04043136537075043
134, 0, 0, 0
135, 0, 0, 0
136, 0, 0, 0
137, 0, 0, 0
138, 0, 0, 0
139, 0, 0, 0
140, 0, 0, 0
141, 0, 0, 0.005898028612136841
142, 0, 0, 0
143, 0, 0, 0
144, 0, 0, 0
145, 0, 0, 0
146, 0, 0, 0.02458907105028629
147, 0, 0, 0
148, 0, 0, 0
149, 0, 0, 0
150, 0, 0, 0
151, 0, 0, 0
152, 0, 0, 0
153, 0, 0, 0
154, 0, 0, 0
155, 0, 0, 0.02269900962710381
156, 0, 0, 0
157, 0, 0, 0
158, 0, 0, 0
159, 0, 0, 0
160, 0, 0, 0
161, 0, 0, 0
162, 0, 0, 0
163, 0, 0, 0
164, 0, 0, 0
