# TOPAS Version: 3.3.p1
# Parameter File: Simple_Pattern.txt
# Results for scorer MLIC_Scorer
# Scored in component: MLIC
# X in 180 bins of 0.222222 cm
# Y in 1 bin  of 10 cm
# Z in 1 bin  of 10 cm
# EnergyDeposit ( MeV ) : Sum   
0, 0, 0, 40.85424423217773
1, 0, 0, 42.23251724243164
2, 0, 0, 41.33714294433594
3, 0, 0, 43.09906005859375
4, 0, 0, 42.01215744018555
5, 0, 0, 42.25056457519531
6, 0, 0, 41.75355529785156
7, 0, 0, 44.32968902587891
8, 0, 0, 43.90251159667969
9, 0, 0, 43.37629699707031
10, 0, 0, 42.85026931762695
11, 0, 0, 43.08790969848633
12, 0, 0, 42.27159881591797
13, 0, 0, 42.69104766845703
14, 0, 0, 43.05784225463867
15, 0, 0, 43.99890899658203
16, 0, 0, 44.35793685913086
17, 0, 0, 44.25634765625
18, 0, 0, 45.7779426574707
19, 0, 0, 46.48447418212891
20, 0, 0, 45.69416809082031
21, 0, 0, 45.19833755493164
22, 0, 0, 46.17634201049805
23, 0, 0, 45.22631454467773
24, 0, 0, 46.90651321411133
25, 0, 0, 45.49037933349609
26, 0, 0, 46.02854156494141
27, 0, 0, 46.7783088684082
28, 0, 0, 46.03982162475586
29, 0, 0, 46.34162521362305
30, 0, 0, 48.71657180786133
31, 0, 0, 48.75204849243164
32, 0, 0, 48.32221603393555
33, 0, 0, 49.73519515991211
34, 0, 0, 50.5006103515625
35, 0, 0, 50.69149780273438
36, 0, 0, 50.50657272338867
37, 0, 0, 52.27426910400391
38, 0, 0, 50.98046493530273
39, 0, 0, 51.12654876708984
40, 0, 0, 50.07711029052734
41, 0, 0, 52.98134613037109
42, 0, 0, 53.32587051391602
43, 0, 0, 53.03797912597656
44, 0, 0, 54.51787948608398
45, 0, 0, 55.03359985351562
46, 0, 0, 55.05617523193359
47, 0, 0, 54.80044555664062
48, 0, 0, 54.95339202880859
49, 0, 0, 55.70018005371094
50, 0, 0, 56.77753067016602
51, 0, 0, 56.83318328857422
52, 0, 0, 56.7501106262207
53, 0, 0, 58.54547119140625
54, 0, 0, 59.20654296875
55, 0, 0, 59.26419448852539
56, 0, 0, 58.45440292358398
57, 0, 0, 60.10935974121094
58, 0, 0, 60.42487335205078
59, 0, 0, 64.01578521728516
60, 0, 0, 64.03647613525391
61, 0, 0, 63.67586898803711
62, 0, 0, 65.90859222412109
63, 0, 0, 66.16788482666016
64, 0, 0, 65.98003387451172
65, 0, 0, 67.58425140380859
66, 0, 0, 69.38533782958984
67, 0, 0, 69.00856781005859
68, 0, 0, 72.04150390625
69, 0, 0, 71.07471466064453
70, 0, 0, 74.49748229980469
71, 0, 0, 75.59819030761719
72, 0, 0, 77.05213165283203
73, 0, 0, 78.71417999267578
74, 0, 0, 79.96525573730469
75, 0, 0, 81.85731506347656
76, 0, 0, 82.14202880859375
77, 0, 0, 87.56419372558594
78, 0, 0, 88.23050689697266
79, 0, 0, 90.41727447509766
80, 0, 0, 95.82910919189453
81, 0, 0, 100.2843933105469
82, 0, 0, 102.4285583496094
83, 0, 0, 109.5340118408203
84, 0, 0, 115.0999908447266
85, 0, 0, 121.692626953125
86, 0, 0, 131.8057250976562
87, 0, 0, 146.0447235107422
88, 0, 0, 155.2658996582031
89, 0, 0, 170.1457977294922
90, 0, 0, 190.1541748046875
91, 0, 0, 241.9175109863281
92, 0, 0, 237.1674194335938
93, 0, 0, 200.4699859619141
94, 0, 0, 48.18236541748047
95, 0, 0, 26.81341552734375
96, 0, 0, 6.424520492553711
97, 0, 0, 0
98, 0, 0, 0
99, 0, 0, 0
100, 0, 0, 0
101, 0, 0, 0
102, 0, 0, 0
103, 0, 0, 0
104, 0, 0, 0
105, 0, 0, 0
106, 0, 0, 0
107, 0, 0, 0
108, 0, 0, 0
109, 0, 0, 0
110, 0, 0, 0
111, 0, 0, 0
112, 0, 0, 0
113, 0, 0, 0
114, 0, 0, 0
115, 0, 0, 0
116, 0, 0, 0
117, 0, 0, 0
118, 0, 0, 0
119, 0, 0, 0
120, 0, 0, 0
121, 0, 0, 0
122, 0, 0, 0
123, 0, 0, 0
124, 0, 0, 0
125, 0, 0, 0
126, 0, 0, 0
127, 0, 0, 0
128, 0, 0, 0
129, 0, 0, 0
130, 0, 0, 0
131, 0, 0, 0
132, 0, 0, 0
133, 0, 0, 0
134, 0, 0, 0
135, 0, 0, 0
136, 0, 0, 0
137, 0, 0, 0
138, 0, 0, 0
139, 0, 0, 0
140, 0, 0, 0
141, 0, 0, 0
142, 0, 0, 0
143, 0, 0, 0
144, 0, 0, 0
145, 0, 0, 0
146, 0, 0, 0
147, 0, 0, 0
148, 0, 0, 0
149, 0, 0, 0
150, 0, 0, 0
151, 0, 0, 0
152, 0, 0, 0
153, 0, 0, 0
154, 0, 0, 0
155, 0, 0, 0
156, 0, 0, 0
157, 0, 0, 0
158, 0, 0, 0
159, 0, 0, 0
160, 0, 0, 0
161, 0, 0, 0
162, 0, 0, 0
163, 0, 0, 0
164, 0, 0, 0
165, 0, 0, 0
166, 0, 0, 0
167, 0, 0, 0
168, 0, 0, 0
169, 0, 0, 0
170, 0, 0, 0
171, 0, 0, 0
172, 0, 0, 0
173, 0, 0, 0
174, 0, 0, 0
175, 0, 0, 0
176, 0, 0, 0
177, 0, 0, 0
178, 0, 0, 0
179, 0, 0, 0
