# TOPAS Version: 3.3.p1
# Parameter File: Simple_Pattern.txt
# Results for scorer MLIC_Scorer
# Scored in component: MLIC
# X in 165 bins of 0.2 cm
# Y in 1 bin  of 10 cm
# Z in 1 bin  of 10 cm
# EnergyDeposit ( MeV ) : Sum   
0, 0, 0, 935.4262084960938
1, 0, 0, 943.2465209960938
2, 0, 0, 945.0255126953125
3, 0, 0, 949.5673217773438
4, 0, 0, 948.7310180664062
5, 0, 0, 958.1262817382812
6, 0, 0, 959.9848022460938
7, 0, 0, 962.6983642578125
8, 0, 0, 971.5524291992188
9, 0, 0, 971.1742553710938
10, 0, 0, 970.25927734375
11, 0, 0, 972.0946044921875
12, 0, 0, 975.7619018554688
13, 0, 0, 984.9144287109375
14, 0, 0, 986.2030029296875
15, 0, 0, 988.0425415039062
16, 0, 0, 988.9763793945312
17, 0, 0, 993.4973754882812
18, 0, 0, 997.2361450195312
19, 0, 0, 1002.569885253906
20, 0, 0, 1011.23876953125
21, 0, 0, 1016.544616699219
22, 0, 0, 1015.471496582031
23, 0, 0, 1019.687805175781
24, 0, 0, 1023.424682617188
25, 0, 0, 1025.698364257812
26, 0, 0, 1036.190673828125
27, 0, 0, 1048.621826171875
28, 0, 0, 1044.245849609375
29, 0, 0, 1050.053955078125
30, 0, 0, 1057.110107421875
31, 0, 0, 1053.880249023438
32, 0, 0, 1068.608276367188
33, 0, 0, 1060.655029296875
34, 0, 0, 1078.948852539062
35, 0, 0, 1072.355224609375
36, 0, 0, 1079.926025390625
37, 0, 0, 1090.417358398438
38, 0, 0, 1099.70166015625
39, 0, 0, 1104.587036132812
40, 0, 0, 1105.787841796875
41, 0, 0, 1103.907592773438
42, 0, 0, 1124.813598632812
43, 0, 0, 1120.267578125
44, 0, 0, 1132.432495117188
45, 0, 0, 1135.955200195312
46, 0, 0, 1144.941528320312
47, 0, 0, 1154.147583007812
48, 0, 0, 1151.638427734375
49, 0, 0, 1167.345825195312
50, 0, 0, 1168.981201171875
51, 0, 0, 1173.033569335938
52, 0, 0, 1192.213989257812
53, 0, 0, 1196.251831054688
54, 0, 0, 1197.0986328125
55, 0, 0, 1211.426147460938
56, 0, 0, 1211.664794921875
57, 0, 0, 1217.520263671875
58, 0, 0, 1233.629516601562
59, 0, 0, 1249.991943359375
60, 0, 0, 1258.82568359375
61, 0, 0, 1260.18994140625
62, 0, 0, 1268.723388671875
63, 0, 0, 1285.806640625
64, 0, 0, 1291.762817382812
65, 0, 0, 1303.850463867188
66, 0, 0, 1313.079711914062
67, 0, 0, 1329.860473632812
68, 0, 0, 1340.188110351562
69, 0, 0, 1354.009521484375
70, 0, 0, 1361.448974609375
71, 0, 0, 1377.90185546875
72, 0, 0, 1388.691772460938
73, 0, 0, 1403.2607421875
74, 0, 0, 1414.017211914062
75, 0, 0, 1429.995239257812
76, 0, 0, 1443.958129882812
77, 0, 0, 1468.541381835938
78, 0, 0, 1481.699096679688
79, 0, 0, 1494.778564453125
80, 0, 0, 1515.909790039062
81, 0, 0, 1533.95849609375
82, 0, 0, 1550.261352539062
83, 0, 0, 1566.505004882812
84, 0, 0, 1592.424438476562
85, 0, 0, 1609.692504882812
86, 0, 0, 1645.373168945312
87, 0, 0, 1662.7587890625
88, 0, 0, 1683.454833984375
89, 0, 0, 1713.1943359375
90, 0, 0, 1740.712036132812
91, 0, 0, 1778.028686523438
92, 0, 0, 1804.937133789062
93, 0, 0, 1834.32470703125
94, 0, 0, 1884.230834960938
95, 0, 0, 1916.683715820312
96, 0, 0, 1968.592895507812
97, 0, 0, 2013.145751953125
98, 0, 0, 2061.905517578125
99, 0, 0, 2115.59716796875
100, 0, 0, 2180.318603515625
101, 0, 0, 2246.623291015625
102, 0, 0, 2323.232177734375
103, 0, 0, 2410.680908203125
104, 0, 0, 2510.304931640625
105, 0, 0, 2626.856689453125
106, 0, 0, 2753.530029296875
107, 0, 0, 2930.057861328125
108, 0, 0, 3116.674072265625
109, 0, 0, 3361.9306640625
110, 0, 0, 3738.92138671875
111, 0, 0, 4256.69287109375
112, 0, 0, 4844.89111328125
113, 0, 0, 5377.17236328125
114, 0, 0, 5222.115234375
115, 0, 0, 4379.94775390625
116, 0, 0, 2769.575439453125
117, 0, 0, 1532.397216796875
118, 0, 0, 665.41455078125
119, 0, 0, 197.0344848632812
120, 0, 0, 28.12206840515137
121, 0, 0, 0
122, 0, 0, 0
123, 0, 0, 0.0007878468022681773
124, 0, 0, 0
125, 0, 0, 0.01790937781333923
126, 0, 0, 0
127, 0, 0, 0.005556935910135508
128, 0, 0, 0
129, 0, 0, 0
130, 0, 0, 0
131, 0, 0, 0
132, 0, 0, 0
133, 0, 0, 0
134, 0, 0, 0
135, 0, 0, 0
136, 0, 0, 0
137, 0, 0, 0
138, 0, 0, 0
139, 0, 0, 0
140, 0, 0, 0
141, 0, 0, 0
142, 0, 0, 0
143, 0, 0, 0
144, 0, 0, 0
145, 0, 0, 0
146, 0, 0, 0
147, 0, 0, 0
148, 0, 0, 0
149, 0, 0, 0
150, 0, 0, 0
151, 0, 0, 0
152, 0, 0, 0
153, 0, 0, 0
154, 0, 0, 0
155, 0, 0, 0
156, 0, 0, 0
157, 0, 0, 0
158, 0, 0, 0
159, 0, 0, 0
160, 0, 0, 0
161, 0, 0, 0
162, 0, 0, 0
163, 0, 0, 0
164, 0, 0, 0
