# TOPAS Version: 3.3.p1
# Parameter File: Simple_Pattern.txt
# Results for scorer MLIC_Scorer
# Scored in component: MLIC
# X in 180 bins of 0.222222 cm
# Y in 1 bin  of 10 cm
# Z in 1 bin  of 10 cm
# EnergyDeposit ( MeV ) : Sum   
0, 0, 0, 42.89011764526367
1, 0, 0, 43.27612686157227
2, 0, 0, 41.53040313720703
3, 0, 0, 41.94305038452148
4, 0, 0, 43.54585647583008
5, 0, 0, 41.92032241821289
6, 0, 0, 44.4835090637207
7, 0, 0, 43.06424713134766
8, 0, 0, 43.17716979980469
9, 0, 0, 46.37049865722656
10, 0, 0, 43.42570495605469
11, 0, 0, 44.25704956054688
12, 0, 0, 45.04336929321289
13, 0, 0, 42.57485198974609
14, 0, 0, 45.32817840576172
15, 0, 0, 45.01907348632812
16, 0, 0, 44.50686645507812
17, 0, 0, 44.837890625
18, 0, 0, 46.40480422973633
19, 0, 0, 45.96356964111328
20, 0, 0, 46.30730056762695
21, 0, 0, 46.71512985229492
22, 0, 0, 47.18610382080078
23, 0, 0, 47.0291862487793
24, 0, 0, 48.02840042114258
25, 0, 0, 46.81665802001953
26, 0, 0, 47.40617370605469
27, 0, 0, 50.5159797668457
28, 0, 0, 49.27214050292969
29, 0, 0, 50.08941650390625
30, 0, 0, 49.96300888061523
31, 0, 0, 47.70000839233398
32, 0, 0, 51.26411819458008
33, 0, 0, 47.96008682250977
34, 0, 0, 49.63064956665039
35, 0, 0, 51.58567428588867
36, 0, 0, 52.17130661010742
37, 0, 0, 50.889892578125
38, 0, 0, 51.50487518310547
39, 0, 0, 50.90911865234375
40, 0, 0, 52.27910614013672
41, 0, 0, 53.6403923034668
42, 0, 0, 53.85926055908203
43, 0, 0, 53.17511749267578
44, 0, 0, 54.36611175537109
45, 0, 0, 55.25331497192383
46, 0, 0, 56.14947509765625
47, 0, 0, 54.65193939208984
48, 0, 0, 57.53401565551758
49, 0, 0, 55.4432373046875
50, 0, 0, 59.35271072387695
51, 0, 0, 57.95554733276367
52, 0, 0, 59.49941635131836
53, 0, 0, 60.13552474975586
54, 0, 0, 60.9182014465332
55, 0, 0, 60.76299667358398
56, 0, 0, 60.29507827758789
57, 0, 0, 62.05965423583984
58, 0, 0, 62.91301345825195
59, 0, 0, 64.80649566650391
60, 0, 0, 63.33873748779297
61, 0, 0, 64.65646362304688
62, 0, 0, 66.13485717773438
63, 0, 0, 67.04621887207031
64, 0, 0, 67.63758087158203
65, 0, 0, 70.82046508789062
66, 0, 0, 70.99106597900391
67, 0, 0, 71.77043914794922
68, 0, 0, 72.49911499023438
69, 0, 0, 73.67111206054688
70, 0, 0, 75.68701171875
71, 0, 0, 74.43112945556641
72, 0, 0, 79.67633056640625
73, 0, 0, 80.76891326904297
74, 0, 0, 83.41256713867188
75, 0, 0, 83.84217834472656
76, 0, 0, 86.45472717285156
77, 0, 0, 89.09367370605469
78, 0, 0, 90.72029876708984
79, 0, 0, 94.63095092773438
80, 0, 0, 98.07683563232422
81, 0, 0, 100.7145767211914
82, 0, 0, 104.7953720092773
83, 0, 0, 109.8427658081055
84, 0, 0, 114.7247924804688
85, 0, 0, 121.9172058105469
86, 0, 0, 129.9292449951172
87, 0, 0, 138.5811462402344
88, 0, 0, 153.9093475341797
89, 0, 0, 175.1452484130859
90, 0, 0, 210.2563781738281
91, 0, 0, 260.8146362304688
92, 0, 0, 246.4239501953125
93, 0, 0, 138.1660766601562
94, 0, 0, 125.9629135131836
95, 0, 0, 45.89922332763672
96, 0, 0, 0
97, 0, 0, 0
98, 0, 0, 0
99, 0, 0, 0
100, 0, 0, 0
101, 0, 0, 0
102, 0, 0, 0
103, 0, 0, 0
104, 0, 0, 0
105, 0, 0, 0
106, 0, 0, 0
107, 0, 0, 0
108, 0, 0, 0
109, 0, 0, 0
110, 0, 0, 0
111, 0, 0, 0
112, 0, 0, 0
113, 0, 0, 0
114, 0, 0, 0
115, 0, 0, 0
116, 0, 0, 0
117, 0, 0, 0
118, 0, 0, 0
119, 0, 0, 0
120, 0, 0, 0
121, 0, 0, 0
122, 0, 0, 0
123, 0, 0, 0
124, 0, 0, 0
125, 0, 0, 0
126, 0, 0, 0
127, 0, 0, 0
128, 0, 0, 0
129, 0, 0, 0
130, 0, 0, 0
131, 0, 0, 0
132, 0, 0, 0
133, 0, 0, 0
134, 0, 0, 0
135, 0, 0, 0
136, 0, 0, 0
137, 0, 0, 0
138, 0, 0, 0
139, 0, 0, 0
140, 0, 0, 0
141, 0, 0, 0
142, 0, 0, 0
143, 0, 0, 0
144, 0, 0, 0
145, 0, 0, 0
146, 0, 0, 0
147, 0, 0, 0
148, 0, 0, 0
149, 0, 0, 0
150, 0, 0, 0
151, 0, 0, 0
152, 0, 0, 0
153, 0, 0, 0
154, 0, 0, 0
155, 0, 0, 0
156, 0, 0, 0
157, 0, 0, 0
158, 0, 0, 0
159, 0, 0, 0
160, 0, 0, 0
161, 0, 0, 0
162, 0, 0, 0
163, 0, 0, 0
164, 0, 0, 0
165, 0, 0, 0
166, 0, 0, 0
167, 0, 0, 0
168, 0, 0, 0
169, 0, 0, 0
170, 0, 0, 0
171, 0, 0, 0
172, 0, 0, 0
173, 0, 0, 0
174, 0, 0, 0
175, 0, 0, 0
176, 0, 0, 0
177, 0, 0, 0
178, 0, 0, 0
179, 0, 0, 0
