# TOPAS Version: 3.3.p1
# Parameter File: Simple_Pattern.txt
# Results for scorer MLIC_Scorer
# Scored in component: MLIC
# X in 180 bins of 0.222222 cm
# Y in 1 bin  of 10 cm
# Z in 1 bin  of 10 cm
# EnergyDeposit ( MeV ) : Sum   
0, 0, 0, 1079.806762695312
1, 0, 0, 1094.387451171875
2, 0, 0, 1101.47802734375
3, 0, 0, 1095.933471679688
4, 0, 0, 1106.536987304688
5, 0, 0, 1112.457641601562
6, 0, 0, 1110.0693359375
7, 0, 0, 1114.146606445312
8, 0, 0, 1128.9345703125
9, 0, 0, 1134.61865234375
10, 0, 0, 1128.376098632812
11, 0, 0, 1143.069458007812
12, 0, 0, 1141.948852539062
13, 0, 0, 1156.926513671875
14, 0, 0, 1155.531982421875
15, 0, 0, 1156.828857421875
16, 0, 0, 1177.2763671875
17, 0, 0, 1176.35595703125
18, 0, 0, 1182.95166015625
19, 0, 0, 1187.157836914062
20, 0, 0, 1186.412963867188
21, 0, 0, 1197.881713867188
22, 0, 0, 1205.167114257812
23, 0, 0, 1218.403198242188
24, 0, 0, 1236.439208984375
25, 0, 0, 1237.15576171875
26, 0, 0, 1240.278564453125
27, 0, 0, 1250.312744140625
28, 0, 0, 1253.682861328125
29, 0, 0, 1254.380737304688
30, 0, 0, 1265.634765625
31, 0, 0, 1270.113891601562
32, 0, 0, 1290.390869140625
33, 0, 0, 1296.539794921875
34, 0, 0, 1302.654296875
35, 0, 0, 1316.269897460938
36, 0, 0, 1320.971069335938
37, 0, 0, 1330.7001953125
38, 0, 0, 1341.949584960938
39, 0, 0, 1354.659545898438
40, 0, 0, 1360.516845703125
41, 0, 0, 1365.197387695312
42, 0, 0, 1385.761108398438
43, 0, 0, 1388.033081054688
44, 0, 0, 1404.382568359375
45, 0, 0, 1419.316772460938
46, 0, 0, 1419.315795898438
47, 0, 0, 1442.42822265625
48, 0, 0, 1456.818237304688
49, 0, 0, 1463.16650390625
50, 0, 0, 1479.680541992188
51, 0, 0, 1488.869750976562
52, 0, 0, 1511.599731445312
53, 0, 0, 1528.06689453125
54, 0, 0, 1536.630859375
55, 0, 0, 1562.248779296875
56, 0, 0, 1577.509155273438
57, 0, 0, 1595.661987304688
58, 0, 0, 1621.803588867188
59, 0, 0, 1633.137817382812
60, 0, 0, 1649.297607421875
61, 0, 0, 1674.267822265625
62, 0, 0, 1703.025634765625
63, 0, 0, 1731.714965820312
64, 0, 0, 1750.366455078125
65, 0, 0, 1775.554931640625
66, 0, 0, 1811.418212890625
67, 0, 0, 1847.56787109375
68, 0, 0, 1876.736206054688
69, 0, 0, 1908.6123046875
70, 0, 0, 1949.730224609375
71, 0, 0, 1969.155151367188
72, 0, 0, 2009.956909179688
73, 0, 0, 2051.674072265625
74, 0, 0, 2105.9267578125
75, 0, 0, 2154.179443359375
76, 0, 0, 2206.700927734375
77, 0, 0, 2269.68798828125
78, 0, 0, 2326.931396484375
79, 0, 0, 2399.62548828125
80, 0, 0, 2488.8857421875
81, 0, 0, 2586.44921875
82, 0, 0, 2689.385009765625
83, 0, 0, 2818.016845703125
84, 0, 0, 2967.10400390625
85, 0, 0, 3139.36376953125
86, 0, 0, 3366.5625
87, 0, 0, 3626.91455078125
88, 0, 0, 4025.666748046875
89, 0, 0, 4618.56689453125
90, 0, 0, 5459.35498046875
91, 0, 0, 6088.17626953125
92, 0, 0, 5638.4716796875
93, 0, 0, 4430.498046875
94, 0, 0, 2162.23876953125
95, 0, 0, 697.4268188476562
96, 0, 0, 167.7222747802734
97, 0, 0, 15.52968978881836
98, 0, 0, 0
99, 0, 0, 0
100, 0, 0, 0
101, 0, 0, 0
102, 0, 0, 0.002779220230877399
103, 0, 0, 0
104, 0, 0, 0
105, 0, 0, 0
106, 0, 0, 0
107, 0, 0, 0
108, 0, 0, 0
109, 0, 0, 0
110, 0, 0, 0.02907630242407322
111, 0, 0, 0
112, 0, 0, 0
113, 0, 0, 0
114, 0, 0, 0
115, 0, 0, 0
116, 0, 0, 0
117, 0, 0, 0
118, 0, 0, 0
119, 0, 0, 0
120, 0, 0, 0
121, 0, 0, 0
122, 0, 0, 0
123, 0, 0, 0
124, 0, 0, 0.06056008487939835
125, 0, 0, 0
126, 0, 0, 0
127, 0, 0, 0
128, 0, 0, 0
129, 0, 0, 0
130, 0, 0, 0
131, 0, 0, 0
132, 0, 0, 0
133, 0, 0, 0
134, 0, 0, 0
135, 0, 0, 0
136, 0, 0, 0
137, 0, 0, 0
138, 0, 0, 0
139, 0, 0, 0
140, 0, 0, 0
141, 0, 0, 0
142, 0, 0, 0
143, 0, 0, 0
144, 0, 0, 0
145, 0, 0, 0
146, 0, 0, 0
147, 0, 0, 0
148, 0, 0, 0
149, 0, 0, 0
150, 0, 0, 0
151, 0, 0, 0
152, 0, 0, 0
153, 0, 0, 0
154, 0, 0, 0
155, 0, 0, 0
156, 0, 0, 0
157, 0, 0, 0
158, 0, 0, 0
159, 0, 0, 0
160, 0, 0, 0
161, 0, 0, 0
162, 0, 0, 0
163, 0, 0, 0
164, 0, 0, 0
165, 0, 0, 0
166, 0, 0, 0
167, 0, 0, 0
168, 0, 0, 0
169, 0, 0, 0
170, 0, 0, 0
171, 0, 0, 0
172, 0, 0, 0
173, 0, 0, 0
174, 0, 0, 0
175, 0, 0, 0
176, 0, 0, 0
177, 0, 0, 0
178, 0, 0, 0
179, 0, 0, 0
