# TOPAS Version: 3.3.p1
# Parameter File: Simple_Pattern.txt
# Results for scorer MLIC_Scorer
# Scored in component: MLIC
# X in 180 bins of 0.222222 cm
# Y in 1 bin  of 10 cm
# Z in 1 bin  of 10 cm
# EnergyDeposit ( MeV ) : Sum   
0, 0, 0, 1090.041015625
1, 0, 0, 1090.790893554688
2, 0, 0, 1094.673950195312
3, 0, 0, 1099.533203125
4, 0, 0, 1092.090942382812
5, 0, 0, 1108.686279296875
6, 0, 0, 1115.585083007812
7, 0, 0, 1113.308349609375
8, 0, 0, 1120.817016601562
9, 0, 0, 1129.661865234375
10, 0, 0, 1131.088500976562
11, 0, 0, 1136.602783203125
12, 0, 0, 1141.863525390625
13, 0, 0, 1148.291870117188
14, 0, 0, 1154.904541015625
15, 0, 0, 1161.993774414062
16, 0, 0, 1164.116943359375
17, 0, 0, 1165.088500976562
18, 0, 0, 1172.7568359375
19, 0, 0, 1183.9140625
20, 0, 0, 1203.189819335938
21, 0, 0, 1203.611206054688
22, 0, 0, 1206.106323242188
23, 0, 0, 1209.760986328125
24, 0, 0, 1220.263305664062
25, 0, 0, 1229.312377929688
26, 0, 0, 1234.63623046875
27, 0, 0, 1247.330932617188
28, 0, 0, 1254.026611328125
29, 0, 0, 1259.21044921875
30, 0, 0, 1264.828247070312
31, 0, 0, 1269.34912109375
32, 0, 0, 1278.035034179688
33, 0, 0, 1290.595581054688
34, 0, 0, 1297.470336914062
35, 0, 0, 1313.02880859375
36, 0, 0, 1314.444091796875
37, 0, 0, 1323.829467773438
38, 0, 0, 1337.248291015625
39, 0, 0, 1350.39111328125
40, 0, 0, 1362.763793945312
41, 0, 0, 1369.271240234375
42, 0, 0, 1384.740966796875
43, 0, 0, 1388.760498046875
44, 0, 0, 1403.670288085938
45, 0, 0, 1416.259155273438
46, 0, 0, 1420.612915039062
47, 0, 0, 1440.5517578125
48, 0, 0, 1452.479370117188
49, 0, 0, 1458.038208007812
50, 0, 0, 1474.005981445312
51, 0, 0, 1504.473266601562
52, 0, 0, 1509.257202148438
53, 0, 0, 1514.219116210938
54, 0, 0, 1540.38720703125
55, 0, 0, 1553.34619140625
56, 0, 0, 1566.770629882812
57, 0, 0, 1595.42529296875
58, 0, 0, 1617.244995117188
59, 0, 0, 1636.876098632812
60, 0, 0, 1649.96484375
61, 0, 0, 1679.100708007812
62, 0, 0, 1695.531005859375
63, 0, 0, 1713.466796875
64, 0, 0, 1754.611083984375
65, 0, 0, 1774.417846679688
66, 0, 0, 1799.979248046875
67, 0, 0, 1835.571655273438
68, 0, 0, 1857.515380859375
69, 0, 0, 1897.794067382812
70, 0, 0, 1927.115600585938
71, 0, 0, 1967.603637695312
72, 0, 0, 2005.109619140625
73, 0, 0, 2060.609375
74, 0, 0, 2087.053955078125
75, 0, 0, 2146.808349609375
76, 0, 0, 2206.8466796875
77, 0, 0, 2265.208251953125
78, 0, 0, 2329.260009765625
79, 0, 0, 2393.99609375
80, 0, 0, 2487.01220703125
81, 0, 0, 2572.391845703125
82, 0, 0, 2687.966064453125
83, 0, 0, 2801.792236328125
84, 0, 0, 2948.170166015625
85, 0, 0, 3126.620361328125
86, 0, 0, 3323.884033203125
87, 0, 0, 3604.025146484375
88, 0, 0, 3973.000732421875
89, 0, 0, 4597.4267578125
90, 0, 0, 5372.62060546875
91, 0, 0, 6012.7421875
92, 0, 0, 6069.294921875
93, 0, 0, 4540.5419921875
94, 0, 0, 2197.39013671875
95, 0, 0, 731.1484985351562
96, 0, 0, 135.6790161132812
97, 0, 0, 6.053094863891602
98, 0, 0, 0
99, 0, 0, 0.005921632051467896
100, 0, 0, 0
101, 0, 0, 0
102, 0, 0, 0
103, 0, 0, 0
104, 0, 0, 0
105, 0, 0, 0
106, 0, 0, 0
107, 0, 0, 0
108, 0, 0, 0
109, 0, 0, 0
110, 0, 0, 0.006303984671831131
111, 0, 0, 0
112, 0, 0, 0
113, 0, 0, 0
114, 0, 0, 0
115, 0, 0, 0.05193611234426498
116, 0, 0, 0
117, 0, 0, 0
118, 0, 0, 0
119, 0, 0, 0.00866666529327631
120, 0, 0, 0
121, 0, 0, 0.009737659245729446
122, 0, 0, 0
123, 0, 0, 0
124, 0, 0, 0
125, 0, 0, 0
126, 0, 0, 0
127, 0, 0, 0
128, 0, 0, 0.004504891578108072
129, 0, 0, 0
130, 0, 0, 0
131, 0, 0, 0
132, 0, 0, 0
133, 0, 0, 0
134, 0, 0, 0
135, 0, 0, 0
136, 0, 0, 0
137, 0, 0, 0
138, 0, 0, 0
139, 0, 0, 0
140, 0, 0, 0
141, 0, 0, 0
142, 0, 0, 0
143, 0, 0, 0
144, 0, 0, 0
145, 0, 0, 0
146, 0, 0, 0
147, 0, 0, 0
148, 0, 0, 0
149, 0, 0, 0
150, 0, 0, 0
151, 0, 0, 0
152, 0, 0, 0
153, 0, 0, 0
154, 0, 0, 0
155, 0, 0, 0
156, 0, 0, 0
157, 0, 0, 0
158, 0, 0, 0
159, 0, 0, 0
160, 0, 0, 0
161, 0, 0, 0
162, 0, 0, 0
163, 0, 0, 0
164, 0, 0, 0
165, 0, 0, 0
166, 0, 0, 0
167, 0, 0, 0
168, 0, 0, 0
169, 0, 0, 0
170, 0, 0, 0
171, 0, 0, 0
172, 0, 0, 0
173, 0, 0, 0
174, 0, 0, 0
175, 0, 0, 0
176, 0, 0, 0
177, 0, 0, 0
178, 0, 0, 0
179, 0, 0, 0
