# TOPAS Version: 3.3.p1
# Parameter File: Simple_Pattern.txt
# Results for scorer MLIC_Scorer
# Scored in component: MLIC
# X in 165 bins of 0.2 cm
# Y in 1 bin  of 10 cm
# Z in 1 bin  of 10 cm
# EnergyDeposit ( MeV ) : Sum   
0, 0, 0, 932.0990600585938
1, 0, 0, 943.5003662109375
2, 0, 0, 943.8284301757812
3, 0, 0, 944.0960693359375
4, 0, 0, 948.8388671875
5, 0, 0, 949.4493408203125
6, 0, 0, 957.7672729492188
7, 0, 0, 959.7330322265625
8, 0, 0, 959.0115966796875
9, 0, 0, 965.6743774414062
10, 0, 0, 964.8040771484375
11, 0, 0, 970.3369140625
12, 0, 0, 972.3587036132812
13, 0, 0, 982.6065673828125
14, 0, 0, 975.05908203125
15, 0, 0, 980.688720703125
16, 0, 0, 983.7603759765625
17, 0, 0, 983.54833984375
18, 0, 0, 982.2752685546875
19, 0, 0, 983.3021850585938
20, 0, 0, 996.129638671875
21, 0, 0, 1002.521667480469
22, 0, 0, 996.3294067382812
23, 0, 0, 992.2653198242188
24, 0, 0, 1003.200439453125
25, 0, 0, 1009.984008789062
26, 0, 0, 1010.666625976562
27, 0, 0, 1017.922790527344
28, 0, 0, 1022.144714355469
29, 0, 0, 1026.730224609375
30, 0, 0, 1041.651489257812
31, 0, 0, 1026.9541015625
32, 0, 0, 1037.567993164062
33, 0, 0, 1027.696655273438
34, 0, 0, 1042.38916015625
35, 0, 0, 1039.736694335938
36, 0, 0, 1040.0302734375
37, 0, 0, 1045.864624023438
38, 0, 0, 1053.420532226562
39, 0, 0, 1058.471557617188
40, 0, 0, 1051.179931640625
41, 0, 0, 1042.169677734375
42, 0, 0, 1058.9833984375
43, 0, 0, 1064.468383789062
44, 0, 0, 1068.0302734375
45, 0, 0, 1064.553588867188
46, 0, 0, 1075.7451171875
47, 0, 0, 1073.8388671875
48, 0, 0, 1081.322875976562
49, 0, 0, 1081.676879882812
50, 0, 0, 1077.973999023438
51, 0, 0, 1085.779174804688
52, 0, 0, 1080.859741210938
53, 0, 0, 1090.487060546875
54, 0, 0, 1085.260620117188
55, 0, 0, 1091.443359375
56, 0, 0, 1095.891967773438
57, 0, 0, 1101.095581054688
58, 0, 0, 1108.453125
59, 0, 0, 1107.199584960938
60, 0, 0, 1118.104248046875
61, 0, 0, 1115.191040039062
62, 0, 0, 1119.009887695312
63, 0, 0, 1129.881225585938
64, 0, 0, 1138.953491210938
65, 0, 0, 1137.598510742188
66, 0, 0, 1147.421508789062
67, 0, 0, 1153.135620117188
68, 0, 0, 1154.811157226562
69, 0, 0, 1152.730712890625
70, 0, 0, 1158.226318359375
71, 0, 0, 1165.032470703125
72, 0, 0, 1174.482299804688
73, 0, 0, 1185.06982421875
74, 0, 0, 1188.446533203125
75, 0, 0, 1206.777709960938
76, 0, 0, 1207.244750976562
77, 0, 0, 1214.27685546875
78, 0, 0, 1230.390991210938
79, 0, 0, 1233.343627929688
80, 0, 0, 1243.241577148438
81, 0, 0, 1258.619750976562
82, 0, 0, 1261.540283203125
83, 0, 0, 1286.107543945312
84, 0, 0, 1300.9833984375
85, 0, 0, 1308.922485351562
86, 0, 0, 1319.797607421875
87, 0, 0, 1334.30419921875
88, 0, 0, 1354.05810546875
89, 0, 0, 1370.656005859375
90, 0, 0, 1390.18115234375
91, 0, 0, 1414.748657226562
92, 0, 0, 1432.006591796875
93, 0, 0, 1453.390991210938
94, 0, 0, 1489.614868164062
95, 0, 0, 1507.078857421875
96, 0, 0, 1538.075073242188
97, 0, 0, 1571.202270507812
98, 0, 0, 1595.271484375
99, 0, 0, 1638.15771484375
100, 0, 0, 1683.414184570312
101, 0, 0, 1731.681762695312
102, 0, 0, 1789.06103515625
103, 0, 0, 1840.707275390625
104, 0, 0, 1901.82080078125
105, 0, 0, 1983.269165039062
106, 0, 0, 2072.497802734375
107, 0, 0, 2175.446533203125
108, 0, 0, 2327.62060546875
109, 0, 0, 2493.818359375
110, 0, 0, 2748.4150390625
111, 0, 0, 3124.26513671875
112, 0, 0, 3543.974365234375
113, 0, 0, 4087.9814453125
114, 0, 0, 3926.0146484375
115, 0, 0, 3184.29345703125
116, 0, 0, 2008.31689453125
117, 0, 0, 1085.258056640625
118, 0, 0, 427.990478515625
119, 0, 0, 143.8818054199219
120, 0, 0, 49.17860412597656
121, 0, 0, 8.261367797851562
122, 0, 0, 0
123, 0, 0, 0.03012742660939693
124, 0, 0, 0.01327900495380163
125, 0, 0, 0
126, 0, 0, 0.02777526341378689
127, 0, 0, 0
128, 0, 0, 0
129, 0, 0, 0
130, 0, 0, 0.008288078010082245
131, 0, 0, 0
132, 0, 0, 0.0307296272367239
133, 0, 0, 0
134, 0, 0, 0
135, 0, 0, 0
136, 0, 0, 0
137, 0, 0, 0
138, 0, 0, 0
139, 0, 0, 0.06602180749177933
140, 0, 0, 0
141, 0, 0, 0.009107673540711403
142, 0, 0, 0
143, 0, 0, 0.03203502297401428
144, 0, 0, 0.03365584462881088
145, 0, 0, 0.05886976793408394
146, 0, 0, 0
147, 0, 0, 0.02878103591501713
148, 0, 0, 0.05447316914796829
149, 0, 0, 0.002444973448291421
150, 0, 0, 0
151, 0, 0, 0.0249190516769886
152, 0, 0, 0
153, 0, 0, 0
154, 0, 0, 0.05945084989070892
155, 0, 0, 0
156, 0, 0, 0.03175569698214531
157, 0, 0, 0.01630540192127228
158, 0, 0, 0
159, 0, 0, 0.03141037002205849
160, 0, 0, 0
161, 0, 0, 0
162, 0, 0, 0
163, 0, 0, 0.254644364118576
164, 0, 0, 0
