# TOPAS Version: 3.3.p1
# Parameter File: Simple_Pattern.txt
# Results for scorer MLIC_Scorer
# Scored in component: MLIC
# X in 180 bins of 0.222222 cm
# Y in 1 bin  of 10 cm
# Z in 1 bin  of 10 cm
# EnergyDeposit ( MeV ) : Sum   
0, 0, 0, 85.69413757324219
1, 0, 0, 85.97592163085938
2, 0, 0, 86.39179992675781
3, 0, 0, 86.11559295654297
4, 0, 0, 86.39127349853516
5, 0, 0, 87.8807373046875
6, 0, 0, 89.66819763183594
7, 0, 0, 88.40763854980469
8, 0, 0, 88.41738128662109
9, 0, 0, 92.18851470947266
10, 0, 0, 88.99100494384766
11, 0, 0, 91.02687835693359
12, 0, 0, 88.50571441650391
13, 0, 0, 91.87345123291016
14, 0, 0, 90.01153564453125
15, 0, 0, 90.07260894775391
16, 0, 0, 91.61785888671875
17, 0, 0, 91.92820739746094
18, 0, 0, 95.23877716064453
19, 0, 0, 93.80668640136719
20, 0, 0, 94.02326202392578
21, 0, 0, 94.49396514892578
22, 0, 0, 96.52310180664062
23, 0, 0, 95.34662628173828
24, 0, 0, 98.12339782714844
25, 0, 0, 98.56887054443359
26, 0, 0, 97.46434783935547
27, 0, 0, 97.73427581787109
28, 0, 0, 100.3299713134766
29, 0, 0, 98.75302886962891
30, 0, 0, 101.7994537353516
31, 0, 0, 99.28645324707031
32, 0, 0, 104.8538208007812
33, 0, 0, 104.1314544677734
34, 0, 0, 103.1013259887695
35, 0, 0, 102.8172149658203
36, 0, 0, 103.1372909545898
37, 0, 0, 103.977897644043
38, 0, 0, 104.8632507324219
39, 0, 0, 105.3795394897461
40, 0, 0, 107.8226623535156
41, 0, 0, 106.2735824584961
42, 0, 0, 110.6376190185547
43, 0, 0, 110.3703765869141
44, 0, 0, 110.3438415527344
45, 0, 0, 111.4960021972656
46, 0, 0, 112.2477340698242
47, 0, 0, 112.5243606567383
48, 0, 0, 113.05029296875
49, 0, 0, 118.0671539306641
50, 0, 0, 115.3527221679688
51, 0, 0, 118.8573226928711
52, 0, 0, 120.4826354980469
53, 0, 0, 122.7104339599609
54, 0, 0, 123.5933532714844
55, 0, 0, 125.1919631958008
56, 0, 0, 124.2225799560547
57, 0, 0, 125.3421630859375
58, 0, 0, 127.4688186645508
59, 0, 0, 130.6422424316406
60, 0, 0, 131.9442291259766
61, 0, 0, 132.302978515625
62, 0, 0, 135.5146942138672
63, 0, 0, 135.4016265869141
64, 0, 0, 138.7730560302734
65, 0, 0, 139.4603576660156
66, 0, 0, 141.5233306884766
67, 0, 0, 148.3051147460938
68, 0, 0, 146.5506286621094
69, 0, 0, 150.7167816162109
70, 0, 0, 154.6133575439453
71, 0, 0, 156.5899200439453
72, 0, 0, 159.0383148193359
73, 0, 0, 162.1953735351562
74, 0, 0, 165.7284088134766
75, 0, 0, 169.5169982910156
76, 0, 0, 175.8899078369141
77, 0, 0, 180.7343139648438
78, 0, 0, 185.2037048339844
79, 0, 0, 190.2710723876953
80, 0, 0, 197.6776580810547
81, 0, 0, 206.7124938964844
82, 0, 0, 211.3495941162109
83, 0, 0, 221.22607421875
84, 0, 0, 234.9030609130859
85, 0, 0, 247.6812286376953
86, 0, 0, 264.0018005371094
87, 0, 0, 285.5159606933594
88, 0, 0, 316.6757202148438
89, 0, 0, 358.1819152832031
90, 0, 0, 412.8529663085938
91, 0, 0, 500.3889770507812
92, 0, 0, 489.9125366210938
93, 0, 0, 381.371337890625
94, 0, 0, 214.2911224365234
95, 0, 0, 51.74613571166992
96, 0, 0, 0
97, 0, 0, 0
98, 0, 0, 0
99, 0, 0, 0
100, 0, 0, 0
101, 0, 0, 0
102, 0, 0, 0
103, 0, 0, 0
104, 0, 0, 0
105, 0, 0, 0
106, 0, 0, 0
107, 0, 0, 0
108, 0, 0, 0
109, 0, 0, 0
110, 0, 0, 0
111, 0, 0, 0
112, 0, 0, 0
113, 0, 0, 0
114, 0, 0, 0
115, 0, 0, 0
116, 0, 0, 0
117, 0, 0, 0
118, 0, 0, 0
119, 0, 0, 0
120, 0, 0, 0
121, 0, 0, 0
122, 0, 0, 0
123, 0, 0, 0
124, 0, 0, 0
125, 0, 0, 0
126, 0, 0, 0
127, 0, 0, 0
128, 0, 0, 0
129, 0, 0, 0
130, 0, 0, 0
131, 0, 0, 0
132, 0, 0, 0
133, 0, 0, 0
134, 0, 0, 0
135, 0, 0, 0
136, 0, 0, 0
137, 0, 0, 0
138, 0, 0, 0
139, 0, 0, 0
140, 0, 0, 0
141, 0, 0, 0
142, 0, 0, 0
143, 0, 0, 0
144, 0, 0, 0
145, 0, 0, 0
146, 0, 0, 0
147, 0, 0, 0
148, 0, 0, 0
149, 0, 0, 0
150, 0, 0, 0
151, 0, 0, 0
152, 0, 0, 0
153, 0, 0, 0
154, 0, 0, 0
155, 0, 0, 0
156, 0, 0, 0
157, 0, 0, 0
158, 0, 0, 0
159, 0, 0, 0
160, 0, 0, 0
161, 0, 0, 0
162, 0, 0, 0
163, 0, 0, 0
164, 0, 0, 0
165, 0, 0, 0
166, 0, 0, 0
167, 0, 0, 0
168, 0, 0, 0
169, 0, 0, 0
170, 0, 0, 0
171, 0, 0, 0
172, 0, 0, 0
173, 0, 0, 0
174, 0, 0, 0
175, 0, 0, 0
176, 0, 0, 0
177, 0, 0, 0
178, 0, 0, 0
179, 0, 0, 0
