# TOPAS Version: 3.3.p1
# Parameter File: Simple_Pattern.txt
# Results for scorer MLIC_Scorer
# Scored in component: MLIC
# X in 180 bins of 0.222222 cm
# Y in 1 bin  of 10 cm
# Z in 1 bin  of 10 cm
# EnergyDeposit ( MeV ) : Sum   
0, 0, 0, 1076.361572265625
1, 0, 0, 1080.663696289062
2, 0, 0, 1092.989135742188
3, 0, 0, 1088.610107421875
4, 0, 0, 1097.398071289062
5, 0, 0, 1102.191284179688
6, 0, 0, 1104.14404296875
7, 0, 0, 1114.594482421875
8, 0, 0, 1114.4638671875
9, 0, 0, 1118.583374023438
10, 0, 0, 1124.963256835938
11, 0, 0, 1136.229248046875
12, 0, 0, 1135.653930664062
13, 0, 0, 1133.082397460938
14, 0, 0, 1141.739379882812
15, 0, 0, 1134.541015625
16, 0, 0, 1140.152099609375
17, 0, 0, 1147.225219726562
18, 0, 0, 1151.291625976562
19, 0, 0, 1161.241821289062
20, 0, 0, 1160.389892578125
21, 0, 0, 1162.378173828125
22, 0, 0, 1162.614013671875
23, 0, 0, 1167.791748046875
24, 0, 0, 1183.386474609375
25, 0, 0, 1174.970825195312
26, 0, 0, 1180.363403320312
27, 0, 0, 1181.725830078125
28, 0, 0, 1183.972534179688
29, 0, 0, 1184.981567382812
30, 0, 0, 1191.6904296875
31, 0, 0, 1201.832641601562
32, 0, 0, 1183.3564453125
33, 0, 0, 1194.835571289062
34, 0, 0, 1190.831909179688
35, 0, 0, 1190.82763671875
36, 0, 0, 1193.844848632812
37, 0, 0, 1195.47412109375
38, 0, 0, 1192.898803710938
39, 0, 0, 1201.814453125
40, 0, 0, 1195.6259765625
41, 0, 0, 1201.04736328125
42, 0, 0, 1197.994384765625
43, 0, 0, 1202.865966796875
44, 0, 0, 1206.7275390625
45, 0, 0, 1221.8271484375
46, 0, 0, 1221.004272460938
47, 0, 0, 1225.848510742188
48, 0, 0, 1226.555419921875
49, 0, 0, 1223.799560546875
50, 0, 0, 1235.427856445312
51, 0, 0, 1235.450317382812
52, 0, 0, 1230.660522460938
53, 0, 0, 1243.628051757812
54, 0, 0, 1245.404052734375
55, 0, 0, 1243.187255859375
56, 0, 0, 1243.828857421875
57, 0, 0, 1250.768798828125
58, 0, 0, 1250.385131835938
59, 0, 0, 1255.280517578125
60, 0, 0, 1264.770874023438
61, 0, 0, 1281.144653320312
62, 0, 0, 1265.219116210938
63, 0, 0, 1276.949340820312
64, 0, 0, 1281.078369140625
65, 0, 0, 1284.6494140625
66, 0, 0, 1306.6708984375
67, 0, 0, 1314.6806640625
68, 0, 0, 1331.465087890625
69, 0, 0, 1345.099609375
70, 0, 0, 1355.338256835938
71, 0, 0, 1371.551513671875
72, 0, 0, 1379.954711914062
73, 0, 0, 1400.8173828125
74, 0, 0, 1412.045654296875
75, 0, 0, 1442.65283203125
76, 0, 0, 1461.439453125
77, 0, 0, 1489.828002929688
78, 0, 0, 1529.880126953125
79, 0, 0, 1572.416748046875
80, 0, 0, 1613.117797851562
81, 0, 0, 1659.560302734375
82, 0, 0, 1711.579833984375
83, 0, 0, 1774.540893554688
84, 0, 0, 1857.721801757812
85, 0, 0, 1947.894165039062
86, 0, 0, 2074.78173828125
87, 0, 0, 2229.587890625
88, 0, 0, 2446.921142578125
89, 0, 0, 2737.008056640625
90, 0, 0, 3177.48046875
91, 0, 0, 3546.128173828125
92, 0, 0, 3547.685302734375
93, 0, 0, 2827.875244140625
94, 0, 0, 1553.213134765625
95, 0, 0, 417.0485534667969
96, 0, 0, 91.09742736816406
97, 0, 0, 0
98, 0, 0, 0.01184416096657515
99, 0, 0, 0
100, 0, 0, 0.05020807310938835
101, 0, 0, 0.07935810089111328
102, 0, 0, 0.01371616218239069
103, 0, 0, 0.05318374186754227
104, 0, 0, 0.04914524406194687
105, 0, 0, 0
106, 0, 0, 0.184655636548996
107, 0, 0, 0.05907273665070534
108, 0, 0, 0.08652767539024353
109, 0, 0, 0
110, 0, 0, 0.2462431639432907
111, 0, 0, 0.01506125740706921
112, 0, 0, 0.01364326663315296
113, 0, 0, 0.006255005486309528
114, 0, 0, 0.01180574670433998
115, 0, 0, 0
116, 0, 0, 0.02150736749172211
117, 0, 0, 0.0337330661714077
118, 0, 0, 0
119, 0, 0, 0.02924208715558052
120, 0, 0, 0
121, 0, 0, 0
122, 0, 0, 0.06112244352698326
123, 0, 0, 0.02685772627592087
124, 0, 0, 0.02747047692537308
125, 0, 0, 0
126, 0, 0, 0
127, 0, 0, 0.04917065054178238
128, 0, 0, 0.08620855957269669
129, 0, 0, 0
130, 0, 0, 0
131, 0, 0, 0
132, 0, 0, 0.03210888057947159
133, 0, 0, 0
134, 0, 0, 0
135, 0, 0, 0
136, 0, 0, 0.03885987028479576
137, 0, 0, 0.03530864045023918
138, 0, 0, 0
139, 0, 0, 0
140, 0, 0, 0
141, 0, 0, 0.025138134136796
142, 0, 0, 0.01332313008606434
143, 0, 0, 0
144, 0, 0, 0.03593998029828072
145, 0, 0, 0.01658816263079643
146, 0, 0, 0.05869457870721817
147, 0, 0, 0
148, 0, 0, 0
149, 0, 0, 0.06023426353931427
150, 0, 0, 0.03606464713811874
151, 0, 0, 0
152, 0, 0, 0.06317684054374695
153, 0, 0, 0
154, 0, 0, 0
155, 0, 0, 0
156, 0, 0, 0
157, 0, 0, 0
158, 0, 0, 0
159, 0, 0, 0
160, 0, 0, 0
161, 0, 0, 0
162, 0, 0, 0
163, 0, 0, 0.01480610482394695
164, 0, 0, 0
165, 0, 0, 0.001555897179059684
166, 0, 0, 0
167, 0, 0, 0
168, 0, 0, 0
169, 0, 0, 0.01991655677556992
170, 0, 0, 0.07905526459217072
171, 0, 0, 0
172, 0, 0, 0.02776146680116653
173, 0, 0, 0
174, 0, 0, 0
175, 0, 0, 0
176, 0, 0, 0
177, 0, 0, 0
178, 0, 0, 0
179, 0, 0, 0.01687786728143692
