# TOPAS Version: 3.3.p1
# Parameter File: Simple_Pattern.txt
# Results for scorer MLIC_Scorer
# Scored in component: MLIC
# X in 180 bins of 0.222222 cm
# Y in 1 bin  of 10 cm
# Z in 1 bin  of 10 cm
# EnergyDeposit ( MeV ) : Sum   
0, 0, 0, 349.9874572753906
1, 0, 0, 348.1527404785156
2, 0, 0, 354.2350463867188
3, 0, 0, 354.6435241699219
4, 0, 0, 355.044189453125
5, 0, 0, 358.3058166503906
6, 0, 0, 357.1944580078125
7, 0, 0, 357.8083801269531
8, 0, 0, 361.2928771972656
9, 0, 0, 363.3130493164062
10, 0, 0, 363.9113159179688
11, 0, 0, 365.3761901855469
12, 0, 0, 368.6160888671875
13, 0, 0, 370.3357543945312
14, 0, 0, 375.5022277832031
15, 0, 0, 368.2926940917969
16, 0, 0, 377.14599609375
17, 0, 0, 383.6871948242188
18, 0, 0, 383.3388366699219
19, 0, 0, 390.5022888183594
20, 0, 0, 391.9476623535156
21, 0, 0, 391.0820007324219
22, 0, 0, 393.3816223144531
23, 0, 0, 400.2997741699219
24, 0, 0, 398.186279296875
25, 0, 0, 402.5771789550781
26, 0, 0, 406.5807800292969
27, 0, 0, 410.9706420898438
28, 0, 0, 412.4215087890625
29, 0, 0, 414.8172912597656
30, 0, 0, 421.3211975097656
31, 0, 0, 421.0208435058594
32, 0, 0, 423.656982421875
33, 0, 0, 427.0199584960938
34, 0, 0, 432.2904968261719
35, 0, 0, 439.8929748535156
36, 0, 0, 436.9605102539062
37, 0, 0, 447.5176086425781
38, 0, 0, 452.7685852050781
39, 0, 0, 456.8453674316406
40, 0, 0, 462.5438537597656
41, 0, 0, 461.4286804199219
42, 0, 0, 469.2421264648438
43, 0, 0, 476.1033325195312
44, 0, 0, 482.0099487304688
45, 0, 0, 487.9254760742188
46, 0, 0, 496.3790283203125
47, 0, 0, 497.2910766601562
48, 0, 0, 507.4761962890625
49, 0, 0, 510.8666381835938
50, 0, 0, 522.1990966796875
51, 0, 0, 525.2434692382812
52, 0, 0, 533.1834716796875
53, 0, 0, 541.4237670898438
54, 0, 0, 553.6235961914062
55, 0, 0, 559.3646850585938
56, 0, 0, 570.4791259765625
57, 0, 0, 577.9054565429688
58, 0, 0, 597.4080810546875
59, 0, 0, 604.099365234375
60, 0, 0, 616.8302001953125
61, 0, 0, 635.7819213867188
62, 0, 0, 650.0137329101562
63, 0, 0, 665.4508056640625
64, 0, 0, 681.3140869140625
65, 0, 0, 703.7933959960938
66, 0, 0, 726.5336303710938
67, 0, 0, 753.4264526367188
68, 0, 0, 779.7079467773438
69, 0, 0, 812.92724609375
70, 0, 0, 848.5828857421875
71, 0, 0, 888.2132568359375
72, 0, 0, 946.5814208984375
73, 0, 0, 1009.55126953125
74, 0, 0, 1095.300537109375
75, 0, 0, 1206.826293945312
76, 0, 0, 1362.214477539062
77, 0, 0, 1644.2412109375
78, 0, 0, 1801.354370117188
79, 0, 0, 1865.44189453125
80, 0, 0, 1410.029296875
81, 0, 0, 705.5882568359375
82, 0, 0, 361.975341796875
83, 0, 0, 38.87958908081055
84, 0, 0, 9.537143707275391
85, 0, 0, 0
86, 0, 0, 0
87, 0, 0, 0
88, 0, 0, 0
89, 0, 0, 0
90, 0, 0, 0
91, 0, 0, 0
92, 0, 0, 0
93, 0, 0, 0
94, 0, 0, 0
95, 0, 0, 0
96, 0, 0, 0
97, 0, 0, 0
98, 0, 0, 0
99, 0, 0, 0
100, 0, 0, 0
101, 0, 0, 0
102, 0, 0, 0
103, 0, 0, 0
104, 0, 0, 0
105, 0, 0, 0
106, 0, 0, 0
107, 0, 0, 0
108, 0, 0, 0
109, 0, 0, 0
110, 0, 0, 0
111, 0, 0, 0
112, 0, 0, 0
113, 0, 0, 0
114, 0, 0, 0
115, 0, 0, 0
116, 0, 0, 0
117, 0, 0, 0
118, 0, 0, 0
119, 0, 0, 0
120, 0, 0, 0
121, 0, 0, 0
122, 0, 0, 0
123, 0, 0, 0
124, 0, 0, 0
125, 0, 0, 0
126, 0, 0, 0
127, 0, 0, 0
128, 0, 0, 0
129, 0, 0, 0
130, 0, 0, 0
131, 0, 0, 0
132, 0, 0, 0
133, 0, 0, 0
134, 0, 0, 0
135, 0, 0, 0
136, 0, 0, 0
137, 0, 0, 0
138, 0, 0, 0
139, 0, 0, 0
140, 0, 0, 0
141, 0, 0, 0
142, 0, 0, 0
143, 0, 0, 0
144, 0, 0, 0
145, 0, 0, 0
146, 0, 0, 0
147, 0, 0, 0
148, 0, 0, 0
149, 0, 0, 0
150, 0, 0, 0
151, 0, 0, 0
152, 0, 0, 0
153, 0, 0, 0
154, 0, 0, 0
155, 0, 0, 0
156, 0, 0, 0
157, 0, 0, 0
158, 0, 0, 0
159, 0, 0, 0.03448919579386711
160, 0, 0, 0
161, 0, 0, 0
162, 0, 0, 0
163, 0, 0, 0
164, 0, 0, 0
165, 0, 0, 0
166, 0, 0, 0
167, 0, 0, 0
168, 0, 0, 0
169, 0, 0, 0
170, 0, 0, 0
171, 0, 0, 0
172, 0, 0, 0
173, 0, 0, 0
174, 0, 0, 0
175, 0, 0, 0
176, 0, 0, 0
177, 0, 0, 0
178, 0, 0, 0
179, 0, 0, 0
