# TOPAS Version: 3.3.p1
# Parameter File: Simple_Pattern.txt
# Results for scorer MLIC_Scorer
# Scored in component: MLIC
# X in 180 bins of 0.222222 cm
# Y in 1 bin  of 10 cm
# Z in 1 bin  of 10 cm
# EnergyDeposit ( MeV ) : Sum   
0, 0, 0, 36.9056282043457
1, 0, 0, 36.07089233398438
2, 0, 0, 35.89128875732422
3, 0, 0, 34.60437393188477
4, 0, 0, 36.27611923217773
5, 0, 0, 36.7462272644043
6, 0, 0, 37.96841049194336
7, 0, 0, 36.84794235229492
8, 0, 0, 36.37224197387695
9, 0, 0, 37.76070785522461
10, 0, 0, 36.72743606567383
11, 0, 0, 37.84987258911133
12, 0, 0, 36.46077728271484
13, 0, 0, 38.82735443115234
14, 0, 0, 38.09117889404297
15, 0, 0, 37.9573860168457
16, 0, 0, 37.92608642578125
17, 0, 0, 39.00336074829102
18, 0, 0, 39.20348739624023
19, 0, 0, 39.222412109375
20, 0, 0, 37.88983917236328
21, 0, 0, 37.82830810546875
22, 0, 0, 40.88014602661133
23, 0, 0, 39.8428840637207
24, 0, 0, 38.98867797851562
25, 0, 0, 40.15642547607422
26, 0, 0, 40.24491882324219
27, 0, 0, 40.45544052124023
28, 0, 0, 40.94473648071289
29, 0, 0, 42.14148712158203
30, 0, 0, 41.0247917175293
31, 0, 0, 43.50474548339844
32, 0, 0, 41.46646881103516
33, 0, 0, 41.96731185913086
34, 0, 0, 44.46656036376953
35, 0, 0, 43.28181076049805
36, 0, 0, 44.79356384277344
37, 0, 0, 44.22158050537109
38, 0, 0, 43.98024749755859
39, 0, 0, 46.69496536254883
40, 0, 0, 45.1369743347168
41, 0, 0, 44.12313079833984
42, 0, 0, 45.17521286010742
43, 0, 0, 44.68101501464844
44, 0, 0, 46.78146362304688
45, 0, 0, 46.17225646972656
46, 0, 0, 46.68812561035156
47, 0, 0, 46.04194259643555
48, 0, 0, 48.64972305297852
49, 0, 0, 48.02267074584961
50, 0, 0, 48.65963745117188
51, 0, 0, 49.41317749023438
52, 0, 0, 50.00357055664062
53, 0, 0, 49.38481140136719
54, 0, 0, 52.49151229858398
55, 0, 0, 51.21699523925781
56, 0, 0, 50.95310211181641
57, 0, 0, 51.99245834350586
58, 0, 0, 53.1451301574707
59, 0, 0, 53.57958221435547
60, 0, 0, 54.62785339355469
61, 0, 0, 55.966552734375
62, 0, 0, 55.39643859863281
63, 0, 0, 56.83375549316406
64, 0, 0, 57.22672653198242
65, 0, 0, 57.58773422241211
66, 0, 0, 59.07573318481445
67, 0, 0, 60.54652786254883
68, 0, 0, 61.88396453857422
69, 0, 0, 64.00367736816406
70, 0, 0, 64.23863983154297
71, 0, 0, 65.60929870605469
72, 0, 0, 66.01300048828125
73, 0, 0, 66.98519134521484
74, 0, 0, 66.6373291015625
75, 0, 0, 68.54055023193359
76, 0, 0, 71.28870391845703
77, 0, 0, 73.34650421142578
78, 0, 0, 73.61991119384766
79, 0, 0, 76.65568542480469
80, 0, 0, 78.86051940917969
81, 0, 0, 81.53181457519531
82, 0, 0, 86.68887329101562
83, 0, 0, 89.95855712890625
84, 0, 0, 92.62662506103516
85, 0, 0, 100.1201171875
86, 0, 0, 106.1152191162109
87, 0, 0, 112.7979583740234
88, 0, 0, 123.3892364501953
89, 0, 0, 139.6037139892578
90, 0, 0, 169.5025787353516
91, 0, 0, 205.2325592041016
92, 0, 0, 226.6309356689453
93, 0, 0, 165.3744659423828
94, 0, 0, 68.07345581054688
95, 0, 0, 26.34566879272461
96, 0, 0, 0
97, 0, 0, 0
98, 0, 0, 0
99, 0, 0, 0
100, 0, 0, 0
101, 0, 0, 0
102, 0, 0, 0
103, 0, 0, 0
104, 0, 0, 0
105, 0, 0, 0
106, 0, 0, 0
107, 0, 0, 0
108, 0, 0, 0
109, 0, 0, 0
110, 0, 0, 0
111, 0, 0, 0
112, 0, 0, 0
113, 0, 0, 0
114, 0, 0, 0
115, 0, 0, 0
116, 0, 0, 0
117, 0, 0, 0
118, 0, 0, 0
119, 0, 0, 0
120, 0, 0, 0
121, 0, 0, 0
122, 0, 0, 0
123, 0, 0, 0
124, 0, 0, 0
125, 0, 0, 0
126, 0, 0, 0
127, 0, 0, 0
128, 0, 0, 0
129, 0, 0, 0
130, 0, 0, 0
131, 0, 0, 0
132, 0, 0, 0
133, 0, 0, 0
134, 0, 0, 0
135, 0, 0, 0
136, 0, 0, 0
137, 0, 0, 0
138, 0, 0, 0
139, 0, 0, 0
140, 0, 0, 0
141, 0, 0, 0
142, 0, 0, 0
143, 0, 0, 0
144, 0, 0, 0
145, 0, 0, 0
146, 0, 0, 0
147, 0, 0, 0
148, 0, 0, 0
149, 0, 0, 0
150, 0, 0, 0
151, 0, 0, 0
152, 0, 0, 0
153, 0, 0, 0
154, 0, 0, 0
155, 0, 0, 0
156, 0, 0, 0
157, 0, 0, 0
158, 0, 0, 0
159, 0, 0, 0
160, 0, 0, 0
161, 0, 0, 0
162, 0, 0, 0
163, 0, 0, 0
164, 0, 0, 0
165, 0, 0, 0
166, 0, 0, 0
167, 0, 0, 0
168, 0, 0, 0
169, 0, 0, 0
170, 0, 0, 0
171, 0, 0, 0
172, 0, 0, 0
173, 0, 0, 0
174, 0, 0, 0
175, 0, 0, 0
176, 0, 0, 0
177, 0, 0, 0
178, 0, 0, 0
179, 0, 0, 0
