# TOPAS Version: 3.3.p1
# Parameter File: Simple_Pattern.txt
# Results for scorer MLIC_Scorer
# Scored in component: MLIC
# X in 180 bins of 0.222222 cm
# Y in 1 bin  of 10 cm
# Z in 1 bin  of 10 cm
# EnergyDeposit ( MeV ) : Sum   
0, 0, 0, 1082.934692382812
1, 0, 0, 1084.920654296875
2, 0, 0, 1093.50341796875
3, 0, 0, 1097.779052734375
4, 0, 0, 1101.320922851562
5, 0, 0, 1119.655395507812
6, 0, 0, 1116.576538085938
7, 0, 0, 1116.09326171875
8, 0, 0, 1122.134155273438
9, 0, 0, 1131.479125976562
10, 0, 0, 1139.0244140625
11, 0, 0, 1140.029296875
12, 0, 0, 1151.363891601562
13, 0, 0, 1141.9091796875
14, 0, 0, 1160.144165039062
15, 0, 0, 1171.463623046875
16, 0, 0, 1165.23876953125
17, 0, 0, 1179.365966796875
18, 0, 0, 1189.723754882812
19, 0, 0, 1187.904907226562
20, 0, 0, 1192.868896484375
21, 0, 0, 1196.603149414062
22, 0, 0, 1207.81298828125
23, 0, 0, 1218.30078125
24, 0, 0, 1225.507446289062
25, 0, 0, 1230.9990234375
26, 0, 0, 1237.018676757812
27, 0, 0, 1241.643310546875
28, 0, 0, 1254.803100585938
29, 0, 0, 1255.252807617188
30, 0, 0, 1269.024780273438
31, 0, 0, 1268.214477539062
32, 0, 0, 1285.2646484375
33, 0, 0, 1289.763061523438
34, 0, 0, 1302.430908203125
35, 0, 0, 1321.333862304688
36, 0, 0, 1319.452514648438
37, 0, 0, 1328.954711914062
38, 0, 0, 1336.037719726562
39, 0, 0, 1346.449096679688
40, 0, 0, 1358.055786132812
41, 0, 0, 1364.886474609375
42, 0, 0, 1378.984741210938
43, 0, 0, 1389.895629882812
44, 0, 0, 1402.944702148438
45, 0, 0, 1420.113403320312
46, 0, 0, 1432.316162109375
47, 0, 0, 1442.1181640625
48, 0, 0, 1449.767700195312
49, 0, 0, 1472.302001953125
50, 0, 0, 1488.28955078125
51, 0, 0, 1508.123901367188
52, 0, 0, 1513.990966796875
53, 0, 0, 1534.173461914062
54, 0, 0, 1547.379028320312
55, 0, 0, 1569.954956054688
56, 0, 0, 1583.842895507812
57, 0, 0, 1597.753295898438
58, 0, 0, 1621.86376953125
59, 0, 0, 1638.263549804688
60, 0, 0, 1663.533325195312
61, 0, 0, 1680.545532226562
62, 0, 0, 1705.40625
63, 0, 0, 1725.913452148438
64, 0, 0, 1757.163452148438
65, 0, 0, 1784.56396484375
66, 0, 0, 1810.828857421875
67, 0, 0, 1838.857299804688
68, 0, 0, 1875.921020507812
69, 0, 0, 1913.320190429688
70, 0, 0, 1933.439086914062
71, 0, 0, 1976.984497070312
72, 0, 0, 2028.480712890625
73, 0, 0, 2071.61279296875
74, 0, 0, 2113.126953125
75, 0, 0, 2163.909912109375
76, 0, 0, 2222.509033203125
77, 0, 0, 2281.848388671875
78, 0, 0, 2359.37353515625
79, 0, 0, 2422.997802734375
80, 0, 0, 2508.531005859375
81, 0, 0, 2603.270263671875
82, 0, 0, 2714.38916015625
83, 0, 0, 2847.170166015625
84, 0, 0, 2988.554931640625
85, 0, 0, 3180.657470703125
86, 0, 0, 3393.444580078125
87, 0, 0, 3686.98095703125
88, 0, 0, 4106.84033203125
89, 0, 0, 4708.853515625
90, 0, 0, 5565.10107421875
91, 0, 0, 6183.51220703125
92, 0, 0, 5770.1953125
93, 0, 0, 4582.7880859375
94, 0, 0, 2216.51611328125
95, 0, 0, 588.3645629882812
96, 0, 0, 116.4093627929688
97, 0, 0, 28.58440780639648
98, 0, 0, 0
99, 0, 0, 0
100, 0, 0, 0
101, 0, 0, 0
102, 0, 0, 0
103, 0, 0, 0
104, 0, 0, 0
105, 0, 0, 0
106, 0, 0, 0
107, 0, 0, 0
108, 0, 0, 0
109, 0, 0, 0
110, 0, 0, 0.007029849570244551
111, 0, 0, 0
112, 0, 0, 0
113, 0, 0, 0.002853814279660583
114, 0, 0, 0
115, 0, 0, 0
116, 0, 0, 0
117, 0, 0, 0
118, 0, 0, 0
119, 0, 0, 0.008544562384486198
120, 0, 0, 0
121, 0, 0, 0
122, 0, 0, 0
123, 0, 0, 0
124, 0, 0, 0
125, 0, 0, 0
126, 0, 0, 0
127, 0, 0, 0
128, 0, 0, 0
129, 0, 0, 0
130, 0, 0, 0
131, 0, 0, 0
132, 0, 0, 0
133, 0, 0, 0
134, 0, 0, 0
135, 0, 0, 0
136, 0, 0, 0
137, 0, 0, 0
138, 0, 0, 0
139, 0, 0, 0
140, 0, 0, 0
141, 0, 0, 0
142, 0, 0, 0
143, 0, 0, 0
144, 0, 0, 0
145, 0, 0, 0
146, 0, 0, 0
147, 0, 0, 0
148, 0, 0, 0
149, 0, 0, 0
150, 0, 0, 0
151, 0, 0, 0
152, 0, 0, 0
153, 0, 0, 0
154, 0, 0, 0
155, 0, 0, 0
156, 0, 0, 0
157, 0, 0, 0
158, 0, 0, 0
159, 0, 0, 0
160, 0, 0, 0
161, 0, 0, 0
162, 0, 0, 0
163, 0, 0, 0
164, 0, 0, 0
165, 0, 0, 0
166, 0, 0, 0
167, 0, 0, 0
168, 0, 0, 0
169, 0, 0, 0
170, 0, 0, 0
171, 0, 0, 0
172, 0, 0, 0
173, 0, 0, 0
174, 0, 0, 0
175, 0, 0, 0
176, 0, 0, 0
177, 0, 0, 0
178, 0, 0, 0
179, 0, 0, 0
