# TOPAS Version: 3.3.p1
# Parameter File: Simple_Pattern.txt
# Results for scorer MLIC_Scorer
# Scored in component: MLIC
# X in 180 bins of 0.222222 cm
# Y in 1 bin  of 10 cm
# Z in 1 bin  of 10 cm
# EnergyDeposit ( MeV ) : Sum   
0, 0, 0, 64.63942718505859
1, 0, 0, 65.21247863769531
2, 0, 0, 63.41157531738281
3, 0, 0, 65.15241241455078
4, 0, 0, 65.37029266357422
5, 0, 0, 64.45460510253906
6, 0, 0, 67.37953948974609
7, 0, 0, 66.66503143310547
8, 0, 0, 67.56516265869141
9, 0, 0, 69.49115753173828
10, 0, 0, 67.5079345703125
11, 0, 0, 70.63455200195312
12, 0, 0, 70.38008117675781
13, 0, 0, 70.23395538330078
14, 0, 0, 71.15317535400391
15, 0, 0, 67.95183563232422
16, 0, 0, 69.39419555664062
17, 0, 0, 69.00742340087891
18, 0, 0, 70.86931610107422
19, 0, 0, 70.92171478271484
20, 0, 0, 70.78956604003906
21, 0, 0, 73.01523590087891
22, 0, 0, 74.16029357910156
23, 0, 0, 72.58321380615234
24, 0, 0, 75.00492095947266
25, 0, 0, 74.54506683349609
26, 0, 0, 75.16841888427734
27, 0, 0, 74.82370758056641
28, 0, 0, 76.33094787597656
29, 0, 0, 75.55308532714844
30, 0, 0, 78.19181823730469
31, 0, 0, 79.62662506103516
32, 0, 0, 79.23532104492188
33, 0, 0, 80.00245666503906
34, 0, 0, 79.52223205566406
35, 0, 0, 79.98703002929688
36, 0, 0, 80.99945068359375
37, 0, 0, 82.16712951660156
38, 0, 0, 82.12126922607422
39, 0, 0, 84.72779083251953
40, 0, 0, 83.02706909179688
41, 0, 0, 85.43539428710938
42, 0, 0, 87.66619873046875
43, 0, 0, 89.84611511230469
44, 0, 0, 89.22469329833984
45, 0, 0, 89.60562896728516
46, 0, 0, 88.96163940429688
47, 0, 0, 91.2813720703125
48, 0, 0, 93.07949066162109
49, 0, 0, 95.12509918212891
50, 0, 0, 94.56056213378906
51, 0, 0, 97.04067230224609
52, 0, 0, 96.98483276367188
53, 0, 0, 98.94383239746094
54, 0, 0, 102.5975570678711
55, 0, 0, 102.5578842163086
56, 0, 0, 104.6460189819336
57, 0, 0, 105.7460708618164
58, 0, 0, 109.4390716552734
59, 0, 0, 111.3765335083008
60, 0, 0, 113.8320465087891
61, 0, 0, 117.714111328125
62, 0, 0, 118.4749374389648
63, 0, 0, 122.3824920654297
64, 0, 0, 123.7006912231445
65, 0, 0, 128.4910583496094
66, 0, 0, 133.0127716064453
67, 0, 0, 136.1149749755859
68, 0, 0, 143.2210388183594
69, 0, 0, 147.9197235107422
70, 0, 0, 155.2168731689453
71, 0, 0, 162.6756744384766
72, 0, 0, 170.3061981201172
73, 0, 0, 180.1779022216797
74, 0, 0, 195.5454254150391
75, 0, 0, 216.4698486328125
76, 0, 0, 240.2676544189453
77, 0, 0, 258.9868774414062
78, 0, 0, 333.5844116210938
79, 0, 0, 351.2566223144531
80, 0, 0, 306.16552734375
81, 0, 0, 179.4610443115234
82, 0, 0, 92.53758239746094
83, 0, 0, 31.09560203552246
84, 0, 0, 3.186948776245117
85, 0, 0, 3.04069972038269
86, 0, 0, 3.792090892791748
87, 0, 0, 4.277089595794678
88, 0, 0, 4.801496505737305
89, 0, 0, 6.159835815429688
90, 0, 0, 9.208515167236328
91, 0, 0, 6.900588512420654
92, 0, 0, 0
93, 0, 0, 0
94, 0, 0, 0
95, 0, 0, 0
96, 0, 0, 0
97, 0, 0, 0
98, 0, 0, 0
99, 0, 0, 0
100, 0, 0, 0
101, 0, 0, 0
102, 0, 0, 0
103, 0, 0, 0
104, 0, 0, 0
105, 0, 0, 0
106, 0, 0, 0
107, 0, 0, 0
108, 0, 0, 0
109, 0, 0, 0
110, 0, 0, 0
111, 0, 0, 0
112, 0, 0, 0
113, 0, 0, 0
114, 0, 0, 0
115, 0, 0, 0
116, 0, 0, 0
117, 0, 0, 0
118, 0, 0, 0
119, 0, 0, 0
120, 0, 0, 0
121, 0, 0, 0
122, 0, 0, 0
123, 0, 0, 0
124, 0, 0, 0
125, 0, 0, 0
126, 0, 0, 0
127, 0, 0, 0
128, 0, 0, 0
129, 0, 0, 0
130, 0, 0, 0
131, 0, 0, 0
132, 0, 0, 0
133, 0, 0, 0
134, 0, 0, 0
135, 0, 0, 0
136, 0, 0, 0
137, 0, 0, 0
138, 0, 0, 0
139, 0, 0, 0
140, 0, 0, 0
141, 0, 0, 0
142, 0, 0, 0
143, 0, 0, 0
144, 0, 0, 0
145, 0, 0, 0
146, 0, 0, 0
147, 0, 0, 0
148, 0, 0, 0
149, 0, 0, 0
150, 0, 0, 0
151, 0, 0, 0
152, 0, 0, 0
153, 0, 0, 0
154, 0, 0, 0
155, 0, 0, 0
156, 0, 0, 0
157, 0, 0, 0
158, 0, 0, 0
159, 0, 0, 0
160, 0, 0, 0
161, 0, 0, 0
162, 0, 0, 0
163, 0, 0, 0
164, 0, 0, 0
165, 0, 0, 0
166, 0, 0, 0
167, 0, 0, 0
168, 0, 0, 0
169, 0, 0, 0
170, 0, 0, 0
171, 0, 0, 0
172, 0, 0, 0
173, 0, 0, 0
174, 0, 0, 0
175, 0, 0, 0
176, 0, 0, 0
177, 0, 0, 0
178, 0, 0, 0
179, 0, 0, 0
