# TOPAS Version: 3.3.p1
# Parameter File: Simple_Pattern.txt
# Results for scorer MLIC_Scorer
# Scored in component: MLIC
# X in 180 bins of 0.222222 cm
# Y in 1 bin  of 10 cm
# Z in 1 bin  of 10 cm
# EnergyDeposit ( MeV ) : Sum   
0, 0, 0, 48.19281768798828
1, 0, 0, 49.29752349853516
2, 0, 0, 47.39480209350586
3, 0, 0, 49.37667846679688
4, 0, 0, 48.57936477661133
5, 0, 0, 50.14765167236328
6, 0, 0, 48.90746688842773
7, 0, 0, 50.22224426269531
8, 0, 0, 49.5848503112793
9, 0, 0, 49.87856292724609
10, 0, 0, 51.49641799926758
11, 0, 0, 48.85883331298828
12, 0, 0, 47.37624359130859
13, 0, 0, 51.55601501464844
14, 0, 0, 49.93581390380859
15, 0, 0, 51.5656852722168
16, 0, 0, 51.04278182983398
17, 0, 0, 50.05599212646484
18, 0, 0, 52.03266906738281
19, 0, 0, 54.13949203491211
20, 0, 0, 54.33957672119141
21, 0, 0, 52.59209060668945
22, 0, 0, 54.18843460083008
23, 0, 0, 52.38845443725586
24, 0, 0, 53.58175659179688
25, 0, 0, 54.40151977539062
26, 0, 0, 53.60107040405273
27, 0, 0, 56.66523361206055
28, 0, 0, 55.40876007080078
29, 0, 0, 53.9254150390625
30, 0, 0, 54.79792022705078
31, 0, 0, 56.3023796081543
32, 0, 0, 56.08104705810547
33, 0, 0, 57.98320388793945
34, 0, 0, 58.71753311157227
35, 0, 0, 58.59466934204102
36, 0, 0, 57.0098991394043
37, 0, 0, 57.50331497192383
38, 0, 0, 60.97547149658203
39, 0, 0, 60.33966064453125
40, 0, 0, 59.59900283813477
41, 0, 0, 58.82118988037109
42, 0, 0, 60.82455062866211
43, 0, 0, 61.98993301391602
44, 0, 0, 63.16575241088867
45, 0, 0, 61.86749649047852
46, 0, 0, 64.52027893066406
47, 0, 0, 61.52518844604492
48, 0, 0, 63.53752899169922
49, 0, 0, 63.88779449462891
50, 0, 0, 64.63977813720703
51, 0, 0, 66.27367401123047
52, 0, 0, 68.27699279785156
53, 0, 0, 66.15998840332031
54, 0, 0, 67.55808258056641
55, 0, 0, 70.38417053222656
56, 0, 0, 70.07398223876953
57, 0, 0, 70.30476379394531
58, 0, 0, 70.58818817138672
59, 0, 0, 70.39463043212891
60, 0, 0, 74.91598510742188
61, 0, 0, 72.64509582519531
62, 0, 0, 73.90361022949219
63, 0, 0, 74.19728851318359
64, 0, 0, 77.69158935546875
65, 0, 0, 78.26888275146484
66, 0, 0, 79.360107421875
67, 0, 0, 79.86735534667969
68, 0, 0, 81.25772094726562
69, 0, 0, 83.69896697998047
70, 0, 0, 86.16278839111328
71, 0, 0, 87.30137634277344
72, 0, 0, 89.53134918212891
73, 0, 0, 90.30516815185547
74, 0, 0, 92.69728851318359
75, 0, 0, 95.30908203125
76, 0, 0, 95.31433868408203
77, 0, 0, 99.65283203125
78, 0, 0, 101.4483337402344
79, 0, 0, 105.0591125488281
80, 0, 0, 106.7144546508789
81, 0, 0, 113.0970993041992
82, 0, 0, 116.6639251708984
83, 0, 0, 121.0224914550781
84, 0, 0, 127.6945190429688
85, 0, 0, 134.7902374267578
86, 0, 0, 145.5527954101562
87, 0, 0, 156.1730651855469
88, 0, 0, 171.2510833740234
89, 0, 0, 193.4160461425781
90, 0, 0, 232.9939117431641
91, 0, 0, 298.9974975585938
92, 0, 0, 262.4311218261719
93, 0, 0, 168.0735778808594
94, 0, 0, 102.562385559082
95, 0, 0, 12.78934383392334
96, 0, 0, 0
97, 0, 0, 0
98, 0, 0, 0
99, 0, 0, 0
100, 0, 0, 0
101, 0, 0, 0
102, 0, 0, 0
103, 0, 0, 0
104, 0, 0, 0
105, 0, 0, 0
106, 0, 0, 0
107, 0, 0, 0
108, 0, 0, 0
109, 0, 0, 0
110, 0, 0, 0
111, 0, 0, 0
112, 0, 0, 0
113, 0, 0, 0
114, 0, 0, 0
115, 0, 0, 0
116, 0, 0, 0
117, 0, 0, 0
118, 0, 0, 0
119, 0, 0, 0
120, 0, 0, 0
121, 0, 0, 0
122, 0, 0, 0
123, 0, 0, 0
124, 0, 0, 0
125, 0, 0, 0
126, 0, 0, 0
127, 0, 0, 0
128, 0, 0, 0
129, 0, 0, 0
130, 0, 0, 0
131, 0, 0, 0
132, 0, 0, 0
133, 0, 0, 0
134, 0, 0, 0
135, 0, 0, 0
136, 0, 0, 0
137, 0, 0, 0
138, 0, 0, 0
139, 0, 0, 0
140, 0, 0, 0
141, 0, 0, 0
142, 0, 0, 0
143, 0, 0, 0
144, 0, 0, 0
145, 0, 0, 0
146, 0, 0, 0
147, 0, 0, 0
148, 0, 0, 0
149, 0, 0, 0
150, 0, 0, 0
151, 0, 0, 0
152, 0, 0, 0
153, 0, 0, 0
154, 0, 0, 0
155, 0, 0, 0
156, 0, 0, 0
157, 0, 0, 0
158, 0, 0, 0
159, 0, 0, 0
160, 0, 0, 0
161, 0, 0, 0
162, 0, 0, 0
163, 0, 0, 0
164, 0, 0, 0
165, 0, 0, 0
166, 0, 0, 0
167, 0, 0, 0
168, 0, 0, 0
169, 0, 0, 0
170, 0, 0, 0
171, 0, 0, 0
172, 0, 0, 0
173, 0, 0, 0
174, 0, 0, 0
175, 0, 0, 0
176, 0, 0, 0
177, 0, 0, 0
178, 0, 0, 0
179, 0, 0, 0
