# TOPAS Version: 3.3.p1
# Parameter File: Simple_Pattern.txt
# Results for scorer MLIC_Scorer
# Scored in component: MLIC
# X in 180 bins of 0.222222 cm
# Y in 1 bin  of 10 cm
# Z in 1 bin  of 10 cm
# EnergyDeposit ( MeV ) : Sum   
0, 0, 0, 51.92037582397461
1, 0, 0, 52.05300140380859
2, 0, 0, 52.32701110839844
3, 0, 0, 53.96062850952148
4, 0, 0, 51.0147705078125
5, 0, 0, 52.50900268554688
6, 0, 0, 53.55147171020508
7, 0, 0, 54.62069702148438
8, 0, 0, 55.3018913269043
9, 0, 0, 54.41784286499023
10, 0, 0, 54.71712112426758
11, 0, 0, 55.09184265136719
12, 0, 0, 54.4989013671875
13, 0, 0, 53.61991119384766
14, 0, 0, 55.14688873291016
15, 0, 0, 54.99077987670898
16, 0, 0, 56.05560302734375
17, 0, 0, 58.35401153564453
18, 0, 0, 57.19601058959961
19, 0, 0, 56.42722702026367
20, 0, 0, 56.93022918701172
21, 0, 0, 57.44530487060547
22, 0, 0, 58.25006866455078
23, 0, 0, 56.60325241088867
24, 0, 0, 59.10285186767578
25, 0, 0, 58.64410400390625
26, 0, 0, 61.3868408203125
27, 0, 0, 60.1005859375
28, 0, 0, 61.61970520019531
29, 0, 0, 60.19610977172852
30, 0, 0, 61.02822875976562
31, 0, 0, 62.89091873168945
32, 0, 0, 60.26580047607422
33, 0, 0, 63.78054046630859
34, 0, 0, 60.69192123413086
35, 0, 0, 62.40997695922852
36, 0, 0, 63.65412902832031
37, 0, 0, 61.8289680480957
38, 0, 0, 62.23272705078125
39, 0, 0, 62.15642166137695
40, 0, 0, 62.95869064331055
41, 0, 0, 62.14097595214844
42, 0, 0, 62.02730560302734
43, 0, 0, 63.24827194213867
44, 0, 0, 63.69289016723633
45, 0, 0, 64.32557678222656
46, 0, 0, 64.82101440429688
47, 0, 0, 66.02670288085938
48, 0, 0, 67.27055358886719
49, 0, 0, 66.03543853759766
50, 0, 0, 68.50246429443359
51, 0, 0, 68.07141876220703
52, 0, 0, 69.23929595947266
53, 0, 0, 70.29730987548828
54, 0, 0, 71.89279174804688
55, 0, 0, 73.11235809326172
56, 0, 0, 73.12753295898438
57, 0, 0, 74.44380187988281
58, 0, 0, 72.13985443115234
59, 0, 0, 70.58819580078125
60, 0, 0, 71.85620880126953
61, 0, 0, 71.82231903076172
62, 0, 0, 71.65618133544922
63, 0, 0, 72.7344970703125
64, 0, 0, 76.70944976806641
65, 0, 0, 77.6890869140625
66, 0, 0, 77.29682159423828
67, 0, 0, 78.23764801025391
68, 0, 0, 79.52590179443359
69, 0, 0, 81.07180023193359
70, 0, 0, 81.98638153076172
71, 0, 0, 82.59717559814453
72, 0, 0, 85.59728240966797
73, 0, 0, 86.51181030273438
74, 0, 0, 87.37967681884766
75, 0, 0, 88.37104034423828
76, 0, 0, 89.02569580078125
77, 0, 0, 91.59496307373047
78, 0, 0, 93.57443237304688
79, 0, 0, 94.66984558105469
80, 0, 0, 96.31929016113281
81, 0, 0, 100.7646102905273
82, 0, 0, 105.4796905517578
83, 0, 0, 108.5858383178711
84, 0, 0, 116.3644256591797
85, 0, 0, 121.5817108154297
86, 0, 0, 128.9525146484375
87, 0, 0, 131.2688903808594
88, 0, 0, 146.1726379394531
89, 0, 0, 170.9234313964844
90, 0, 0, 174.9984893798828
91, 0, 0, 232.0297241210938
92, 0, 0, 204.0700988769531
93, 0, 0, 176.0956115722656
94, 0, 0, 121.4786071777344
95, 0, 0, 68.14251708984375
96, 0, 0, 15.33745765686035
97, 0, 0, 0
98, 0, 0, 0
99, 0, 0, 0
100, 0, 0, 0
101, 0, 0, 0
102, 0, 0, 0
103, 0, 0, 0
104, 0, 0, 0
105, 0, 0, 0
106, 0, 0, 0
107, 0, 0, 0
108, 0, 0, 0
109, 0, 0, 0
110, 0, 0, 0
111, 0, 0, 0
112, 0, 0, 0
113, 0, 0, 0
114, 0, 0, 0
115, 0, 0, 0
116, 0, 0, 0
117, 0, 0, 0
118, 0, 0, 0
119, 0, 0, 0
120, 0, 0, 0
121, 0, 0, 0
122, 0, 0, 0
123, 0, 0, 0
124, 0, 0, 0
125, 0, 0, 0
126, 0, 0, 0
127, 0, 0, 0
128, 0, 0, 0
129, 0, 0, 0
130, 0, 0, 0
131, 0, 0, 0
132, 0, 0, 0
133, 0, 0, 0
134, 0, 0, 0
135, 0, 0, 0
136, 0, 0, 0
137, 0, 0, 0
138, 0, 0, 0
139, 0, 0, 0
140, 0, 0, 0
141, 0, 0, 0
142, 0, 0, 0
143, 0, 0, 0
144, 0, 0, 0
145, 0, 0, 0
146, 0, 0, 0
147, 0, 0, 0.07578025013208389
148, 0, 0, 0
149, 0, 0, 0
150, 0, 0, 0
151, 0, 0, 0
152, 0, 0, 0
153, 0, 0, 0
154, 0, 0, 0
155, 0, 0, 0
156, 0, 0, 0
157, 0, 0, 0
158, 0, 0, 0
159, 0, 0, 0
160, 0, 0, 0
161, 0, 0, 0
162, 0, 0, 0
163, 0, 0, 0
164, 0, 0, 0
165, 0, 0, 0
166, 0, 0, 0
167, 0, 0, 0
168, 0, 0, 0
169, 0, 0, 0
170, 0, 0, 0
171, 0, 0, 0
172, 0, 0, 0
173, 0, 0, 0
174, 0, 0, 0
175, 0, 0, 0
176, 0, 0, 0
177, 0, 0, 0
178, 0, 0, 0
179, 0, 0, 0
