# TOPAS Version: 3.3.p1
# Parameter File: Simple_Pattern.txt
# Results for scorer MLIC_Scorer
# Scored in component: MLIC
# X in 165 bins of 0.2 cm
# Y in 1 bin  of 10 cm
# Z in 1 bin  of 10 cm
# EnergyDeposit ( MeV ) : Sum   
0, 0, 0, 0.04303192347288132
1, 0, 0, 0.1467138826847076
2, 0, 0, 0.09824902564287186
3, 0, 0, 0
4, 0, 0, 0
5, 0, 0, 0
6, 0, 0, 0
7, 0, 0, 0
8, 0, 0, 0.006034455262124538
9, 0, 0, 0.008368168957531452
10, 0, 0, 0
11, 0, 0, 0
12, 0, 0, 0
13, 0, 0, 0
14, 0, 0, 0.01364051923155785
15, 0, 0, 0
16, 0, 0, 0
17, 0, 0, 0
18, 0, 0, 0.01376770902425051
19, 0, 0, 0
20, 0, 0, 0.07679677754640579
21, 0, 0, 0.04417542368173599
22, 0, 0, 0.06148769333958626
23, 0, 0, 0.1078057661652565
24, 0, 0, 0
25, 0, 0, 0
26, 0, 0, 0.007269600406289101
27, 0, 0, 0.07408984750509262
28, 0, 0, 0.04175083711743355
29, 0, 0, 0
30, 0, 0, 0
31, 0, 0, 0.04044158756732941
32, 0, 0, 0
33, 0, 0, 0
34, 0, 0, 0.07570869475603104
35, 0, 0, 0.03731141984462738
36, 0, 0, 0
37, 0, 0, 0.008005594834685326
38, 0, 0, 0.07625677436590195
39, 0, 0, 0.06687027215957642
40, 0, 0, 0.09432399272918701
41, 0, 0, 0
42, 0, 0, 0.09142699092626572
43, 0, 0, 0.03360064700245857
44, 0, 0, 9.434816360473633
45, 0, 0, 113.7737808227539
46, 0, 0, 380.2583923339844
47, 0, 0, 1065.076171875
48, 0, 0, 2241.00390625
49, 0, 0, 3247.34619140625
50, 0, 0, 3906.29296875
51, 0, 0, 3961.178466796875
52, 0, 0, 3509.1005859375
53, 0, 0, 3090.28125
54, 0, 0, 2760.323974609375
55, 0, 0, 2493.302734375
56, 0, 0, 2329.946533203125
57, 0, 0, 2190.734375
58, 0, 0, 2079.939453125
59, 0, 0, 1983.135986328125
60, 0, 0, 1897.037475585938
61, 0, 0, 1843.185180664062
62, 0, 0, 1786.370361328125
63, 0, 0, 1719.727661132812
64, 0, 0, 1684.318237304688
65, 0, 0, 1649.39501953125
66, 0, 0, 1613.439819335938
67, 0, 0, 1584.747436523438
68, 0, 0, 1555.417846679688
69, 0, 0, 1530.612548828125
70, 0, 0, 1490.980590820312
71, 0, 0, 1473.185546875
72, 0, 0, 1450.8134765625
73, 0, 0, 1417.355590820312
74, 0, 0, 1411.074462890625
75, 0, 0, 1389.28369140625
76, 0, 0, 1367.847045898438
77, 0, 0, 1356.675537109375
78, 0, 0, 1348.623046875
79, 0, 0, 1335.876831054688
80, 0, 0, 1321.702270507812
81, 0, 0, 1319.5986328125
82, 0, 0, 1304.87158203125
83, 0, 0, 1295.259887695312
84, 0, 0, 1279.74267578125
85, 0, 0, 1273.571533203125
86, 0, 0, 1264.131713867188
87, 0, 0, 1248.049682617188
88, 0, 0, 1244.126342773438
89, 0, 0, 1240.32470703125
90, 0, 0, 1229.899536132812
91, 0, 0, 1224.545288085938
92, 0, 0, 1218.441040039062
93, 0, 0, 1203.120727539062
94, 0, 0, 1201.356689453125
95, 0, 0, 1192.3369140625
96, 0, 0, 1179.151733398438
97, 0, 0, 1166.69873046875
98, 0, 0, 1160.281005859375
99, 0, 0, 1155.146728515625
100, 0, 0, 1137.47314453125
101, 0, 0, 1145.82958984375
102, 0, 0, 1141.624633789062
103, 0, 0, 1138.666870117188
104, 0, 0, 1128.91259765625
105, 0, 0, 1126.579223632812
106, 0, 0, 1115.095947265625
107, 0, 0, 1116.895751953125
108, 0, 0, 1115.787963867188
109, 0, 0, 1111.206176757812
110, 0, 0, 1100.388305664062
111, 0, 0, 1099.513061523438
112, 0, 0, 1089.697631835938
113, 0, 0, 1084.109497070312
114, 0, 0, 1074.647705078125
115, 0, 0, 1084.38330078125
116, 0, 0, 1064.51953125
117, 0, 0, 1070.97216796875
118, 0, 0, 1068.755737304688
119, 0, 0, 1055.240844726562
120, 0, 0, 1063.22265625
121, 0, 0, 1056.529174804688
122, 0, 0, 1050.393188476562
123, 0, 0, 1050.41845703125
124, 0, 0, 1057.65087890625
125, 0, 0, 1043.036376953125
126, 0, 0, 1048.331420898438
127, 0, 0, 1048.81689453125
128, 0, 0, 1040.46044921875
129, 0, 0, 1036.628540039062
130, 0, 0, 1040.451904296875
131, 0, 0, 1028.7548828125
132, 0, 0, 1046.067138671875
133, 0, 0, 1034.444580078125
134, 0, 0, 1025.849975585938
135, 0, 0, 1026.5673828125
136, 0, 0, 1023.296813964844
137, 0, 0, 1022.567504882812
138, 0, 0, 1007.642150878906
139, 0, 0, 1012.571228027344
140, 0, 0, 1010.247497558594
141, 0, 0, 1004.102661132812
142, 0, 0, 992.1210327148438
143, 0, 0, 999.417236328125
144, 0, 0, 990.0309448242188
145, 0, 0, 993.5733032226562
146, 0, 0, 994.7514038085938
147, 0, 0, 994.227783203125
148, 0, 0, 981.7400512695312
149, 0, 0, 976.3388671875
150, 0, 0, 977.9418334960938
151, 0, 0, 975.7803955078125
152, 0, 0, 981.0396728515625
153, 0, 0, 974.3703002929688
154, 0, 0, 966.3722534179688
155, 0, 0, 961.367431640625
156, 0, 0, 954.0113525390625
157, 0, 0, 958.4715576171875
158, 0, 0, 954.9938354492188
159, 0, 0, 953.5816650390625
160, 0, 0, 949.4295654296875
161, 0, 0, 943.3296508789062
162, 0, 0, 947.6187133789062
163, 0, 0, 941.44677734375
164, 0, 0, 938.0288696289062
