# TOPAS Version: 3.3.p1
# Parameter File: Simple_Pattern.txt
# Results for scorer MLIC_Scorer
# Scored in component: MLIC
# X in 180 bins of 0.222222 cm
# Y in 1 bin  of 10 cm
# Z in 1 bin  of 10 cm
# EnergyDeposit ( MeV ) : Sum   
0, 0, 0, 1088.9013671875
1, 0, 0, 1089.753540039062
2, 0, 0, 1094.191040039062
3, 0, 0, 1098.104370117188
4, 0, 0, 1101.229125976562
5, 0, 0, 1116.823608398438
6, 0, 0, 1114.331298828125
7, 0, 0, 1125.043701171875
8, 0, 0, 1122.217041015625
9, 0, 0, 1133.404418945312
10, 0, 0, 1139.718994140625
11, 0, 0, 1148.314819335938
12, 0, 0, 1153.221801757812
13, 0, 0, 1149.11669921875
14, 0, 0, 1165.020629882812
15, 0, 0, 1168.901245117188
16, 0, 0, 1170.120971679688
17, 0, 0, 1180.795654296875
18, 0, 0, 1185.971801757812
19, 0, 0, 1187.63037109375
20, 0, 0, 1194.031127929688
21, 0, 0, 1200.307739257812
22, 0, 0, 1207.32421875
23, 0, 0, 1218.34228515625
24, 0, 0, 1212.270629882812
25, 0, 0, 1232.93359375
26, 0, 0, 1233.9140625
27, 0, 0, 1241.693603515625
28, 0, 0, 1250.681396484375
29, 0, 0, 1256.884887695312
30, 0, 0, 1265.920532226562
31, 0, 0, 1271.532836914062
32, 0, 0, 1281.734008789062
33, 0, 0, 1286.593017578125
34, 0, 0, 1300.341674804688
35, 0, 0, 1315.329711914062
36, 0, 0, 1325.448852539062
37, 0, 0, 1333.249633789062
38, 0, 0, 1334.723388671875
39, 0, 0, 1354.374389648438
40, 0, 0, 1354.346801757812
41, 0, 0, 1369.960571289062
42, 0, 0, 1379.296875
43, 0, 0, 1388.567504882812
44, 0, 0, 1395.98876953125
45, 0, 0, 1414.083740234375
46, 0, 0, 1435.531494140625
47, 0, 0, 1450.173706054688
48, 0, 0, 1453.531372070312
49, 0, 0, 1475.6171875
50, 0, 0, 1484.618896484375
51, 0, 0, 1494.80859375
52, 0, 0, 1516.75244140625
53, 0, 0, 1526.307006835938
54, 0, 0, 1543.505493164062
55, 0, 0, 1564.786865234375
56, 0, 0, 1583.963256835938
57, 0, 0, 1605.784912109375
58, 0, 0, 1615.105346679688
59, 0, 0, 1637.612670898438
60, 0, 0, 1651.482299804688
61, 0, 0, 1681.640747070312
62, 0, 0, 1705.625122070312
63, 0, 0, 1730.462524414062
64, 0, 0, 1752.932006835938
65, 0, 0, 1787.882690429688
66, 0, 0, 1801.260375976562
67, 0, 0, 1843.7685546875
68, 0, 0, 1864.726318359375
69, 0, 0, 1896.6552734375
70, 0, 0, 1937.536743164062
71, 0, 0, 1981.834838867188
72, 0, 0, 2022.582763671875
73, 0, 0, 2057.016357421875
74, 0, 0, 2102.947021484375
75, 0, 0, 2163.103759765625
76, 0, 0, 2226.888916015625
77, 0, 0, 2297.2646484375
78, 0, 0, 2342.304443359375
79, 0, 0, 2429.735107421875
80, 0, 0, 2504.16357421875
81, 0, 0, 2605.349609375
82, 0, 0, 2706.209228515625
83, 0, 0, 2825.977294921875
84, 0, 0, 2982.24755859375
85, 0, 0, 3155.85498046875
86, 0, 0, 3381.335693359375
87, 0, 0, 3668.443603515625
88, 0, 0, 4065.95849609375
89, 0, 0, 4611.16015625
90, 0, 0, 5479.1640625
91, 0, 0, 6315.96728515625
92, 0, 0, 6099.73876953125
93, 0, 0, 4558.1611328125
94, 0, 0, 2155.423828125
95, 0, 0, 630.5322875976562
96, 0, 0, 117.145751953125
97, 0, 0, 19.12670516967773
98, 0, 0, 0
99, 0, 0, 0
100, 0, 0, 0
101, 0, 0, 0.0007445280207321048
102, 0, 0, 0
103, 0, 0, 0
104, 0, 0, 0
105, 0, 0, 0
106, 0, 0, 0
107, 0, 0, 0
108, 0, 0, 0
109, 0, 0, 0
110, 0, 0, 0
111, 0, 0, 0
112, 0, 0, 0
113, 0, 0, 0
114, 0, 0, 0
115, 0, 0, 0
116, 0, 0, 0
117, 0, 0, 0.003708531381562352
118, 0, 0, 0
119, 0, 0, 0
120, 0, 0, 0
121, 0, 0, 0
122, 0, 0, 0
123, 0, 0, 0
124, 0, 0, 0
125, 0, 0, 0
126, 0, 0, 0
127, 0, 0, 0
128, 0, 0, 0
129, 0, 0, 0
130, 0, 0, 0
131, 0, 0, 0
132, 0, 0, 0
133, 0, 0, 0
134, 0, 0, 0
135, 0, 0, 0
136, 0, 0, 0
137, 0, 0, 0
138, 0, 0, 0
139, 0, 0, 0
140, 0, 0, 0
141, 0, 0, 0
142, 0, 0, 0
143, 0, 0, 0
144, 0, 0, 0
145, 0, 0, 0
146, 0, 0, 0
147, 0, 0, 0
148, 0, 0, 0
149, 0, 0, 0
150, 0, 0, 0
151, 0, 0, 0
152, 0, 0, 0
153, 0, 0, 0
154, 0, 0, 0
155, 0, 0, 0
156, 0, 0, 0
157, 0, 0, 0
158, 0, 0, 0
159, 0, 0, 0
160, 0, 0, 0
161, 0, 0, 0
162, 0, 0, 0
163, 0, 0, 0
164, 0, 0, 0
165, 0, 0, 0
166, 0, 0, 0
167, 0, 0, 0
168, 0, 0, 0
169, 0, 0, 0
170, 0, 0, 0
171, 0, 0, 0
172, 0, 0, 0
173, 0, 0, 0
174, 0, 0, 0
175, 0, 0, 0
176, 0, 0, 0
177, 0, 0, 0
178, 0, 0, 0
179, 0, 0, 0
