# TOPAS Version: 3.3.p1
# Parameter File: Simple_Pattern.txt
# Results for scorer MLIC_Scorer
# Scored in component: MLIC
# X in 180 bins of 0.222222 cm
# Y in 1 bin  of 10 cm
# Z in 1 bin  of 10 cm
# EnergyDeposit ( MeV ) : Sum   
0, 0, 0, 1089.054931640625
1, 0, 0, 1092.901733398438
2, 0, 0, 1096.805541992188
3, 0, 0, 1099.66650390625
4, 0, 0, 1103.9248046875
5, 0, 0, 1111.287231445312
6, 0, 0, 1117.817016601562
7, 0, 0, 1120.492065429688
8, 0, 0, 1128.364868164062
9, 0, 0, 1125.724609375
10, 0, 0, 1136.693481445312
11, 0, 0, 1145.646728515625
12, 0, 0, 1150.203735351562
13, 0, 0, 1154.88916015625
14, 0, 0, 1159.418579101562
15, 0, 0, 1158.118530273438
16, 0, 0, 1170.493530273438
17, 0, 0, 1172.164428710938
18, 0, 0, 1183.222290039062
19, 0, 0, 1182.21484375
20, 0, 0, 1196.074462890625
21, 0, 0, 1205.206176757812
22, 0, 0, 1216.655029296875
23, 0, 0, 1214.063354492188
24, 0, 0, 1229.822998046875
25, 0, 0, 1229.156982421875
26, 0, 0, 1239.551391601562
27, 0, 0, 1242.2236328125
28, 0, 0, 1260.095703125
29, 0, 0, 1259.603515625
30, 0, 0, 1263.58837890625
31, 0, 0, 1277.214111328125
32, 0, 0, 1287.25634765625
33, 0, 0, 1296.678833007812
34, 0, 0, 1306.2490234375
35, 0, 0, 1306.942993164062
36, 0, 0, 1315.244506835938
37, 0, 0, 1323.114135742188
38, 0, 0, 1342.168090820312
39, 0, 0, 1350.173950195312
40, 0, 0, 1354.90087890625
41, 0, 0, 1370.10302734375
42, 0, 0, 1375.438842773438
43, 0, 0, 1391.023071289062
44, 0, 0, 1392.83056640625
45, 0, 0, 1407.91162109375
46, 0, 0, 1422.844116210938
47, 0, 0, 1446.822387695312
48, 0, 0, 1460.0185546875
49, 0, 0, 1472.30810546875
50, 0, 0, 1482.89501953125
51, 0, 0, 1505.563598632812
52, 0, 0, 1514.693725585938
53, 0, 0, 1526.947509765625
54, 0, 0, 1549.795532226562
55, 0, 0, 1566.194580078125
56, 0, 0, 1585.844360351562
57, 0, 0, 1593.99072265625
58, 0, 0, 1622.430541992188
59, 0, 0, 1634.100830078125
60, 0, 0, 1656.299194335938
61, 0, 0, 1681.62109375
62, 0, 0, 1712.27685546875
63, 0, 0, 1731.459228515625
64, 0, 0, 1747.48974609375
65, 0, 0, 1789.1982421875
66, 0, 0, 1811.959106445312
67, 0, 0, 1838.85546875
68, 0, 0, 1873.951293945312
69, 0, 0, 1911.917358398438
70, 0, 0, 1937.404663085938
71, 0, 0, 1981.890625
72, 0, 0, 2015.908569335938
73, 0, 0, 2062.2919921875
74, 0, 0, 2108.927490234375
75, 0, 0, 2167.77490234375
76, 0, 0, 2217.900634765625
77, 0, 0, 2283.10107421875
78, 0, 0, 2347.712646484375
79, 0, 0, 2431.5947265625
80, 0, 0, 2512.987548828125
81, 0, 0, 2605.069580078125
82, 0, 0, 2715.56298828125
83, 0, 0, 2840.8701171875
84, 0, 0, 2992.60107421875
85, 0, 0, 3176.96435546875
86, 0, 0, 3393.587158203125
87, 0, 0, 3687.75732421875
88, 0, 0, 4115.01513671875
89, 0, 0, 4709.0986328125
90, 0, 0, 5512.80078125
91, 0, 0, 6183.67236328125
92, 0, 0, 5930.0966796875
93, 0, 0, 4338.58984375
94, 0, 0, 2238.286376953125
95, 0, 0, 754.4467163085938
96, 0, 0, 127.3889999389648
97, 0, 0, 19.74707794189453
98, 0, 0, 0
99, 0, 0, 0
100, 0, 0, 0
101, 0, 0, 0
102, 0, 0, 0
103, 0, 0, 0.00508130481466651
104, 0, 0, 0
105, 0, 0, 0
106, 0, 0, 0
107, 0, 0, 0
108, 0, 0, 0
109, 0, 0, 0
110, 0, 0, 0
111, 0, 0, 0
112, 0, 0, 0
113, 0, 0, 0
114, 0, 0, 0
115, 0, 0, 0
116, 0, 0, 0
117, 0, 0, 0
118, 0, 0, 0
119, 0, 0, 0
120, 0, 0, 0
121, 0, 0, 0
122, 0, 0, 0
123, 0, 0, 0
124, 0, 0, 0
125, 0, 0, 0
126, 0, 0, 0
127, 0, 0, 0
128, 0, 0, 0
129, 0, 0, 0
130, 0, 0, 0
131, 0, 0, 0
132, 0, 0, 0
133, 0, 0, 0
134, 0, 0, 0
135, 0, 0, 0
136, 0, 0, 0
137, 0, 0, 0
138, 0, 0, 0
139, 0, 0, 0
140, 0, 0, 0
141, 0, 0, 0
142, 0, 0, 0
143, 0, 0, 0
144, 0, 0, 0
145, 0, 0, 0
146, 0, 0, 0
147, 0, 0, 0
148, 0, 0, 0
149, 0, 0, 0
150, 0, 0, 0
151, 0, 0, 0
152, 0, 0, 0
153, 0, 0, 0
154, 0, 0, 0
155, 0, 0, 0
156, 0, 0, 0
157, 0, 0, 0
158, 0, 0, 0
159, 0, 0, 0
160, 0, 0, 0
161, 0, 0, 0
162, 0, 0, 0
163, 0, 0, 0
164, 0, 0, 0
165, 0, 0, 0
166, 0, 0, 0
167, 0, 0, 0
168, 0, 0, 0
169, 0, 0, 0
170, 0, 0, 0
171, 0, 0, 0
172, 0, 0, 0
173, 0, 0, 0
174, 0, 0, 0
175, 0, 0, 0
176, 0, 0, 0
177, 0, 0, 0
178, 0, 0, 0
179, 0, 0, 0
