# TOPAS Version: 3.3.p1
# Parameter File: Simple_Pattern.txt
# Results for scorer MLIC_Scorer
# Scored in component: MLIC
# X in 180 bins of 0.222222 cm
# Y in 1 bin  of 10 cm
# Z in 1 bin  of 10 cm
# EnergyDeposit ( MeV ) : Sum   
0, 0, 0, 55.13918685913086
1, 0, 0, 55.78580474853516
2, 0, 0, 57.4447135925293
3, 0, 0, 56.78273773193359
4, 0, 0, 58.03020477294922
5, 0, 0, 58.67766952514648
6, 0, 0, 57.08670425415039
7, 0, 0, 57.12437438964844
8, 0, 0, 57.35554504394531
9, 0, 0, 57.9517707824707
10, 0, 0, 58.83676910400391
11, 0, 0, 58.77112579345703
12, 0, 0, 57.57932281494141
13, 0, 0, 58.41636657714844
14, 0, 0, 60.56424713134766
15, 0, 0, 60.11647415161133
16, 0, 0, 59.85245895385742
17, 0, 0, 60.31666564941406
18, 0, 0, 61.937255859375
19, 0, 0, 60.66014099121094
20, 0, 0, 60.44088745117188
21, 0, 0, 61.49371719360352
22, 0, 0, 63.16838836669922
23, 0, 0, 62.0992546081543
24, 0, 0, 63.91010665893555
25, 0, 0, 61.79411315917969
26, 0, 0, 64.38192749023438
27, 0, 0, 65.16846466064453
28, 0, 0, 65.91035461425781
29, 0, 0, 65.95420837402344
30, 0, 0, 66.29242706298828
31, 0, 0, 66.50685882568359
32, 0, 0, 66.648681640625
33, 0, 0, 68.7266845703125
34, 0, 0, 66.54194641113281
35, 0, 0, 71.38412475585938
36, 0, 0, 68.83023834228516
37, 0, 0, 70.57576751708984
38, 0, 0, 69.40092468261719
39, 0, 0, 71.15749359130859
40, 0, 0, 72.28380584716797
41, 0, 0, 72.42156982421875
42, 0, 0, 71.85074615478516
43, 0, 0, 72.2698974609375
44, 0, 0, 73.89043426513672
45, 0, 0, 75.45281219482422
46, 0, 0, 74.72643280029297
47, 0, 0, 75.76345062255859
48, 0, 0, 74.96591186523438
49, 0, 0, 76.77852630615234
50, 0, 0, 76.263427734375
51, 0, 0, 77.496826171875
52, 0, 0, 77.27584075927734
53, 0, 0, 79.33790588378906
54, 0, 0, 79.86580657958984
55, 0, 0, 79.84603118896484
56, 0, 0, 81.77198791503906
57, 0, 0, 84.07998657226562
58, 0, 0, 84.53601837158203
59, 0, 0, 86.71935272216797
60, 0, 0, 86.73867034912109
61, 0, 0, 89.09233093261719
62, 0, 0, 87.82672882080078
63, 0, 0, 90.49945831298828
64, 0, 0, 90.84317016601562
65, 0, 0, 92.54006958007812
66, 0, 0, 94.0001220703125
67, 0, 0, 94.24507141113281
68, 0, 0, 97.28890228271484
69, 0, 0, 97.50027465820312
70, 0, 0, 100.0835571289062
71, 0, 0, 103.8258438110352
72, 0, 0, 103.4663848876953
73, 0, 0, 106.0401153564453
74, 0, 0, 110.3807144165039
75, 0, 0, 112.1898498535156
76, 0, 0, 115.3003463745117
77, 0, 0, 118.9363174438477
78, 0, 0, 121.218147277832
79, 0, 0, 126.7611083984375
80, 0, 0, 130.6363677978516
81, 0, 0, 132.4971771240234
82, 0, 0, 140.9044036865234
83, 0, 0, 147.6578216552734
84, 0, 0, 154.5733489990234
85, 0, 0, 164.5053863525391
86, 0, 0, 172.7532653808594
87, 0, 0, 184.3784027099609
88, 0, 0, 204.4084625244141
89, 0, 0, 235.0361328125
90, 0, 0, 283.7130737304688
91, 0, 0, 327.5738830566406
92, 0, 0, 313.5517578125
93, 0, 0, 212.9066925048828
94, 0, 0, 106.170051574707
95, 0, 0, 56.17494964599609
96, 0, 0, 12.12259960174561
97, 0, 0, 0
98, 0, 0, 0
99, 0, 0, 0
100, 0, 0, 0
101, 0, 0, 0
102, 0, 0, 0
103, 0, 0, 0
104, 0, 0, 0
105, 0, 0, 0
106, 0, 0, 0
107, 0, 0, 0
108, 0, 0, 0
109, 0, 0, 0
110, 0, 0, 0
111, 0, 0, 0
112, 0, 0, 0
113, 0, 0, 0
114, 0, 0, 0
115, 0, 0, 0
116, 0, 0, 0
117, 0, 0, 0
118, 0, 0, 0
119, 0, 0, 0
120, 0, 0, 0
121, 0, 0, 0
122, 0, 0, 0
123, 0, 0, 0
124, 0, 0, 0
125, 0, 0, 0
126, 0, 0, 0
127, 0, 0, 0
128, 0, 0, 0
129, 0, 0, 0
130, 0, 0, 0
131, 0, 0, 0
132, 0, 0, 0
133, 0, 0, 0
134, 0, 0, 0
135, 0, 0, 0
136, 0, 0, 0
137, 0, 0, 0
138, 0, 0, 0
139, 0, 0, 0
140, 0, 0, 0
141, 0, 0, 0
142, 0, 0, 0
143, 0, 0, 0
144, 0, 0, 0
145, 0, 0, 0
146, 0, 0, 0
147, 0, 0, 0
148, 0, 0, 0
149, 0, 0, 0
150, 0, 0, 0
151, 0, 0, 0
152, 0, 0, 0
153, 0, 0, 0
154, 0, 0, 0
155, 0, 0, 0
156, 0, 0, 0
157, 0, 0, 0
158, 0, 0, 0
159, 0, 0, 0
160, 0, 0, 0
161, 0, 0, 0
162, 0, 0, 0
163, 0, 0, 0
164, 0, 0, 0
165, 0, 0, 0
166, 0, 0, 0
167, 0, 0, 0
168, 0, 0, 0
169, 0, 0, 0
170, 0, 0, 0
171, 0, 0, 0
172, 0, 0, 0
173, 0, 0, 0
174, 0, 0, 0
175, 0, 0, 0
176, 0, 0, 0
177, 0, 0, 0
178, 0, 0, 0
179, 0, 0, 0
