# TOPAS Version: 3.3.p1
# Parameter File: Simple_Pattern.txt
# Results for scorer MLIC_Scorer
# Scored in component: MLIC
# X in 180 bins of 0.222222 cm
# Y in 1 bin  of 10 cm
# Z in 1 bin  of 10 cm
# EnergyDeposit ( MeV ) : Sum   
0, 0, 0, 1090.532836914062
1, 0, 0, 1091.0712890625
2, 0, 0, 1104.779907226562
3, 0, 0, 1100.90771484375
4, 0, 0, 1100.040893554688
5, 0, 0, 1104.519775390625
6, 0, 0, 1114.998901367188
7, 0, 0, 1118.135864257812
8, 0, 0, 1124.4228515625
9, 0, 0, 1133.521362304688
10, 0, 0, 1137.9892578125
11, 0, 0, 1135.291748046875
12, 0, 0, 1145.397216796875
13, 0, 0, 1150.159912109375
14, 0, 0, 1156.269409179688
15, 0, 0, 1169.496704101562
16, 0, 0, 1166.5439453125
17, 0, 0, 1179.770751953125
18, 0, 0, 1183.864501953125
19, 0, 0, 1182.1875
20, 0, 0, 1187.462280273438
21, 0, 0, 1200.556274414062
22, 0, 0, 1201.900512695312
23, 0, 0, 1211.857543945312
24, 0, 0, 1214.570922851562
25, 0, 0, 1230.230224609375
26, 0, 0, 1231.247192382812
27, 0, 0, 1230.635131835938
28, 0, 0, 1252.536254882812
29, 0, 0, 1257.958618164062
30, 0, 0, 1264.904418945312
31, 0, 0, 1275.062866210938
32, 0, 0, 1289.498291015625
33, 0, 0, 1289.67236328125
34, 0, 0, 1299.67041015625
35, 0, 0, 1309.403686523438
36, 0, 0, 1322.4267578125
37, 0, 0, 1340.458740234375
38, 0, 0, 1344.099975585938
39, 0, 0, 1346.51953125
40, 0, 0, 1359.5986328125
41, 0, 0, 1375.932739257812
42, 0, 0, 1371.369750976562
43, 0, 0, 1387.096557617188
44, 0, 0, 1407.59912109375
45, 0, 0, 1419.1015625
46, 0, 0, 1434.695922851562
47, 0, 0, 1447.942016601562
48, 0, 0, 1453.031982421875
49, 0, 0, 1459.588623046875
50, 0, 0, 1480.642333984375
51, 0, 0, 1493.031982421875
52, 0, 0, 1508.796630859375
53, 0, 0, 1526.326293945312
54, 0, 0, 1542.053955078125
55, 0, 0, 1554.1240234375
56, 0, 0, 1583.707763671875
57, 0, 0, 1598.45263671875
58, 0, 0, 1611.57958984375
59, 0, 0, 1633.674560546875
60, 0, 0, 1647.585083007812
61, 0, 0, 1678.06298828125
62, 0, 0, 1698.277465820312
63, 0, 0, 1722.947631835938
64, 0, 0, 1735.075317382812
65, 0, 0, 1773.425903320312
66, 0, 0, 1789.307739257812
67, 0, 0, 1830.6142578125
68, 0, 0, 1857.211669921875
69, 0, 0, 1893.477661132812
70, 0, 0, 1919.467041015625
71, 0, 0, 1959.843994140625
72, 0, 0, 2008.327026367188
73, 0, 0, 2041.005615234375
74, 0, 0, 2100.76416015625
75, 0, 0, 2138.91064453125
76, 0, 0, 2195.83056640625
77, 0, 0, 2257.867919921875
78, 0, 0, 2322.96533203125
79, 0, 0, 2402.60546875
80, 0, 0, 2478.651123046875
81, 0, 0, 2573.93505859375
82, 0, 0, 2675.55810546875
83, 0, 0, 2795.90478515625
84, 0, 0, 2940.00390625
85, 0, 0, 3107.35888671875
86, 0, 0, 3320.808837890625
87, 0, 0, 3606.00537109375
88, 0, 0, 4000.19140625
89, 0, 0, 4560.82177734375
90, 0, 0, 5398.294921875
91, 0, 0, 6072.70263671875
92, 0, 0, 5959.0107421875
93, 0, 0, 4428.75439453125
94, 0, 0, 2102.04296875
95, 0, 0, 821.7747802734375
96, 0, 0, 175.5169067382812
97, 0, 0, 11.70238590240479
98, 0, 0, 0
99, 0, 0, 0
100, 0, 0, 0
101, 0, 0, 0
102, 0, 0, 0
103, 0, 0, 0
104, 0, 0, 0
105, 0, 0, 0
106, 0, 0, 0
107, 0, 0, 0
108, 0, 0, 0
109, 0, 0, 0
110, 0, 0, 0
111, 0, 0, 0
112, 0, 0, 0
113, 0, 0, 0
114, 0, 0, 0
115, 0, 0, 0
116, 0, 0, 0
117, 0, 0, 0
118, 0, 0, 0
119, 0, 0, 0
120, 0, 0, 0
121, 0, 0, 0
122, 0, 0, 0
123, 0, 0, 0
124, 0, 0, 0
125, 0, 0, 0
126, 0, 0, 0
127, 0, 0, 0
128, 0, 0, 0
129, 0, 0, 0
130, 0, 0, 0
131, 0, 0, 0
132, 0, 0, 0
133, 0, 0, 0
134, 0, 0, 0
135, 0, 0, 0
136, 0, 0, 0
137, 0, 0, 0
138, 0, 0, 0
139, 0, 0, 0
140, 0, 0, 0
141, 0, 0, 0
142, 0, 0, 0
143, 0, 0, 0
144, 0, 0, 0
145, 0, 0, 0
146, 0, 0, 0
147, 0, 0, 0
148, 0, 0, 0
149, 0, 0, 0
150, 0, 0, 0
151, 0, 0, 0
152, 0, 0, 0
153, 0, 0, 0
154, 0, 0, 0
155, 0, 0, 0
156, 0, 0, 0
157, 0, 0, 0
158, 0, 0, 0
159, 0, 0, 0
160, 0, 0, 0
161, 0, 0, 0
162, 0, 0, 0
163, 0, 0, 0
164, 0, 0, 0
165, 0, 0, 0
166, 0, 0, 0
167, 0, 0, 0
168, 0, 0, 0
169, 0, 0, 0
170, 0, 0, 0
171, 0, 0, 0
172, 0, 0, 0
173, 0, 0, 0
174, 0, 0, 0
175, 0, 0, 0
176, 0, 0, 0
177, 0, 0, 0
178, 0, 0, 0
179, 0, 0, 0
