# TOPAS Version: 3.3.p1
# Parameter File: Simple_Pattern.txt
# Results for scorer MLIC_Scorer
# Scored in component: MLIC
# X in 165 bins of 0.2 cm
# Y in 1 bin  of 10 cm
# Z in 1 bin  of 10 cm
# EnergyDeposit ( MeV ) : Sum   
0, 0, 0, 996.2001342773438
1, 0, 0, 989.8176879882812
2, 0, 0, 994.2402954101562
3, 0, 0, 996.7222290039062
4, 0, 0, 1006.982421875
5, 0, 0, 1010.385803222656
6, 0, 0, 1010.260803222656
7, 0, 0, 1017.74462890625
8, 0, 0, 1011.6142578125
9, 0, 0, 1024.187744140625
10, 0, 0, 1027.771362304688
11, 0, 0, 1031.99072265625
12, 0, 0, 1036.748413085938
13, 0, 0, 1038.649169921875
14, 0, 0, 1040.2607421875
15, 0, 0, 1045.123657226562
16, 0, 0, 1063.647338867188
17, 0, 0, 1059.217041015625
18, 0, 0, 1070.191284179688
19, 0, 0, 1067.279052734375
20, 0, 0, 1076.313598632812
21, 0, 0, 1080.136474609375
22, 0, 0, 1083.311767578125
23, 0, 0, 1089.0048828125
24, 0, 0, 1102.649047851562
25, 0, 0, 1098.3662109375
26, 0, 0, 1108.576049804688
27, 0, 0, 1112.958618164062
28, 0, 0, 1112.758911132812
29, 0, 0, 1117.40185546875
30, 0, 0, 1117.819091796875
31, 0, 0, 1140.583984375
32, 0, 0, 1146.302490234375
33, 0, 0, 1163.022216796875
34, 0, 0, 1157.004028320312
35, 0, 0, 1154.380493164062
36, 0, 0, 1171.937866210938
37, 0, 0, 1180.481567382812
38, 0, 0, 1188.508544921875
39, 0, 0, 1200.263061523438
40, 0, 0, 1209.394897460938
41, 0, 0, 1203.724243164062
42, 0, 0, 1218.117065429688
43, 0, 0, 1232.18603515625
44, 0, 0, 1239.166015625
45, 0, 0, 1244.666259765625
46, 0, 0, 1258.594848632812
47, 0, 0, 1264.108154296875
48, 0, 0, 1275.002197265625
49, 0, 0, 1282.0234375
50, 0, 0, 1293.842529296875
51, 0, 0, 1311.021484375
52, 0, 0, 1316.2177734375
53, 0, 0, 1322.335571289062
54, 0, 0, 1334.097900390625
55, 0, 0, 1356.704223632812
56, 0, 0, 1366.671508789062
57, 0, 0, 1378.211181640625
58, 0, 0, 1384.363159179688
59, 0, 0, 1407.617065429688
60, 0, 0, 1423.236572265625
61, 0, 0, 1438.78173828125
62, 0, 0, 1448.437622070312
63, 0, 0, 1466.69873046875
64, 0, 0, 1478.43212890625
65, 0, 0, 1506.014282226562
66, 0, 0, 1507.30712890625
67, 0, 0, 1539.321411132812
68, 0, 0, 1549.304077148438
69, 0, 0, 1574.893310546875
70, 0, 0, 1602.491943359375
71, 0, 0, 1621.073486328125
72, 0, 0, 1652.826293945312
73, 0, 0, 1676.126708984375
74, 0, 0, 1695.466552734375
75, 0, 0, 1726.116088867188
76, 0, 0, 1757.400146484375
77, 0, 0, 1786.851806640625
78, 0, 0, 1816.255615234375
79, 0, 0, 1858.247436523438
80, 0, 0, 1893.517944335938
81, 0, 0, 1937.732421875
82, 0, 0, 1986.916259765625
83, 0, 0, 2028.76123046875
84, 0, 0, 2084.778076171875
85, 0, 0, 2141.220703125
86, 0, 0, 2201.956787109375
87, 0, 0, 2271.267333984375
88, 0, 0, 2348.16064453125
89, 0, 0, 2437.898193359375
90, 0, 0, 2543.925048828125
91, 0, 0, 2661.74853515625
92, 0, 0, 2804.846435546875
93, 0, 0, 2975.377197265625
94, 0, 0, 3187.94677734375
95, 0, 0, 3462.5859375
96, 0, 0, 3881.73486328125
97, 0, 0, 4416.31787109375
98, 0, 0, 4967.6923828125
99, 0, 0, 5400.22412109375
100, 0, 0, 5414.83349609375
101, 0, 0, 4162.53466796875
102, 0, 0, 2306.71923828125
103, 0, 0, 1002.937194824219
104, 0, 0, 459.0242614746094
105, 0, 0, 172.4373168945312
106, 0, 0, 77.94141387939453
107, 0, 0, 56.37916564941406
108, 0, 0, 57.66051483154297
109, 0, 0, 52.64729690551758
110, 0, 0, 21.59164428710938
111, 0, 0, 13.8889217376709
112, 0, 0, 16.72786712646484
113, 0, 0, 5.640842914581299
114, 0, 0, 0.04025530442595482
115, 0, 0, 0.03558241948485374
116, 0, 0, 0
117, 0, 0, 0
118, 0, 0, 0
119, 0, 0, 0.01003799866884947
120, 0, 0, 0
121, 0, 0, 0.003199350787326694
122, 0, 0, 0
123, 0, 0, 0
124, 0, 0, 0
125, 0, 0, 0
126, 0, 0, 0
127, 0, 0, 0
128, 0, 0, 0
129, 0, 0, 0
130, 0, 0, 0
131, 0, 0, 0
132, 0, 0, 0
133, 0, 0, 0
134, 0, 0, 0
135, 0, 0, 0
136, 0, 0, 0.03117263689637184
137, 0, 0, 0.0002805172407533973
138, 0, 0, 0
139, 0, 0, 0
140, 0, 0, 0
141, 0, 0, 0
142, 0, 0, 0.01237616129219532
143, 0, 0, 0
144, 0, 0, 0
145, 0, 0, 0
146, 0, 0, 0
147, 0, 0, 0
148, 0, 0, 0
149, 0, 0, 0
150, 0, 0, 0
151, 0, 0, 0
152, 0, 0, 0
153, 0, 0, 0
154, 0, 0, 0
155, 0, 0, 0
156, 0, 0, 0
157, 0, 0, 0
158, 0, 0, 0
159, 0, 0, 0
160, 0, 0, 0
161, 0, 0, 0
162, 0, 0, 0
163, 0, 0, 0
164, 0, 0, 0
