# TOPAS Version: 3.3.p1
# Parameter File: Simple_Pattern.txt
# Results for scorer MLIC_Scorer
# Scored in component: MLIC
# X in 180 bins of 0.222222 cm
# Y in 1 bin  of 10 cm
# Z in 1 bin  of 10 cm
# EnergyDeposit ( MeV ) : Sum   
0, 0, 0, 86.27694702148438
1, 0, 0, 85.62375640869141
2, 0, 0, 84.12601470947266
3, 0, 0, 87.03448486328125
4, 0, 0, 89.33440399169922
5, 0, 0, 86.66356658935547
6, 0, 0, 87.58021545410156
7, 0, 0, 87.76750183105469
8, 0, 0, 87.93370056152344
9, 0, 0, 90.85115051269531
10, 0, 0, 90.88642883300781
11, 0, 0, 92.40119934082031
12, 0, 0, 88.20409393310547
13, 0, 0, 91.41276550292969
14, 0, 0, 93.62822723388672
15, 0, 0, 89.86637878417969
16, 0, 0, 94.31471252441406
17, 0, 0, 90.50349426269531
18, 0, 0, 91.50658416748047
19, 0, 0, 96.74845886230469
20, 0, 0, 94.85934448242188
21, 0, 0, 95.67221069335938
22, 0, 0, 96.61666107177734
23, 0, 0, 96.24919128417969
24, 0, 0, 97.84423828125
25, 0, 0, 97.32575225830078
26, 0, 0, 100.2401580810547
27, 0, 0, 100.194206237793
28, 0, 0, 100.2893295288086
29, 0, 0, 99.4398193359375
30, 0, 0, 101.1066360473633
31, 0, 0, 100.9345932006836
32, 0, 0, 100.4748611450195
33, 0, 0, 103.3846206665039
34, 0, 0, 103.3489379882812
35, 0, 0, 104.7167663574219
36, 0, 0, 103.0641632080078
37, 0, 0, 104.2032470703125
38, 0, 0, 107.9179000854492
39, 0, 0, 106.229118347168
40, 0, 0, 106.0889053344727
41, 0, 0, 109.9702682495117
42, 0, 0, 110.2706298828125
43, 0, 0, 108.1186904907227
44, 0, 0, 108.9155044555664
45, 0, 0, 110.9852752685547
46, 0, 0, 112.2225646972656
47, 0, 0, 113.5668258666992
48, 0, 0, 114.0884246826172
49, 0, 0, 115.8045806884766
50, 0, 0, 117.5526580810547
51, 0, 0, 116.3806991577148
52, 0, 0, 120.3137130737305
53, 0, 0, 123.0768890380859
54, 0, 0, 123.7597274780273
55, 0, 0, 122.8458786010742
56, 0, 0, 127.1835327148438
57, 0, 0, 123.97119140625
58, 0, 0, 129.2942810058594
59, 0, 0, 128.4941558837891
60, 0, 0, 131.1029205322266
61, 0, 0, 134.3807373046875
62, 0, 0, 135.3251342773438
63, 0, 0, 133.8219146728516
64, 0, 0, 140.1919860839844
65, 0, 0, 141.3961029052734
66, 0, 0, 144.2772827148438
67, 0, 0, 147.2011871337891
68, 0, 0, 147.761474609375
69, 0, 0, 152.7721557617188
70, 0, 0, 154.5097045898438
71, 0, 0, 156.0939788818359
72, 0, 0, 159.1311645507812
73, 0, 0, 164.8344573974609
74, 0, 0, 164.939453125
75, 0, 0, 172.5890808105469
76, 0, 0, 174.1093139648438
77, 0, 0, 179.0724029541016
78, 0, 0, 185.3779754638672
79, 0, 0, 191.6792602539062
80, 0, 0, 199.4372406005859
81, 0, 0, 204.623291015625
82, 0, 0, 214.5743103027344
83, 0, 0, 224.343017578125
84, 0, 0, 235.6365356445312
85, 0, 0, 250.2274322509766
86, 0, 0, 268.8916320800781
87, 0, 0, 288.9198303222656
88, 0, 0, 322.8667602539062
89, 0, 0, 369.63330078125
90, 0, 0, 443.1503295898438
91, 0, 0, 519.8167724609375
92, 0, 0, 504.0231018066406
93, 0, 0, 322.3202514648438
94, 0, 0, 131.6985015869141
95, 0, 0, 60.57212066650391
96, 0, 0, 0
97, 0, 0, 0
98, 0, 0, 0
99, 0, 0, 0
100, 0, 0, 0
101, 0, 0, 0
102, 0, 0, 0
103, 0, 0, 0
104, 0, 0, 0
105, 0, 0, 0
106, 0, 0, 0
107, 0, 0, 0
108, 0, 0, 0
109, 0, 0, 0
110, 0, 0, 0
111, 0, 0, 0
112, 0, 0, 0
113, 0, 0, 0
114, 0, 0, 0
115, 0, 0, 0
116, 0, 0, 0
117, 0, 0, 0
118, 0, 0, 0
119, 0, 0, 0
120, 0, 0, 0
121, 0, 0, 0
122, 0, 0, 0
123, 0, 0, 0
124, 0, 0, 0
125, 0, 0, 0
126, 0, 0, 0
127, 0, 0, 0
128, 0, 0, 0
129, 0, 0, 0
130, 0, 0, 0
131, 0, 0, 0
132, 0, 0, 0
133, 0, 0, 0
134, 0, 0, 0
135, 0, 0, 0
136, 0, 0, 0
137, 0, 0, 0
138, 0, 0, 0
139, 0, 0, 0
140, 0, 0, 0
141, 0, 0, 0
142, 0, 0, 0
143, 0, 0, 0
144, 0, 0, 0
145, 0, 0, 0
146, 0, 0, 0
147, 0, 0, 0
148, 0, 0, 0
149, 0, 0, 0
150, 0, 0, 0
151, 0, 0, 0
152, 0, 0, 0
153, 0, 0, 0
154, 0, 0, 0
155, 0, 0, 0
156, 0, 0, 0
157, 0, 0, 0
158, 0, 0, 0
159, 0, 0, 0
160, 0, 0, 0
161, 0, 0, 0
162, 0, 0, 0
163, 0, 0, 0
164, 0, 0, 0
165, 0, 0, 0
166, 0, 0, 0
167, 0, 0, 0
168, 0, 0, 0
169, 0, 0, 0
170, 0, 0, 0
171, 0, 0, 0
172, 0, 0, 0
173, 0, 0, 0
174, 0, 0, 0
175, 0, 0, 0
176, 0, 0, 0
177, 0, 0, 0
178, 0, 0, 0
179, 0, 0, 0
