# TOPAS Version: 3.3.p1
# Parameter File: Simple_Pattern.txt
# Results for scorer MLIC_Scorer
# Scored in component: MLIC
# X in 180 bins of 0.222222 cm
# Y in 1 bin  of 10 cm
# Z in 1 bin  of 10 cm
# EnergyDeposit ( MeV ) : Sum   
0, 0, 0, 1084.126831054688
1, 0, 0, 1088.705810546875
2, 0, 0, 1101.0107421875
3, 0, 0, 1097.756713867188
4, 0, 0, 1108.292358398438
5, 0, 0, 1103.7412109375
6, 0, 0, 1108.13427734375
7, 0, 0, 1109.929565429688
8, 0, 0, 1123.5068359375
9, 0, 0, 1127.302734375
10, 0, 0, 1137.234497070312
11, 0, 0, 1139.167358398438
12, 0, 0, 1143.755737304688
13, 0, 0, 1154.73681640625
14, 0, 0, 1165.9365234375
15, 0, 0, 1174.103881835938
16, 0, 0, 1172.600341796875
17, 0, 0, 1167.689331054688
18, 0, 0, 1179.871459960938
19, 0, 0, 1183.474853515625
20, 0, 0, 1196.308837890625
21, 0, 0, 1194.274658203125
22, 0, 0, 1203.917358398438
23, 0, 0, 1209.113525390625
24, 0, 0, 1217.811157226562
25, 0, 0, 1227.326049804688
26, 0, 0, 1234.177001953125
27, 0, 0, 1241.809326171875
28, 0, 0, 1259.754150390625
29, 0, 0, 1252.700561523438
30, 0, 0, 1271.359619140625
31, 0, 0, 1277.180541992188
32, 0, 0, 1287.49951171875
33, 0, 0, 1291.785766601562
34, 0, 0, 1294.900634765625
35, 0, 0, 1309.50146484375
36, 0, 0, 1318.043823242188
37, 0, 0, 1324.277709960938
38, 0, 0, 1339.748046875
39, 0, 0, 1351.2763671875
40, 0, 0, 1363.972290039062
41, 0, 0, 1373.713500976562
42, 0, 0, 1380.65625
43, 0, 0, 1390.66748046875
44, 0, 0, 1403.626098632812
45, 0, 0, 1416.602416992188
46, 0, 0, 1425.528076171875
47, 0, 0, 1446.839599609375
48, 0, 0, 1449.853637695312
49, 0, 0, 1461.241333007812
50, 0, 0, 1474.519165039062
51, 0, 0, 1497.652954101562
52, 0, 0, 1516.8154296875
53, 0, 0, 1533.822387695312
54, 0, 0, 1544.409423828125
55, 0, 0, 1553.8720703125
56, 0, 0, 1573.596313476562
57, 0, 0, 1604.884887695312
58, 0, 0, 1622.889038085938
59, 0, 0, 1634.718139648438
60, 0, 0, 1660.608520507812
61, 0, 0, 1677.85888671875
62, 0, 0, 1695.8369140625
63, 0, 0, 1725.7041015625
64, 0, 0, 1751.504272460938
65, 0, 0, 1775.750122070312
66, 0, 0, 1808.94091796875
67, 0, 0, 1827.989379882812
68, 0, 0, 1867.159545898438
69, 0, 0, 1894.892456054688
70, 0, 0, 1932.897338867188
71, 0, 0, 1964.957885742188
72, 0, 0, 2019.023315429688
73, 0, 0, 2047.537231445312
74, 0, 0, 2105.39013671875
75, 0, 0, 2157.985595703125
76, 0, 0, 2206.324951171875
77, 0, 0, 2271.10400390625
78, 0, 0, 2332.16650390625
79, 0, 0, 2407.787353515625
80, 0, 0, 2489.82470703125
81, 0, 0, 2575.323486328125
82, 0, 0, 2691.87744140625
83, 0, 0, 2814.093017578125
84, 0, 0, 2953.834716796875
85, 0, 0, 3126.372314453125
86, 0, 0, 3341.61181640625
87, 0, 0, 3639.565673828125
88, 0, 0, 4027.33740234375
89, 0, 0, 4588.53564453125
90, 0, 0, 5401.67822265625
91, 0, 0, 6174.37890625
92, 0, 0, 6010.39111328125
93, 0, 0, 4265.09423828125
94, 0, 0, 2033.155883789062
95, 0, 0, 701.6173095703125
96, 0, 0, 178.6743927001953
97, 0, 0, 27.27959060668945
98, 0, 0, 0.01652741432189941
99, 0, 0, 0
100, 0, 0, 0
101, 0, 0, 0
102, 0, 0, 0.02725386060774326
103, 0, 0, 0
104, 0, 0, 0
105, 0, 0, 0.0258528720587492
106, 0, 0, 0.000103962913271971
107, 0, 0, 0.002675544237717986
108, 0, 0, 0
109, 0, 0, 0.003721327520906925
110, 0, 0, 0
111, 0, 0, 0
112, 0, 0, 0
113, 0, 0, 0.003349188482388854
114, 0, 0, 0.0008097186801023781
115, 0, 0, 0
116, 0, 0, 0
117, 0, 0, 0
118, 0, 0, 0
119, 0, 0, 0
120, 0, 0, 0
121, 0, 0, 0
122, 0, 0, 0
123, 0, 0, 0
124, 0, 0, 0.0261089876294136
125, 0, 0, 0
126, 0, 0, 0
127, 0, 0, 0.006648284383118153
128, 0, 0, 0
129, 0, 0, 0
130, 0, 0, 0
131, 0, 0, 0
132, 0, 0, 0
133, 0, 0, 0
134, 0, 0, 0
135, 0, 0, 0
136, 0, 0, 0
137, 0, 0, 0
138, 0, 0, 0
139, 0, 0, 0
140, 0, 0, 0
141, 0, 0, 0
142, 0, 0, 0
143, 0, 0, 0
144, 0, 0, 0
145, 0, 0, 0
146, 0, 0, 0
147, 0, 0, 0.01174370665103197
148, 0, 0, 0
149, 0, 0, 0
150, 0, 0, 0
151, 0, 0, 0
152, 0, 0, 0
153, 0, 0, 0
154, 0, 0, 0
155, 0, 0, 0
156, 0, 0, 0
157, 0, 0, 0
158, 0, 0, 0
159, 0, 0, 0
160, 0, 0, 0
161, 0, 0, 0
162, 0, 0, 0
163, 0, 0, 0
164, 0, 0, 0
165, 0, 0, 0
166, 0, 0, 0
167, 0, 0, 0
168, 0, 0, 0
169, 0, 0, 0
170, 0, 0, 0
171, 0, 0, 0
172, 0, 0, 0
173, 0, 0, 0
174, 0, 0, 0
175, 0, 0, 0
176, 0, 0, 0
177, 0, 0, 0
178, 0, 0, 0
179, 0, 0, 0
