# TOPAS Version: 3.3.p1
# Parameter File: Simple_Pattern.txt
# Results for scorer MLIC_Scorer
# Scored in component: MLIC
# X in 180 bins of 0.222222 cm
# Y in 1 bin  of 10 cm
# Z in 1 bin  of 10 cm
# EnergyDeposit ( MeV ) : Sum   
0, 0, 0, 1153.814453125
1, 0, 0, 1159.07421875
2, 0, 0, 1169.677734375
3, 0, 0, 1169.114501953125
4, 0, 0, 1179.835205078125
5, 0, 0, 1186.91748046875
6, 0, 0, 1185.560424804688
7, 0, 0, 1202.73388671875
8, 0, 0, 1199.015991210938
9, 0, 0, 1199.574340820312
10, 0, 0, 1210.420288085938
11, 0, 0, 1217.713623046875
12, 0, 0, 1225.289306640625
13, 0, 0, 1229.196655273438
14, 0, 0, 1247.812622070312
15, 0, 0, 1249.245849609375
16, 0, 0, 1258.978515625
17, 0, 0, 1269.921997070312
18, 0, 0, 1278.575073242188
19, 0, 0, 1282.229125976562
20, 0, 0, 1295.793579101562
21, 0, 0, 1299.082153320312
22, 0, 0, 1314.979858398438
23, 0, 0, 1330.532958984375
24, 0, 0, 1328.74365234375
25, 0, 0, 1334.707153320312
26, 0, 0, 1350.9453125
27, 0, 0, 1364.456787109375
28, 0, 0, 1362.981079101562
29, 0, 0, 1374.00830078125
30, 0, 0, 1397.700561523438
31, 0, 0, 1404.955322265625
32, 0, 0, 1413.341796875
33, 0, 0, 1423.623291015625
34, 0, 0, 1438.659790039062
35, 0, 0, 1455.958618164062
36, 0, 0, 1462.185668945312
37, 0, 0, 1489.091674804688
38, 0, 0, 1483.538940429688
39, 0, 0, 1518.037109375
40, 0, 0, 1529.578125
41, 0, 0, 1539.954956054688
42, 0, 0, 1562.261840820312
43, 0, 0, 1584.684326171875
44, 0, 0, 1601.767700195312
45, 0, 0, 1620.629638671875
46, 0, 0, 1640.251098632812
47, 0, 0, 1654.2275390625
48, 0, 0, 1679.677001953125
49, 0, 0, 1700.659301757812
50, 0, 0, 1734.533935546875
51, 0, 0, 1748.149780273438
52, 0, 0, 1782.002563476562
53, 0, 0, 1807.941650390625
54, 0, 0, 1842.577880859375
55, 0, 0, 1870.96142578125
56, 0, 0, 1898.00048828125
57, 0, 0, 1931.339233398438
58, 0, 0, 1973.815307617188
59, 0, 0, 2010.241455078125
60, 0, 0, 2062.5732421875
61, 0, 0, 2103.794189453125
62, 0, 0, 2161.90185546875
63, 0, 0, 2214.297119140625
64, 0, 0, 2272.623046875
65, 0, 0, 2342.45556640625
66, 0, 0, 2418.02490234375
67, 0, 0, 2501.6943359375
68, 0, 0, 2598.0625
69, 0, 0, 2707.133544921875
70, 0, 0, 2832.483642578125
71, 0, 0, 2969.10791015625
72, 0, 0, 3154.618408203125
73, 0, 0, 3366.517333984375
74, 0, 0, 3642.888916015625
75, 0, 0, 4023.173828125
76, 0, 0, 4605.88671875
77, 0, 0, 5474.1396484375
78, 0, 0, 6159.208984375
79, 0, 0, 6280.1748046875
80, 0, 0, 4498.38232421875
81, 0, 0, 2182.334228515625
82, 0, 0, 934.0390625
83, 0, 0, 166.4818420410156
84, 0, 0, 20.41497039794922
85, 0, 0, 0
86, 0, 0, 0
87, 0, 0, 0.006575181148946285
88, 0, 0, 0
89, 0, 0, 0
90, 0, 0, 0
91, 0, 0, 0
92, 0, 0, 0
93, 0, 0, 0
94, 0, 0, 0
95, 0, 0, 0
96, 0, 0, 0
97, 0, 0, 0
98, 0, 0, 0
99, 0, 0, 0
100, 0, 0, 0
101, 0, 0, 0
102, 0, 0, 0
103, 0, 0, 0
104, 0, 0, 0
105, 0, 0, 0
106, 0, 0, 0
107, 0, 0, 0
108, 0, 0, 0
109, 0, 0, 0
110, 0, 0, 0
111, 0, 0, 0
112, 0, 0, 0
113, 0, 0, 0
114, 0, 0, 0
115, 0, 0, 0
116, 0, 0, 0
117, 0, 0, 0
118, 0, 0, 0
119, 0, 0, 0
120, 0, 0, 0
121, 0, 0, 0
122, 0, 0, 0
123, 0, 0, 0
124, 0, 0, 0
125, 0, 0, 0
126, 0, 0, 0
127, 0, 0, 0
128, 0, 0, 0
129, 0, 0, 0
130, 0, 0, 0
131, 0, 0, 0
132, 0, 0, 0
133, 0, 0, 0
134, 0, 0, 0
135, 0, 0, 0
136, 0, 0, 0
137, 0, 0, 0
138, 0, 0, 0
139, 0, 0, 0
140, 0, 0, 0
141, 0, 0, 0
142, 0, 0, 0
143, 0, 0, 0
144, 0, 0, 0
145, 0, 0, 0
146, 0, 0, 0
147, 0, 0, 0
148, 0, 0, 0
149, 0, 0, 0
150, 0, 0, 0
151, 0, 0, 0
152, 0, 0, 0
153, 0, 0, 0
154, 0, 0, 0
155, 0, 0, 0
156, 0, 0, 0
157, 0, 0, 0
158, 0, 0, 0
159, 0, 0, 0.03448919206857681
160, 0, 0, 0
161, 0, 0, 0
162, 0, 0, 0
163, 0, 0, 0
164, 0, 0, 0
165, 0, 0, 0
166, 0, 0, 0
167, 0, 0, 0
168, 0, 0, 0
169, 0, 0, 0
170, 0, 0, 0
171, 0, 0, 0
172, 0, 0, 0
173, 0, 0, 0
174, 0, 0, 0
175, 0, 0, 0
176, 0, 0, 0
177, 0, 0, 0
178, 0, 0, 0
179, 0, 0, 0
