# TOPAS Version: 3.3.p1
# Parameter File: Simple_Pattern.txt
# Results for scorer MLIC_Scorer
# Scored in component: MLIC
# X in 180 bins of 0.222222 cm
# Y in 1 bin  of 10 cm
# Z in 1 bin  of 10 cm
# EnergyDeposit ( MeV ) : Sum   
0, 0, 0, 52.96419906616211
1, 0, 0, 53.71549606323242
2, 0, 0, 53.48531341552734
3, 0, 0, 53.58980560302734
4, 0, 0, 52.75737762451172
5, 0, 0, 53.78276062011719
6, 0, 0, 54.57277679443359
7, 0, 0, 55.48511505126953
8, 0, 0, 54.51005172729492
9, 0, 0, 56.87014389038086
10, 0, 0, 54.52359771728516
11, 0, 0, 56.0806770324707
12, 0, 0, 56.32521820068359
13, 0, 0, 55.32143020629883
14, 0, 0, 57.02950286865234
15, 0, 0, 55.9779167175293
16, 0, 0, 56.61887741088867
17, 0, 0, 57.87524795532227
18, 0, 0, 58.37569427490234
19, 0, 0, 57.70870590209961
20, 0, 0, 57.22968292236328
21, 0, 0, 60.03121566772461
22, 0, 0, 59.1816520690918
23, 0, 0, 60.8670768737793
24, 0, 0, 58.83472442626953
25, 0, 0, 60.48750686645508
26, 0, 0, 60.59097290039062
27, 0, 0, 61.14445877075195
28, 0, 0, 61.17836761474609
29, 0, 0, 62.7103385925293
30, 0, 0, 61.12722015380859
31, 0, 0, 62.87438201904297
32, 0, 0, 63.51424789428711
33, 0, 0, 61.84393310546875
34, 0, 0, 63.69367218017578
35, 0, 0, 65.25828552246094
36, 0, 0, 64.67314910888672
37, 0, 0, 65.25453948974609
38, 0, 0, 65.65463256835938
39, 0, 0, 67.69377136230469
40, 0, 0, 66.16098022460938
41, 0, 0, 67.15850830078125
42, 0, 0, 67.12373352050781
43, 0, 0, 69.8759765625
44, 0, 0, 68.53694915771484
45, 0, 0, 68.99600982666016
46, 0, 0, 69.43153381347656
47, 0, 0, 70.62478637695312
48, 0, 0, 73.20555877685547
49, 0, 0, 72.85294342041016
50, 0, 0, 71.50143432617188
51, 0, 0, 74.33438110351562
52, 0, 0, 73.48124694824219
53, 0, 0, 75.59508514404297
54, 0, 0, 74.70209503173828
55, 0, 0, 77.83779907226562
56, 0, 0, 77.28848266601562
57, 0, 0, 78.18415069580078
58, 0, 0, 77.96650695800781
59, 0, 0, 80.75471496582031
60, 0, 0, 82.80477905273438
61, 0, 0, 81.81744384765625
62, 0, 0, 82.3814697265625
63, 0, 0, 82.22511291503906
64, 0, 0, 87.69720458984375
65, 0, 0, 87.73130035400391
66, 0, 0, 88.15941619873047
67, 0, 0, 89.490478515625
68, 0, 0, 91.42477416992188
69, 0, 0, 92.58992004394531
70, 0, 0, 93.31246948242188
71, 0, 0, 97.48653411865234
72, 0, 0, 99.37718963623047
73, 0, 0, 101.4128494262695
74, 0, 0, 104.3572540283203
75, 0, 0, 105.400032043457
76, 0, 0, 109.5236282348633
77, 0, 0, 111.3244323730469
78, 0, 0, 115.5265197753906
79, 0, 0, 118.7049407958984
80, 0, 0, 122.3111114501953
81, 0, 0, 128.7656555175781
82, 0, 0, 133.4129943847656
83, 0, 0, 138.4386749267578
84, 0, 0, 144.4313354492188
85, 0, 0, 155.2405242919922
86, 0, 0, 167.0073089599609
87, 0, 0, 178.4380035400391
88, 0, 0, 200.0811767578125
89, 0, 0, 227.3119506835938
90, 0, 0, 271.49853515625
91, 0, 0, 326.6400146484375
92, 0, 0, 261.2752685546875
93, 0, 0, 232.2972869873047
94, 0, 0, 95.51805877685547
95, 0, 0, 37.39363861083984
96, 0, 0, 15.86453437805176
97, 0, 0, 0
98, 0, 0, 0
99, 0, 0, 0
100, 0, 0, 0
101, 0, 0, 0
102, 0, 0, 0
103, 0, 0, 0
104, 0, 0, 0
105, 0, 0, 0
106, 0, 0, 0
107, 0, 0, 0
108, 0, 0, 0
109, 0, 0, 0
110, 0, 0, 0
111, 0, 0, 0
112, 0, 0, 0
113, 0, 0, 0
114, 0, 0, 0
115, 0, 0, 0
116, 0, 0, 0
117, 0, 0, 0
118, 0, 0, 0
119, 0, 0, 0
120, 0, 0, 0
121, 0, 0, 0
122, 0, 0, 0
123, 0, 0, 0
124, 0, 0, 0
125, 0, 0, 0
126, 0, 0, 0
127, 0, 0, 0
128, 0, 0, 0
129, 0, 0, 0
130, 0, 0, 0
131, 0, 0, 0
132, 0, 0, 0
133, 0, 0, 0
134, 0, 0, 0
135, 0, 0, 0
136, 0, 0, 0
137, 0, 0, 0
138, 0, 0, 0
139, 0, 0, 0
140, 0, 0, 0
141, 0, 0, 0
142, 0, 0, 0
143, 0, 0, 0
144, 0, 0, 0
145, 0, 0, 0
146, 0, 0, 0
147, 0, 0, 0
148, 0, 0, 0
149, 0, 0, 0
150, 0, 0, 0
151, 0, 0, 0
152, 0, 0, 0
153, 0, 0, 0
154, 0, 0, 0
155, 0, 0, 0
156, 0, 0, 0
157, 0, 0, 0
158, 0, 0, 0
159, 0, 0, 0
160, 0, 0, 0
161, 0, 0, 0
162, 0, 0, 0
163, 0, 0, 0
164, 0, 0, 0
165, 0, 0, 0
166, 0, 0, 0
167, 0, 0, 0
168, 0, 0, 0
169, 0, 0, 0
170, 0, 0, 0
171, 0, 0, 0
172, 0, 0, 0
173, 0, 0, 0
174, 0, 0, 0
175, 0, 0, 0
176, 0, 0, 0
177, 0, 0, 0
178, 0, 0, 0
179, 0, 0, 0
