# TOPAS Version: 3.3.p1
# Parameter File: Simple_Pattern.txt
# Results for scorer MLIC_Scorer
# Scored in component: MLIC
# X in 180 bins of 0.222222 cm
# Y in 1 bin  of 10 cm
# Z in 1 bin  of 10 cm
# EnergyDeposit ( MeV ) : Sum   
0, 0, 0, 1093.5419921875
1, 0, 0, 1092.220092773438
2, 0, 0, 1100.269165039062
3, 0, 0, 1097.058349609375
4, 0, 0, 1110.344604492188
5, 0, 0, 1113.050415039062
6, 0, 0, 1111.568725585938
7, 0, 0, 1117.045776367188
8, 0, 0, 1123.47265625
9, 0, 0, 1133.7646484375
10, 0, 0, 1136.292724609375
11, 0, 0, 1138.710205078125
12, 0, 0, 1148.85546875
13, 0, 0, 1152.918334960938
14, 0, 0, 1149.74609375
15, 0, 0, 1161.314086914062
16, 0, 0, 1172.331420898438
17, 0, 0, 1164.86181640625
18, 0, 0, 1181.729370117188
19, 0, 0, 1185.354248046875
20, 0, 0, 1197.163330078125
21, 0, 0, 1205.286010742188
22, 0, 0, 1211.299560546875
23, 0, 0, 1215.456176757812
24, 0, 0, 1222.483520507812
25, 0, 0, 1221.0048828125
26, 0, 0, 1234.830810546875
27, 0, 0, 1247.772338867188
28, 0, 0, 1255.095092773438
29, 0, 0, 1263.134399414062
30, 0, 0, 1258.217163085938
31, 0, 0, 1279.576293945312
32, 0, 0, 1276.806518554688
33, 0, 0, 1290.764404296875
34, 0, 0, 1294.896606445312
35, 0, 0, 1301.930297851562
36, 0, 0, 1309.891235351562
37, 0, 0, 1333.357788085938
38, 0, 0, 1333.239135742188
39, 0, 0, 1348.134765625
40, 0, 0, 1356.583618164062
41, 0, 0, 1365.536376953125
42, 0, 0, 1375.707397460938
43, 0, 0, 1390.94384765625
44, 0, 0, 1404.28466796875
45, 0, 0, 1414.060302734375
46, 0, 0, 1425.593017578125
47, 0, 0, 1447.218872070312
48, 0, 0, 1460.595336914062
49, 0, 0, 1465.036499023438
50, 0, 0, 1482.026977539062
51, 0, 0, 1493.724243164062
52, 0, 0, 1516.057983398438
53, 0, 0, 1530.169921875
54, 0, 0, 1542.09228515625
55, 0, 0, 1563.8837890625
56, 0, 0, 1579.800415039062
57, 0, 0, 1593.271362304688
58, 0, 0, 1624.48828125
59, 0, 0, 1638.949951171875
60, 0, 0, 1657.225463867188
61, 0, 0, 1679.7119140625
62, 0, 0, 1696.620483398438
63, 0, 0, 1725.657104492188
64, 0, 0, 1750.170654296875
65, 0, 0, 1778.351440429688
66, 0, 0, 1801.842651367188
67, 0, 0, 1838.232543945312
68, 0, 0, 1869.385620117188
69, 0, 0, 1892.421630859375
70, 0, 0, 1940.0419921875
71, 0, 0, 1968.237060546875
72, 0, 0, 2012.105712890625
73, 0, 0, 2058.576171875
74, 0, 0, 2099.062255859375
75, 0, 0, 2160.03466796875
76, 0, 0, 2206.932373046875
77, 0, 0, 2269.849609375
78, 0, 0, 2344.4345703125
79, 0, 0, 2406.371826171875
80, 0, 0, 2502.287109375
81, 0, 0, 2579.917724609375
82, 0, 0, 2692.701171875
83, 0, 0, 2811.70947265625
84, 0, 0, 2954.132568359375
85, 0, 0, 3142.33984375
86, 0, 0, 3350.443115234375
87, 0, 0, 3633.034912109375
88, 0, 0, 4026.015869140625
89, 0, 0, 4576.53955078125
90, 0, 0, 5435.19140625
91, 0, 0, 6288.02392578125
92, 0, 0, 5942.95556640625
93, 0, 0, 4387.03466796875
94, 0, 0, 2486.60595703125
95, 0, 0, 791.8987426757812
96, 0, 0, 230.6928253173828
97, 0, 0, 67.51862335205078
98, 0, 0, 1.558962821960449
99, 0, 0, 0
100, 0, 0, 0
101, 0, 0, 0
102, 0, 0, 0.03573626652359962
103, 0, 0, 0
104, 0, 0, 0
105, 0, 0, 0
106, 0, 0, 0
107, 0, 0, 0
108, 0, 0, 0
109, 0, 0, 0
110, 0, 0, 0
111, 0, 0, 0
112, 0, 0, 0
113, 0, 0, 0
114, 0, 0, 0
115, 0, 0, 0
116, 0, 0, 0
117, 0, 0, 0
118, 0, 0, 0
119, 0, 0, 0
120, 0, 0, 0
121, 0, 0, 0
122, 0, 0, 0
123, 0, 0, 0
124, 0, 0, 0
125, 0, 0, 0
126, 0, 0, 0
127, 0, 0, 0
128, 0, 0, 0
129, 0, 0, 0
130, 0, 0, 0
131, 0, 0, 0
132, 0, 0, 0
133, 0, 0, 0
134, 0, 0, 0
135, 0, 0, 0
136, 0, 0, 0
137, 0, 0, 0
138, 0, 0, 0
139, 0, 0, 0
140, 0, 0, 0
141, 0, 0, 0
142, 0, 0, 0
143, 0, 0, 0
144, 0, 0, 0
145, 0, 0, 0
146, 0, 0, 0
147, 0, 0, 0
148, 0, 0, 0
149, 0, 0, 0
150, 0, 0, 0
151, 0, 0, 0
152, 0, 0, 0
153, 0, 0, 0
154, 0, 0, 0
155, 0, 0, 0
156, 0, 0, 0
157, 0, 0, 0
158, 0, 0, 0
159, 0, 0, 0
160, 0, 0, 0
161, 0, 0, 0
162, 0, 0, 0
163, 0, 0, 0
164, 0, 0, 0
165, 0, 0, 0
166, 0, 0, 0
167, 0, 0, 0
168, 0, 0, 0
169, 0, 0, 0
170, 0, 0, 0
171, 0, 0, 0
172, 0, 0, 0
173, 0, 0, 0
174, 0, 0, 0
175, 0, 0, 0
176, 0, 0, 0
177, 0, 0, 0
178, 0, 0, 0
179, 0, 0, 0
