# TOPAS Version: 3.3.p1
# Parameter File: Simple_Pattern.txt
# Results for scorer MLIC_Scorer
# Scored in component: MLIC
# X in 180 bins of 0.222222 cm
# Y in 1 bin  of 10 cm
# Z in 1 bin  of 10 cm
# EnergyDeposit ( MeV ) : Sum   
0, 0, 0, 1092.614135742188
1, 0, 0, 1089.932495117188
2, 0, 0, 1096.998046875
3, 0, 0, 1096.309692382812
4, 0, 0, 1111.656372070312
5, 0, 0, 1110.208862304688
6, 0, 0, 1121.138671875
7, 0, 0, 1121.96337890625
8, 0, 0, 1124.081665039062
9, 0, 0, 1134.62548828125
10, 0, 0, 1135.478271484375
11, 0, 0, 1134.696166992188
12, 0, 0, 1148.385864257812
13, 0, 0, 1155.835083007812
14, 0, 0, 1162.787719726562
15, 0, 0, 1159.250122070312
16, 0, 0, 1173.449584960938
17, 0, 0, 1181.619873046875
18, 0, 0, 1181.363647460938
19, 0, 0, 1183.89990234375
20, 0, 0, 1201.566162109375
21, 0, 0, 1203.78857421875
22, 0, 0, 1197.967529296875
23, 0, 0, 1221.013427734375
24, 0, 0, 1219.82861328125
25, 0, 0, 1229.637451171875
26, 0, 0, 1241.811889648438
27, 0, 0, 1237.657836914062
28, 0, 0, 1245.44384765625
29, 0, 0, 1267.7705078125
30, 0, 0, 1272.015869140625
31, 0, 0, 1277.891235351562
32, 0, 0, 1287.50048828125
33, 0, 0, 1293.90478515625
34, 0, 0, 1300.52490234375
35, 0, 0, 1308.7216796875
36, 0, 0, 1320.187377929688
37, 0, 0, 1335.755981445312
38, 0, 0, 1333.747314453125
39, 0, 0, 1350.591674804688
40, 0, 0, 1363.714599609375
41, 0, 0, 1378.648193359375
42, 0, 0, 1378.824584960938
43, 0, 0, 1399.790161132812
44, 0, 0, 1403.069702148438
45, 0, 0, 1415.186279296875
46, 0, 0, 1425.0322265625
47, 0, 0, 1445.317749023438
48, 0, 0, 1460.68212890625
49, 0, 0, 1465.60546875
50, 0, 0, 1475.990966796875
51, 0, 0, 1513.14697265625
52, 0, 0, 1512.52978515625
53, 0, 0, 1530.252807617188
54, 0, 0, 1557.809204101562
55, 0, 0, 1556.29541015625
56, 0, 0, 1583.739013671875
57, 0, 0, 1598.680297851562
58, 0, 0, 1618.134033203125
59, 0, 0, 1642.709838867188
60, 0, 0, 1658.203491210938
61, 0, 0, 1689.562622070312
62, 0, 0, 1704.626586914062
63, 0, 0, 1729.358154296875
64, 0, 0, 1752.859130859375
65, 0, 0, 1781.8818359375
66, 0, 0, 1807.958129882812
67, 0, 0, 1849.985717773438
68, 0, 0, 1864.424072265625
69, 0, 0, 1905.962524414062
70, 0, 0, 1940.154418945312
71, 0, 0, 1987.919555664062
72, 0, 0, 2029.342163085938
73, 0, 0, 2069.91162109375
74, 0, 0, 2112.5732421875
75, 0, 0, 2170.396484375
76, 0, 0, 2221.605712890625
77, 0, 0, 2284.607421875
78, 0, 0, 2349.32568359375
79, 0, 0, 2430.472900390625
80, 0, 0, 2502.964599609375
81, 0, 0, 2609.289306640625
82, 0, 0, 2715.388427734375
83, 0, 0, 2843.3291015625
84, 0, 0, 2991.147216796875
85, 0, 0, 3174.81884765625
86, 0, 0, 3403.293212890625
87, 0, 0, 3701.96533203125
88, 0, 0, 4105.00830078125
89, 0, 0, 4731.5107421875
90, 0, 0, 5494.9052734375
91, 0, 0, 6197.32177734375
92, 0, 0, 5879.12060546875
93, 0, 0, 4420.8046875
94, 0, 0, 2100.579833984375
95, 0, 0, 674.8213500976562
96, 0, 0, 93.30051422119141
97, 0, 0, 6.40568733215332
98, 0, 0, 0
99, 0, 0, 0
100, 0, 0, 0.0008543524891138077
101, 0, 0, 0
102, 0, 0, 0
103, 0, 0, 0
104, 0, 0, 0
105, 0, 0, 0
106, 0, 0, 0
107, 0, 0, 0
108, 0, 0, 0
109, 0, 0, 0
110, 0, 0, 0
111, 0, 0, 0
112, 0, 0, 0
113, 0, 0, 0
114, 0, 0, 0
115, 0, 0, 0
116, 0, 0, 0
117, 0, 0, 0.008303551934659481
118, 0, 0, 0
119, 0, 0, 0
120, 0, 0, 0
121, 0, 0, 0
122, 0, 0, 0
123, 0, 0, 0
124, 0, 0, 0
125, 0, 0, 0
126, 0, 0, 0
127, 0, 0, 0
128, 0, 0, 0
129, 0, 0, 0
130, 0, 0, 0
131, 0, 0, 0
132, 0, 0, 0
133, 0, 0, 0
134, 0, 0, 0
135, 0, 0, 0
136, 0, 0, 0
137, 0, 0, 0
138, 0, 0, 0
139, 0, 0, 0
140, 0, 0, 0
141, 0, 0, 0
142, 0, 0, 0
143, 0, 0, 0
144, 0, 0, 0
145, 0, 0, 0
146, 0, 0, 0
147, 0, 0, 0
148, 0, 0, 0
149, 0, 0, 0
150, 0, 0, 0
151, 0, 0, 0
152, 0, 0, 0
153, 0, 0, 0
154, 0, 0, 0
155, 0, 0, 0
156, 0, 0, 0
157, 0, 0, 0
158, 0, 0, 0
159, 0, 0, 0
160, 0, 0, 0
161, 0, 0, 0
162, 0, 0, 0
163, 0, 0, 0
164, 0, 0, 0
165, 0, 0, 0
166, 0, 0, 0
167, 0, 0, 0
168, 0, 0, 0
169, 0, 0, 0
170, 0, 0, 0
171, 0, 0, 0
172, 0, 0, 0
173, 0, 0, 0
174, 0, 0, 0
175, 0, 0, 0
176, 0, 0, 0
177, 0, 0, 0
178, 0, 0, 0.01547720935195684
179, 0, 0, 0.009694157168269157
