# TOPAS Version: 3.3.p1
# Parameter File: Simple_Pattern.txt
# Results for scorer MLIC_Scorer
# Scored in component: MLIC
# X in 180 bins of 0.222222 cm
# Y in 1 bin  of 10 cm
# Z in 1 bin  of 10 cm
# EnergyDeposit ( MeV ) : Sum   
0, 0, 0, 1149.6904296875
1, 0, 0, 1161.415161132812
2, 0, 0, 1163.252807617188
3, 0, 0, 1177.99951171875
4, 0, 0, 1174.55126953125
5, 0, 0, 1183.171020507812
6, 0, 0, 1191.792602539062
7, 0, 0, 1189.422119140625
8, 0, 0, 1199.90283203125
9, 0, 0, 1206.630004882812
10, 0, 0, 1209.545043945312
11, 0, 0, 1220.696411132812
12, 0, 0, 1226.999755859375
13, 0, 0, 1234.30517578125
14, 0, 0, 1248.978515625
15, 0, 0, 1246.310668945312
16, 0, 0, 1261.965942382812
17, 0, 0, 1265.556030273438
18, 0, 0, 1283.74853515625
19, 0, 0, 1273.97314453125
20, 0, 0, 1294.616088867188
21, 0, 0, 1301.253540039062
22, 0, 0, 1307.948486328125
23, 0, 0, 1318.906372070312
24, 0, 0, 1329.918823242188
25, 0, 0, 1344.2890625
26, 0, 0, 1356.775512695312
27, 0, 0, 1358.32861328125
28, 0, 0, 1375.192138671875
29, 0, 0, 1381.516845703125
30, 0, 0, 1385.998168945312
31, 0, 0, 1406.437744140625
32, 0, 0, 1413.600219726562
33, 0, 0, 1425.746215820312
34, 0, 0, 1431.949829101562
35, 0, 0, 1453.954467773438
36, 0, 0, 1471.28955078125
37, 0, 0, 1484.487060546875
38, 0, 0, 1501.693359375
39, 0, 0, 1517.740844726562
40, 0, 0, 1534.761840820312
41, 0, 0, 1538.176025390625
42, 0, 0, 1558.558471679688
43, 0, 0, 1578.719970703125
44, 0, 0, 1602.3623046875
45, 0, 0, 1620.31640625
46, 0, 0, 1636.557373046875
47, 0, 0, 1664.341552734375
48, 0, 0, 1683.926879882812
49, 0, 0, 1705.00048828125
50, 0, 0, 1722.004516601562
51, 0, 0, 1756.123046875
52, 0, 0, 1781.742309570312
53, 0, 0, 1818.892700195312
54, 0, 0, 1842.06689453125
55, 0, 0, 1873.209228515625
56, 0, 0, 1908.639526367188
57, 0, 0, 1933.064086914062
58, 0, 0, 1973.319580078125
59, 0, 0, 2024.14306640625
60, 0, 0, 2062.178466796875
61, 0, 0, 2116.940673828125
62, 0, 0, 2161.14794921875
63, 0, 0, 2214.132568359375
64, 0, 0, 2281.413330078125
65, 0, 0, 2347.345458984375
66, 0, 0, 2425.56298828125
67, 0, 0, 2498.338623046875
68, 0, 0, 2595.590087890625
69, 0, 0, 2701.28662109375
70, 0, 0, 2830.361328125
71, 0, 0, 2974.29931640625
72, 0, 0, 3152.068359375
73, 0, 0, 3367.06103515625
74, 0, 0, 3654.651123046875
75, 0, 0, 4061.351318359375
76, 0, 0, 4653.388671875
77, 0, 0, 5620.2470703125
78, 0, 0, 6244.84912109375
79, 0, 0, 5993.55517578125
80, 0, 0, 4197.02392578125
81, 0, 0, 2412.116943359375
82, 0, 0, 854.0171508789062
83, 0, 0, 143.0577545166016
84, 0, 0, 2.748993396759033
85, 0, 0, 0.002324689412489533
86, 0, 0, 0
87, 0, 0, 0
88, 0, 0, 0
89, 0, 0, 0
90, 0, 0, 0.03643277660012245
91, 0, 0, 0
92, 0, 0, 0.002247429685667157
93, 0, 0, 0.01071331091225147
94, 0, 0, 0
95, 0, 0, 0
96, 0, 0, 0
97, 0, 0, 0
98, 0, 0, 0.005519603379070759
99, 0, 0, 0
100, 0, 0, 0
101, 0, 0, 0
102, 0, 0, 0
103, 0, 0, 0
104, 0, 0, 0
105, 0, 0, 0
106, 0, 0, 0
107, 0, 0, 0
108, 0, 0, 0
109, 0, 0, 0.001372269005514681
110, 0, 0, 0
111, 0, 0, 0
112, 0, 0, 0
113, 0, 0, 0
114, 0, 0, 0
115, 0, 0, 0
116, 0, 0, 0
117, 0, 0, 0
118, 0, 0, 0
119, 0, 0, 0
120, 0, 0, 0
121, 0, 0, 0
122, 0, 0, 0
123, 0, 0, 0
124, 0, 0, 0
125, 0, 0, 0
126, 0, 0, 0
127, 0, 0, 0
128, 0, 0, 0
129, 0, 0, 0
130, 0, 0, 0
131, 0, 0, 0
132, 0, 0, 0
133, 0, 0, 0
134, 0, 0, 0
135, 0, 0, 0
136, 0, 0, 0
137, 0, 0, 0
138, 0, 0, 0
139, 0, 0, 0
140, 0, 0, 0
141, 0, 0, 0
142, 0, 0, 0
143, 0, 0, 0
144, 0, 0, 0
145, 0, 0, 0
146, 0, 0, 0
147, 0, 0, 0
148, 0, 0, 0
149, 0, 0, 0
150, 0, 0, 0
151, 0, 0, 0
152, 0, 0, 0
153, 0, 0, 0
154, 0, 0, 0
155, 0, 0, 0
156, 0, 0, 0
157, 0, 0, 0
158, 0, 0, 0
159, 0, 0, 0
160, 0, 0, 0
161, 0, 0, 0
162, 0, 0, 0
163, 0, 0, 0
164, 0, 0, 0
165, 0, 0, 0
166, 0, 0, 0
167, 0, 0, 0
168, 0, 0, 0
169, 0, 0, 0
170, 0, 0, 0
171, 0, 0, 0
172, 0, 0, 0
173, 0, 0, 0
174, 0, 0, 0
175, 0, 0, 0
176, 0, 0, 0
177, 0, 0, 0
178, 0, 0, 0
179, 0, 0, 0
