# TOPAS Version: 3.3.p1
# Parameter File: Simple_Pattern.txt
# Results for scorer MLIC_Scorer
# Scored in component: MLIC
# X in 165 bins of 0.2 cm
# Y in 1 bin  of 10 cm
# Z in 1 bin  of 10 cm
# EnergyDeposit ( MeV ) : Sum   
0, 0, 0, 996.5353393554688
1, 0, 0, 987.7342529296875
2, 0, 0, 999.2169189453125
3, 0, 0, 1004.53125
4, 0, 0, 1005.475463867188
5, 0, 0, 1005.212829589844
6, 0, 0, 1010.319213867188
7, 0, 0, 1013.584289550781
8, 0, 0, 1016.366027832031
9, 0, 0, 1021.645202636719
10, 0, 0, 1023.622802734375
11, 0, 0, 1029.097412109375
12, 0, 0, 1034.911865234375
13, 0, 0, 1035.529541015625
14, 0, 0, 1049.6357421875
15, 0, 0, 1048.868041992188
16, 0, 0, 1050.3017578125
17, 0, 0, 1060.374389648438
18, 0, 0, 1067.053344726562
19, 0, 0, 1069.614013671875
20, 0, 0, 1067.365234375
21, 0, 0, 1084.322998046875
22, 0, 0, 1088.527709960938
23, 0, 0, 1082.97412109375
24, 0, 0, 1094.4833984375
25, 0, 0, 1098.921875
26, 0, 0, 1112.953857421875
27, 0, 0, 1115.733520507812
28, 0, 0, 1120.849975585938
29, 0, 0, 1128.489501953125
30, 0, 0, 1130.936889648438
31, 0, 0, 1138.351806640625
32, 0, 0, 1150.419189453125
33, 0, 0, 1152.527709960938
34, 0, 0, 1159.743286132812
35, 0, 0, 1172.492431640625
36, 0, 0, 1179.492797851562
37, 0, 0, 1187.83544921875
38, 0, 0, 1191.810546875
39, 0, 0, 1203.068481445312
40, 0, 0, 1202.950073242188
41, 0, 0, 1208.351440429688
42, 0, 0, 1225.629150390625
43, 0, 0, 1233.439575195312
44, 0, 0, 1248.718139648438
45, 0, 0, 1250.397827148438
46, 0, 0, 1249.32421875
47, 0, 0, 1259.639892578125
48, 0, 0, 1279.117431640625
49, 0, 0, 1285.312255859375
50, 0, 0, 1290.241577148438
51, 0, 0, 1301.540405273438
52, 0, 0, 1319.428344726562
53, 0, 0, 1330.40234375
54, 0, 0, 1342.076538085938
55, 0, 0, 1346.157104492188
56, 0, 0, 1379.105224609375
57, 0, 0, 1373.013549804688
58, 0, 0, 1391.461547851562
59, 0, 0, 1404.141479492188
60, 0, 0, 1429.820068359375
61, 0, 0, 1433.105712890625
62, 0, 0, 1450.102661132812
63, 0, 0, 1460.354614257812
64, 0, 0, 1488.87548828125
65, 0, 0, 1503.729858398438
66, 0, 0, 1521.8955078125
67, 0, 0, 1543.648071289062
68, 0, 0, 1552.028686523438
69, 0, 0, 1583.132446289062
70, 0, 0, 1599.896606445312
71, 0, 0, 1625.607666015625
72, 0, 0, 1654.492919921875
73, 0, 0, 1677.565673828125
74, 0, 0, 1700.493408203125
75, 0, 0, 1727.231567382812
76, 0, 0, 1756.212890625
77, 0, 0, 1791.283935546875
78, 0, 0, 1830.788818359375
79, 0, 0, 1862.663818359375
80, 0, 0, 1901.093139648438
81, 0, 0, 1940.341064453125
82, 0, 0, 1978.985107421875
83, 0, 0, 2034.223510742188
84, 0, 0, 2082.769775390625
85, 0, 0, 2142.80322265625
86, 0, 0, 2207.742431640625
87, 0, 0, 2281.95068359375
88, 0, 0, 2351.114990234375
89, 0, 0, 2444.87109375
90, 0, 0, 2544.44287109375
91, 0, 0, 2670.14892578125
92, 0, 0, 2801.398681640625
93, 0, 0, 2986.73681640625
94, 0, 0, 3196.17529296875
95, 0, 0, 3495.945556640625
96, 0, 0, 3889.40673828125
97, 0, 0, 4374.97021484375
98, 0, 0, 5010.80810546875
99, 0, 0, 5398.39404296875
100, 0, 0, 5320.94775390625
101, 0, 0, 4017.208251953125
102, 0, 0, 2554.759521484375
103, 0, 0, 1035.89990234375
104, 0, 0, 285.5592041015625
105, 0, 0, 111.7633056640625
106, 0, 0, 78.55484771728516
107, 0, 0, 55.66948318481445
108, 0, 0, 40.85379791259766
109, 0, 0, 32.96073913574219
110, 0, 0, 18.46010971069336
111, 0, 0, 20.75606918334961
112, 0, 0, 25.31504821777344
113, 0, 0, 31.60251617431641
114, 0, 0, 26.78822326660156
115, 0, 0, 29.36278343200684
116, 0, 0, 11.99875068664551
117, 0, 0, 0
118, 0, 0, 0
119, 0, 0, 0
120, 0, 0, 0
121, 0, 0, 0
122, 0, 0, 0
123, 0, 0, 0
124, 0, 0, 0
125, 0, 0, 0
126, 0, 0, 0
127, 0, 0, 0
128, 0, 0, 0
129, 0, 0, 0
130, 0, 0, 0
131, 0, 0, 0
132, 0, 0, 0
133, 0, 0, 0
134, 0, 0, 0
135, 0, 0, 0
136, 0, 0, 0
137, 0, 0, 0
138, 0, 0, 0
139, 0, 0, 0
140, 0, 0, 0
141, 0, 0, 0
142, 0, 0, 0
143, 0, 0, 0
144, 0, 0, 0
145, 0, 0, 0
146, 0, 0, 0
147, 0, 0, 0
148, 0, 0, 0
149, 0, 0, 0
150, 0, 0, 0
151, 0, 0, 0
152, 0, 0, 0
153, 0, 0, 0
154, 0, 0, 0
155, 0, 0, 0
156, 0, 0, 0
157, 0, 0, 0
158, 0, 0, 0
159, 0, 0, 0
160, 0, 0, 0
161, 0, 0, 0
162, 0, 0, 0
163, 0, 0, 0
164, 0, 0, 0
