# TOPAS Version: 3.3.p1
# Parameter File: Simple_Pattern.txt
# Results for scorer MLIC_Scorer
# Scored in component: MLIC
# X in 180 bins of 0.222222 cm
# Y in 1 bin  of 10 cm
# Z in 1 bin  of 10 cm
# EnergyDeposit ( MeV ) : Sum   
0, 0, 0, 1118.82666015625
1, 0, 0, 1117.413208007812
2, 0, 0, 1133.405883789062
3, 0, 0, 1137.99072265625
4, 0, 0, 1145.415649414062
5, 0, 0, 1139.13330078125
6, 0, 0, 1150.964477539062
7, 0, 0, 1152.421752929688
8, 0, 0, 1165.169555664062
9, 0, 0, 1169.779663085938
10, 0, 0, 1175.514038085938
11, 0, 0, 1177.469482421875
12, 0, 0, 1184.991943359375
13, 0, 0, 1189.1943359375
14, 0, 0, 1194.244873046875
15, 0, 0, 1210.303833007812
16, 0, 0, 1211.51513671875
17, 0, 0, 1220.9677734375
18, 0, 0, 1227.5341796875
19, 0, 0, 1231.767944335938
20, 0, 0, 1237.21533203125
21, 0, 0, 1247.013793945312
22, 0, 0, 1255.933471679688
23, 0, 0, 1267.438842773438
24, 0, 0, 1278.834106445312
25, 0, 0, 1279.381103515625
26, 0, 0, 1289.310913085938
27, 0, 0, 1291.9111328125
28, 0, 0, 1307.865844726562
29, 0, 0, 1321.801635742188
30, 0, 0, 1318.952880859375
31, 0, 0, 1339.335327148438
32, 0, 0, 1335.917846679688
33, 0, 0, 1361.283569335938
34, 0, 0, 1373.718139648438
35, 0, 0, 1378.830688476562
36, 0, 0, 1384.029296875
37, 0, 0, 1393.621337890625
38, 0, 0, 1415.169677734375
39, 0, 0, 1423.432739257812
40, 0, 0, 1447.810668945312
41, 0, 0, 1454.640014648438
42, 0, 0, 1474.726318359375
43, 0, 0, 1493.693481445312
44, 0, 0, 1495.113403320312
45, 0, 0, 1506.94970703125
46, 0, 0, 1525.189575195312
47, 0, 0, 1546.953857421875
48, 0, 0, 1561.472290039062
49, 0, 0, 1575.457397460938
50, 0, 0, 1607.70556640625
51, 0, 0, 1614.758911132812
52, 0, 0, 1629.623779296875
53, 0, 0, 1648.677612304688
54, 0, 0, 1681.564086914062
55, 0, 0, 1701.936279296875
56, 0, 0, 1729.75341796875
57, 0, 0, 1756.295776367188
58, 0, 0, 1783.885009765625
59, 0, 0, 1820.858032226562
60, 0, 0, 1853.761474609375
61, 0, 0, 1890.915771484375
62, 0, 0, 1921.330078125
63, 0, 0, 1957.584106445312
64, 0, 0, 2004.078125
65, 0, 0, 2048.099853515625
66, 0, 0, 2094.73095703125
67, 0, 0, 2150.483154296875
68, 0, 0, 2213.661376953125
69, 0, 0, 2283.6611328125
70, 0, 0, 2355.312255859375
71, 0, 0, 2449.150390625
72, 0, 0, 2547.8740234375
73, 0, 0, 2678.242919921875
74, 0, 0, 2822.3369140625
75, 0, 0, 3035.640380859375
76, 0, 0, 3317.155517578125
77, 0, 0, 3787.12060546875
78, 0, 0, 4087.317626953125
79, 0, 0, 4231.34912109375
80, 0, 0, 3596.332275390625
81, 0, 0, 2622.11181640625
82, 0, 0, 1893.05322265625
83, 0, 0, 1690.549926757812
84, 0, 0, 1705.549926757812
85, 0, 0, 1765.667114257812
86, 0, 0, 1834.216796875
87, 0, 0, 1961.138916015625
88, 0, 0, 2111.24853515625
89, 0, 0, 2377.71533203125
90, 0, 0, 2746.3076171875
91, 0, 0, 3121.634521484375
92, 0, 0, 3196.878662109375
93, 0, 0, 2090.31884765625
94, 0, 0, 1100.7099609375
95, 0, 0, 355.2032470703125
96, 0, 0, 44.4014778137207
97, 0, 0, 7.079097747802734
98, 0, 0, 0
99, 0, 0, 0.001227632048539817
100, 0, 0, 0
101, 0, 0, 0
102, 0, 0, 0
103, 0, 0, 0
104, 0, 0, 0
105, 0, 0, 0.03940341621637344
106, 0, 0, 0
107, 0, 0, 0
108, 0, 0, 0
109, 0, 0, 6.468944775406271e-05
110, 0, 0, 0
111, 0, 0, 0
112, 0, 0, 0
113, 0, 0, 0
114, 0, 0, 0.03914105519652367
115, 0, 0, 0
116, 0, 0, 0
117, 0, 0, 0
118, 0, 0, 0
119, 0, 0, 0
120, 0, 0, 0
121, 0, 0, 0
122, 0, 0, 0
123, 0, 0, 0
124, 0, 0, 0
125, 0, 0, 0
126, 0, 0, 0
127, 0, 0, 0
128, 0, 0, 0
129, 0, 0, 0
130, 0, 0, 0
131, 0, 0, 0
132, 0, 0, 0
133, 0, 0, 0
134, 0, 0, 0
135, 0, 0, 0
136, 0, 0, 0
137, 0, 0, 0
138, 0, 0, 0
139, 0, 0, 0
140, 0, 0, 0
141, 0, 0, 0
142, 0, 0, 0
143, 0, 0, 0
144, 0, 0, 0
145, 0, 0, 0
146, 0, 0, 0
147, 0, 0, 0
148, 0, 0, 0
149, 0, 0, 0
150, 0, 0, 0
151, 0, 0, 0
152, 0, 0, 0
153, 0, 0, 0
154, 0, 0, 0
155, 0, 0, 0
156, 0, 0, 0
157, 0, 0, 0
158, 0, 0, 0
159, 0, 0, 0
160, 0, 0, 0
161, 0, 0, 0
162, 0, 0, 0
163, 0, 0, 0
164, 0, 0, 0
165, 0, 0, 0
166, 0, 0, 0
167, 0, 0, 0
168, 0, 0, 0
169, 0, 0, 0
170, 0, 0, 0
171, 0, 0, 0
172, 0, 0, 0
173, 0, 0, 0
174, 0, 0, 0
175, 0, 0, 0
176, 0, 0, 0
177, 0, 0, 0
178, 0, 0, 0
179, 0, 0, 0
