# TOPAS Version: 3.3.p1
# Parameter File: Simple_Pattern.txt
# Results for scorer MLIC_Scorer
# Scored in component: MLIC
# X in 180 bins of 0.222222 cm
# Y in 1 bin  of 10 cm
# Z in 1 bin  of 10 cm
# EnergyDeposit ( MeV ) : Sum   
0, 0, 0, 1084.912719726562
1, 0, 0, 1093.191040039062
2, 0, 0, 1096.716064453125
3, 0, 0, 1100.792602539062
4, 0, 0, 1100.733276367188
5, 0, 0, 1113.186157226562
6, 0, 0, 1106.688232421875
7, 0, 0, 1119.41162109375
8, 0, 0, 1117.008178710938
9, 0, 0, 1129.630859375
10, 0, 0, 1142.801025390625
11, 0, 0, 1145.276489257812
12, 0, 0, 1143.534301757812
13, 0, 0, 1158.44482421875
14, 0, 0, 1156.932250976562
15, 0, 0, 1166.016479492188
16, 0, 0, 1163.061767578125
17, 0, 0, 1174.538208007812
18, 0, 0, 1187.194458007812
19, 0, 0, 1193.578125
20, 0, 0, 1203.848510742188
21, 0, 0, 1199.670654296875
22, 0, 0, 1205.838256835938
23, 0, 0, 1216.85791015625
24, 0, 0, 1221.696533203125
25, 0, 0, 1231.537963867188
26, 0, 0, 1237.005126953125
27, 0, 0, 1251.056884765625
28, 0, 0, 1250.286743164062
29, 0, 0, 1259.1484375
30, 0, 0, 1263.333129882812
31, 0, 0, 1276.349487304688
32, 0, 0, 1288.583129882812
33, 0, 0, 1289.584716796875
34, 0, 0, 1307.109375
35, 0, 0, 1315.998657226562
36, 0, 0, 1320.353637695312
37, 0, 0, 1331.652465820312
38, 0, 0, 1343.253295898438
39, 0, 0, 1346.025512695312
40, 0, 0, 1346.18701171875
41, 0, 0, 1373.3369140625
42, 0, 0, 1373.705932617188
43, 0, 0, 1387.577514648438
44, 0, 0, 1402.2529296875
45, 0, 0, 1413.868530273438
46, 0, 0, 1432.2626953125
47, 0, 0, 1435.441528320312
48, 0, 0, 1455.339599609375
49, 0, 0, 1473.974487304688
50, 0, 0, 1478.662231445312
51, 0, 0, 1502.633422851562
52, 0, 0, 1521.070068359375
53, 0, 0, 1527.57470703125
54, 0, 0, 1542.266967773438
55, 0, 0, 1563.069580078125
56, 0, 0, 1573.432983398438
57, 0, 0, 1599.930786132812
58, 0, 0, 1616.16455078125
59, 0, 0, 1643.348022460938
60, 0, 0, 1658.586303710938
61, 0, 0, 1682.689453125
62, 0, 0, 1701.84912109375
63, 0, 0, 1732.198852539062
64, 0, 0, 1745.5498046875
65, 0, 0, 1784.334228515625
66, 0, 0, 1814.642822265625
67, 0, 0, 1834.03515625
68, 0, 0, 1866.06982421875
69, 0, 0, 1903.9814453125
70, 0, 0, 1945.779296875
71, 0, 0, 1979.623046875
72, 0, 0, 2016.891479492188
73, 0, 0, 2054.847900390625
74, 0, 0, 2101.193359375
75, 0, 0, 2160.51220703125
76, 0, 0, 2217.787841796875
77, 0, 0, 2278.000244140625
78, 0, 0, 2339.14111328125
79, 0, 0, 2427.53564453125
80, 0, 0, 2509.070556640625
81, 0, 0, 2600.065185546875
82, 0, 0, 2707.532958984375
83, 0, 0, 2832.083251953125
84, 0, 0, 2979.349853515625
85, 0, 0, 3160.218017578125
86, 0, 0, 3371.110595703125
87, 0, 0, 3668.283203125
88, 0, 0, 4090.0166015625
89, 0, 0, 4632.509765625
90, 0, 0, 5432.93115234375
91, 0, 0, 6288.6259765625
92, 0, 0, 6081.1953125
93, 0, 0, 4429.8505859375
94, 0, 0, 2255.031982421875
95, 0, 0, 717.4909057617188
96, 0, 0, 82.10944366455078
97, 0, 0, 0
98, 0, 0, 0
99, 0, 0, 0.02395379543304443
100, 0, 0, 0
101, 0, 0, 0.014319839887321
102, 0, 0, 0
103, 0, 0, 0
104, 0, 0, 0
105, 0, 0, 0
106, 0, 0, 0
107, 0, 0, 0
108, 0, 0, 0
109, 0, 0, 0.02757995016872883
110, 0, 0, 0.02699514664709568
111, 0, 0, 0
112, 0, 0, 0
113, 0, 0, 0
114, 0, 0, 0
115, 0, 0, 0
116, 0, 0, 0
117, 0, 0, 0
118, 0, 0, 0
119, 0, 0, 0
120, 0, 0, 0
121, 0, 0, 0
122, 0, 0, 0
123, 0, 0, 0
124, 0, 0, 0
125, 0, 0, 0
126, 0, 0, 0
127, 0, 0, 0
128, 0, 0, 0
129, 0, 0, 0
130, 0, 0, 0
131, 0, 0, 0
132, 0, 0, 0
133, 0, 0, 0
134, 0, 0, 0
135, 0, 0, 0
136, 0, 0, 0
137, 0, 0, 0
138, 0, 0, 0
139, 0, 0, 0
140, 0, 0, 0
141, 0, 0, 0
142, 0, 0, 0
143, 0, 0, 0
144, 0, 0, 0
145, 0, 0, 0
146, 0, 0, 0
147, 0, 0, 0
148, 0, 0, 0
149, 0, 0, 0
150, 0, 0, 0
151, 0, 0, 0
152, 0, 0, 0
153, 0, 0, 0
154, 0, 0, 0
155, 0, 0, 0
156, 0, 0, 0
157, 0, 0, 0
158, 0, 0, 0
159, 0, 0, 0
160, 0, 0, 0
161, 0, 0, 0
162, 0, 0, 0
163, 0, 0, 0
164, 0, 0, 0
165, 0, 0, 0
166, 0, 0, 0
167, 0, 0, 0
168, 0, 0, 0
169, 0, 0, 0
170, 0, 0, 0
171, 0, 0, 0
172, 0, 0, 0
173, 0, 0, 0
174, 0, 0, 0
175, 0, 0, 0
176, 0, 0, 0
177, 0, 0, 0
178, 0, 0, 0
179, 0, 0, 0
