# TOPAS Version: 3.3.p1
# Parameter File: Simple_Pattern.txt
# Results for scorer MLIC_Scorer
# Scored in component: MLIC
# X in 165 bins of 0.2 cm
# Y in 1 bin  of 10 cm
# Z in 1 bin  of 10 cm
# EnergyDeposit ( MeV ) : Sum   
0, 0, 0, 940.1458740234375
1, 0, 0, 944.548583984375
2, 0, 0, 942.4130859375
3, 0, 0, 942.271484375
4, 0, 0, 956.4444580078125
5, 0, 0, 951.8341674804688
6, 0, 0, 958.968017578125
7, 0, 0, 962.2083129882812
8, 0, 0, 954.0513916015625
9, 0, 0, 967.883056640625
10, 0, 0, 969.9724731445312
11, 0, 0, 970.8329467773438
12, 0, 0, 967.8790893554688
13, 0, 0, 978.56201171875
14, 0, 0, 983.5664672851562
15, 0, 0, 988.0128784179688
16, 0, 0, 996.9015502929688
17, 0, 0, 996.3527221679688
18, 0, 0, 1000.382385253906
19, 0, 0, 1001.474426269531
20, 0, 0, 1017.809875488281
21, 0, 0, 1014.769226074219
22, 0, 0, 1026.448852539062
23, 0, 0, 1017.230407714844
24, 0, 0, 1023.629272460938
25, 0, 0, 1024.376586914062
26, 0, 0, 1040.594116210938
27, 0, 0, 1042.220581054688
28, 0, 0, 1045.009033203125
29, 0, 0, 1049.554321289062
30, 0, 0, 1051.41357421875
31, 0, 0, 1052.37548828125
32, 0, 0, 1065.470336914062
33, 0, 0, 1066.094604492188
34, 0, 0, 1075.113647460938
35, 0, 0, 1074.375854492188
36, 0, 0, 1093.672241210938
37, 0, 0, 1088.485473632812
38, 0, 0, 1099.882446289062
39, 0, 0, 1107.947875976562
40, 0, 0, 1102.493896484375
41, 0, 0, 1106.896240234375
42, 0, 0, 1116.992309570312
43, 0, 0, 1127.028076171875
44, 0, 0, 1134.498901367188
45, 0, 0, 1137.457275390625
46, 0, 0, 1140.29052734375
47, 0, 0, 1149.4306640625
48, 0, 0, 1153.75927734375
49, 0, 0, 1164.20947265625
50, 0, 0, 1174.101318359375
51, 0, 0, 1185.99658203125
52, 0, 0, 1186.046630859375
53, 0, 0, 1195.034057617188
54, 0, 0, 1198.129760742188
55, 0, 0, 1210.364990234375
56, 0, 0, 1221.637817382812
57, 0, 0, 1225.752685546875
58, 0, 0, 1233.361450195312
59, 0, 0, 1245.2890625
60, 0, 0, 1251.128662109375
61, 0, 0, 1273.824462890625
62, 0, 0, 1263.438720703125
63, 0, 0, 1285.59619140625
64, 0, 0, 1287.487548828125
65, 0, 0, 1301.533935546875
66, 0, 0, 1315.919555664062
67, 0, 0, 1323.301879882812
68, 0, 0, 1334.197631835938
69, 0, 0, 1345.515625
70, 0, 0, 1358.46875
71, 0, 0, 1382.479614257812
72, 0, 0, 1384.747436523438
73, 0, 0, 1400.466796875
74, 0, 0, 1408.979614257812
75, 0, 0, 1436.115600585938
76, 0, 0, 1443.349487304688
77, 0, 0, 1465.166137695312
78, 0, 0, 1483.977783203125
79, 0, 0, 1498.662841796875
80, 0, 0, 1515.182495117188
81, 0, 0, 1530.899780273438
82, 0, 0, 1557.564453125
83, 0, 0, 1577.203491210938
84, 0, 0, 1597.711547851562
85, 0, 0, 1615.221069335938
86, 0, 0, 1642.96533203125
87, 0, 0, 1663.88671875
88, 0, 0, 1689.034057617188
89, 0, 0, 1711.605590820312
90, 0, 0, 1754.474365234375
91, 0, 0, 1775.999633789062
92, 0, 0, 1817.436279296875
93, 0, 0, 1841.564086914062
94, 0, 0, 1884.4765625
95, 0, 0, 1918.83447265625
96, 0, 0, 1970.149047851562
97, 0, 0, 2010.531005859375
98, 0, 0, 2062.096435546875
99, 0, 0, 2124.99072265625
100, 0, 0, 2184.624267578125
101, 0, 0, 2248.953125
102, 0, 0, 2318.9755859375
103, 0, 0, 2411.73486328125
104, 0, 0, 2504.435546875
105, 0, 0, 2615.931640625
106, 0, 0, 2753.721923828125
107, 0, 0, 2907.427978515625
108, 0, 0, 3098.764404296875
109, 0, 0, 3357.630859375
110, 0, 0, 3705.243896484375
111, 0, 0, 4195.98876953125
112, 0, 0, 4871.61279296875
113, 0, 0, 5376.5126953125
114, 0, 0, 5490.64111328125
115, 0, 0, 4542.52783203125
116, 0, 0, 3212.83154296875
117, 0, 0, 1516.59912109375
118, 0, 0, 561.8182373046875
119, 0, 0, 136.2474822998047
120, 0, 0, 18.20329856872559
121, 0, 0, 12.43569087982178
122, 0, 0, 0
123, 0, 0, 0.02880086190998554
124, 0, 0, 0.0259535051882267
125, 0, 0, 0
126, 0, 0, 0
127, 0, 0, 0
128, 0, 0, 0
129, 0, 0, 0
130, 0, 0, 0
131, 0, 0, 0
132, 0, 0, 0
133, 0, 0, 0
134, 0, 0, 0
135, 0, 0, 0
136, 0, 0, 0
137, 0, 0, 0
138, 0, 0, 0
139, 0, 0, 0
140, 0, 0, 0
141, 0, 0, 0
142, 0, 0, 0
143, 0, 0, 0
144, 0, 0, 0
145, 0, 0, 0
146, 0, 0, 0
147, 0, 0, 0
148, 0, 0, 0
149, 0, 0, 0
150, 0, 0, 0
151, 0, 0, 0
152, 0, 0, 0
153, 0, 0, 0
154, 0, 0, 0
155, 0, 0, 0
156, 0, 0, 0
157, 0, 0, 0
158, 0, 0, 0
159, 0, 0, 0
160, 0, 0, 0
161, 0, 0, 0
162, 0, 0, 0
163, 0, 0, 0
164, 0, 0, 0
