# TOPAS Version: 3.3.p1
# Parameter File: Simple_Pattern.txt
# Results for scorer MLIC_Scorer
# Scored in component: MLIC
# X in 165 bins of 0.2 cm
# Y in 1 bin  of 10 cm
# Z in 1 bin  of 10 cm
# EnergyDeposit ( MeV ) : Sum   
0, 0, 0, 982.0408325195312
1, 0, 0, 987.71533203125
2, 0, 0, 999.1742553710938
3, 0, 0, 995.8952026367188
4, 0, 0, 1000.149963378906
5, 0, 0, 1004.3623046875
6, 0, 0, 1016.155395507812
7, 0, 0, 1016.114013671875
8, 0, 0, 1016.002746582031
9, 0, 0, 1018.859558105469
10, 0, 0, 1029.416625976562
11, 0, 0, 1029.457397460938
12, 0, 0, 1036.811279296875
13, 0, 0, 1039.785522460938
14, 0, 0, 1046.824096679688
15, 0, 0, 1047.799682617188
16, 0, 0, 1051.006591796875
17, 0, 0, 1057.146606445312
18, 0, 0, 1067.677612304688
19, 0, 0, 1061.688842773438
20, 0, 0, 1062.160400390625
21, 0, 0, 1083.784912109375
22, 0, 0, 1079.176635742188
23, 0, 0, 1085.721557617188
24, 0, 0, 1098.961669921875
25, 0, 0, 1110.6904296875
26, 0, 0, 1113.38623046875
27, 0, 0, 1111.694458007812
28, 0, 0, 1120.05322265625
29, 0, 0, 1122.152709960938
30, 0, 0, 1139.17529296875
31, 0, 0, 1145.88623046875
32, 0, 0, 1145.441650390625
33, 0, 0, 1164.988891601562
34, 0, 0, 1158.425415039062
35, 0, 0, 1168.16650390625
36, 0, 0, 1170.274658203125
37, 0, 0, 1187.195068359375
38, 0, 0, 1188.511108398438
39, 0, 0, 1192.119873046875
40, 0, 0, 1198.469360351562
41, 0, 0, 1208.646484375
42, 0, 0, 1218.523803710938
43, 0, 0, 1227.9697265625
44, 0, 0, 1240.726440429688
45, 0, 0, 1248.051635742188
46, 0, 0, 1257.588745117188
47, 0, 0, 1262.120849609375
48, 0, 0, 1275.598999023438
49, 0, 0, 1292.00244140625
50, 0, 0, 1297.122924804688
51, 0, 0, 1303.711059570312
52, 0, 0, 1321.7763671875
53, 0, 0, 1339.097412109375
54, 0, 0, 1338.800170898438
55, 0, 0, 1351.441040039062
56, 0, 0, 1365.261962890625
57, 0, 0, 1381.62158203125
58, 0, 0, 1393.932250976562
59, 0, 0, 1401.822143554688
60, 0, 0, 1428.385498046875
61, 0, 0, 1435.310180664062
62, 0, 0, 1446.335571289062
63, 0, 0, 1469.663208007812
64, 0, 0, 1485.744873046875
65, 0, 0, 1507.181884765625
66, 0, 0, 1523.211547851562
67, 0, 0, 1538.242065429688
68, 0, 0, 1556.101440429688
69, 0, 0, 1583.408813476562
70, 0, 0, 1603.607299804688
71, 0, 0, 1627.93359375
72, 0, 0, 1643.38232421875
73, 0, 0, 1668.781494140625
74, 0, 0, 1699.972900390625
75, 0, 0, 1726.2841796875
76, 0, 0, 1753.136352539062
77, 0, 0, 1796.322875976562
78, 0, 0, 1818.252807617188
79, 0, 0, 1861.473999023438
80, 0, 0, 1897.817626953125
81, 0, 0, 1931.311889648438
82, 0, 0, 1982.304443359375
83, 0, 0, 2029.893188476562
84, 0, 0, 2081.9921875
85, 0, 0, 2142.568603515625
86, 0, 0, 2210.33203125
87, 0, 0, 2275.29248046875
88, 0, 0, 2359.954345703125
89, 0, 0, 2447.13037109375
90, 0, 0, 2548.311767578125
91, 0, 0, 2670.016845703125
92, 0, 0, 2808.544677734375
93, 0, 0, 2979.83251953125
94, 0, 0, 3204.120361328125
95, 0, 0, 3462.44970703125
96, 0, 0, 3868.14794921875
97, 0, 0, 4476.7734375
98, 0, 0, 5012.576171875
99, 0, 0, 5495.701171875
100, 0, 0, 5155.9453125
101, 0, 0, 3949.90771484375
102, 0, 0, 2333.010009765625
103, 0, 0, 1139.123657226562
104, 0, 0, 415.1669006347656
105, 0, 0, 127.2477493286133
106, 0, 0, 72.93356323242188
107, 0, 0, 79.46412658691406
108, 0, 0, 88.60336303710938
109, 0, 0, 68.33784484863281
110, 0, 0, 62.26289367675781
111, 0, 0, 40.37836837768555
112, 0, 0, 43.35446166992188
113, 0, 0, 35.82687377929688
114, 0, 0, 40.10701370239258
115, 0, 0, 31.85477828979492
116, 0, 0, 14.83495140075684
117, 0, 0, 10.23884201049805
118, 0, 0, 0
119, 0, 0, 0
120, 0, 0, 0
121, 0, 0, 0
122, 0, 0, 0
123, 0, 0, 0
124, 0, 0, 0
125, 0, 0, 0
126, 0, 0, 0
127, 0, 0, 0
128, 0, 0, 0.001085044932551682
129, 0, 0, 0
130, 0, 0, 0
131, 0, 0, 0
132, 0, 0, 0
133, 0, 0, 0
134, 0, 0, 0
135, 0, 0, 0
136, 0, 0, 0
137, 0, 0, 0
138, 0, 0, 0
139, 0, 0, 0
140, 0, 0, 0
141, 0, 0, 0
142, 0, 0, 0
143, 0, 0, 0
144, 0, 0, 0
145, 0, 0, 0
146, 0, 0, 0
147, 0, 0, 0
148, 0, 0, 0
149, 0, 0, 0
150, 0, 0, 0
151, 0, 0, 0
152, 0, 0, 0
153, 0, 0, 0
154, 0, 0, 0
155, 0, 0, 0
156, 0, 0, 0
157, 0, 0, 0
158, 0, 0, 0
159, 0, 0, 0
160, 0, 0, 0
161, 0, 0, 0
162, 0, 0, 0
163, 0, 0, 0
164, 0, 0, 0
