# TOPAS Version: 3.3.p1
# Parameter File: Simple_Pattern.txt
# Results for scorer MLIC_Scorer
# Scored in component: MLIC
# X in 180 bins of 0.222222 cm
# Y in 1 bin  of 10 cm
# Z in 1 bin  of 10 cm
# EnergyDeposit ( MeV ) : Sum   
0, 0, 0, 104.9792251586914
1, 0, 0, 105.1108245849609
2, 0, 0, 106.6747055053711
3, 0, 0, 106.0832901000977
4, 0, 0, 106.9011001586914
5, 0, 0, 109.584228515625
6, 0, 0, 107.788200378418
7, 0, 0, 109.5958862304688
8, 0, 0, 109.4182968139648
9, 0, 0, 108.2667388916016
10, 0, 0, 110.5061340332031
11, 0, 0, 110.7741012573242
12, 0, 0, 110.6255187988281
13, 0, 0, 110.1298980712891
14, 0, 0, 113.5516357421875
15, 0, 0, 111.7544479370117
16, 0, 0, 114.1289901733398
17, 0, 0, 114.4827194213867
18, 0, 0, 117.1100158691406
19, 0, 0, 114.5334167480469
20, 0, 0, 112.8066024780273
21, 0, 0, 117.8943405151367
22, 0, 0, 119.2275390625
23, 0, 0, 115.6263885498047
24, 0, 0, 118.6878356933594
25, 0, 0, 120.2886199951172
26, 0, 0, 118.4763793945312
27, 0, 0, 117.3356781005859
28, 0, 0, 119.6869583129883
29, 0, 0, 123.8268203735352
30, 0, 0, 125.4058380126953
31, 0, 0, 125.7992553710938
32, 0, 0, 125.3770523071289
33, 0, 0, 126.5791320800781
34, 0, 0, 127.3118362426758
35, 0, 0, 127.4787902832031
36, 0, 0, 128.6051483154297
37, 0, 0, 131.5653076171875
38, 0, 0, 129.8328857421875
39, 0, 0, 131.6336669921875
40, 0, 0, 136.2445526123047
41, 0, 0, 130.5362396240234
42, 0, 0, 135.8667907714844
43, 0, 0, 134.1482696533203
44, 0, 0, 134.4752197265625
45, 0, 0, 135.7306976318359
46, 0, 0, 141.4233856201172
47, 0, 0, 139.5158233642578
48, 0, 0, 141.787353515625
49, 0, 0, 144.504638671875
50, 0, 0, 143.7894439697266
51, 0, 0, 147.2194061279297
52, 0, 0, 146.84375
53, 0, 0, 147.6237945556641
54, 0, 0, 149.2479858398438
55, 0, 0, 152.96240234375
56, 0, 0, 152.9145355224609
57, 0, 0, 153.8137664794922
58, 0, 0, 155.8635559082031
59, 0, 0, 158.0120086669922
60, 0, 0, 161.2681274414062
61, 0, 0, 163.3723297119141
62, 0, 0, 165.5971221923828
63, 0, 0, 167.0489196777344
64, 0, 0, 168.2313079833984
65, 0, 0, 171.6665191650391
66, 0, 0, 176.4658355712891
67, 0, 0, 179.8308563232422
68, 0, 0, 181.2228698730469
69, 0, 0, 184.9595489501953
70, 0, 0, 187.2173614501953
71, 0, 0, 188.5113525390625
72, 0, 0, 196.2716827392578
73, 0, 0, 197.6812438964844
74, 0, 0, 200.0709381103516
75, 0, 0, 207.6363067626953
76, 0, 0, 215.2411956787109
77, 0, 0, 220.7705078125
78, 0, 0, 224.3524932861328
79, 0, 0, 234.4814758300781
80, 0, 0, 243.2899780273438
81, 0, 0, 252.9388275146484
82, 0, 0, 260.7914123535156
83, 0, 0, 272.1560974121094
84, 0, 0, 286.9483032226562
85, 0, 0, 306.320068359375
86, 0, 0, 327.0107421875
87, 0, 0, 352.4877014160156
88, 0, 0, 392.1919555664062
89, 0, 0, 470.4039611816406
90, 0, 0, 520.5689086914062
91, 0, 0, 544.363525390625
92, 0, 0, 570.625244140625
93, 0, 0, 431.5987243652344
94, 0, 0, 244.5706787109375
95, 0, 0, 61.37429809570312
96, 0, 0, 15.4493522644043
97, 0, 0, 0
98, 0, 0, 0.04093353450298309
99, 0, 0, 0
100, 0, 0, 0
101, 0, 0, 0
102, 0, 0, 0
103, 0, 0, 0
104, 0, 0, 0
105, 0, 0, 0
106, 0, 0, 0
107, 0, 0, 0
108, 0, 0, 0
109, 0, 0, 0
110, 0, 0, 0
111, 0, 0, 0
112, 0, 0, 0
113, 0, 0, 0
114, 0, 0, 0
115, 0, 0, 0
116, 0, 0, 0
117, 0, 0, 0
118, 0, 0, 0
119, 0, 0, 0
120, 0, 0, 0
121, 0, 0, 0
122, 0, 0, 0
123, 0, 0, 0
124, 0, 0, 0
125, 0, 0, 0
126, 0, 0, 0
127, 0, 0, 0
128, 0, 0, 0
129, 0, 0, 0
130, 0, 0, 0
131, 0, 0, 0
132, 0, 0, 0
133, 0, 0, 0
134, 0, 0, 0
135, 0, 0, 0
136, 0, 0, 0
137, 0, 0, 0
138, 0, 0, 0
139, 0, 0, 0
140, 0, 0, 0
141, 0, 0, 0
142, 0, 0, 0
143, 0, 0, 0
144, 0, 0, 0
145, 0, 0, 0
146, 0, 0, 0
147, 0, 0, 0
148, 0, 0, 0
149, 0, 0, 0
150, 0, 0, 0
151, 0, 0, 0
152, 0, 0, 0
153, 0, 0, 0
154, 0, 0, 0
155, 0, 0, 0
156, 0, 0, 0
157, 0, 0, 0
158, 0, 0, 0
159, 0, 0, 0
160, 0, 0, 0
161, 0, 0, 0
162, 0, 0, 0
163, 0, 0, 0
164, 0, 0, 0
165, 0, 0, 0
166, 0, 0, 0
167, 0, 0, 0
168, 0, 0, 0
169, 0, 0, 0
170, 0, 0, 0
171, 0, 0, 0
172, 0, 0, 0
173, 0, 0, 0
174, 0, 0, 0
175, 0, 0, 0
176, 0, 0, 0
177, 0, 0, 0
178, 0, 0, 0
179, 0, 0, 0
