# TOPAS Version: 3.3.p1
# Parameter File: Simple_Pattern.txt
# Results for scorer MLIC_Scorer
# Scored in component: MLIC
# X in 180 bins of 0.222222 cm
# Y in 1 bin  of 10 cm
# Z in 1 bin  of 10 cm
# EnergyDeposit ( MeV ) : Sum   
0, 0, 0, 1140.220458984375
1, 0, 0, 1163.285522460938
2, 0, 0, 1168.910766601562
3, 0, 0, 1162.017944335938
4, 0, 0, 1173.543701171875
5, 0, 0, 1183.390991210938
6, 0, 0, 1194.637817382812
7, 0, 0, 1200.869262695312
8, 0, 0, 1199.067260742188
9, 0, 0, 1207.723266601562
10, 0, 0, 1211.895751953125
11, 0, 0, 1215.407958984375
12, 0, 0, 1225.4140625
13, 0, 0, 1228.036499023438
14, 0, 0, 1242.941162109375
15, 0, 0, 1255.194702148438
16, 0, 0, 1257.897705078125
17, 0, 0, 1263.69091796875
18, 0, 0, 1271.843994140625
19, 0, 0, 1286.4736328125
20, 0, 0, 1290.453979492188
21, 0, 0, 1292.79443359375
22, 0, 0, 1312.699829101562
23, 0, 0, 1313.244873046875
24, 0, 0, 1330.739135742188
25, 0, 0, 1341.377685546875
26, 0, 0, 1347.767700195312
27, 0, 0, 1359.917846679688
28, 0, 0, 1367.516479492188
29, 0, 0, 1373.683471679688
30, 0, 0, 1397.67578125
31, 0, 0, 1400.477416992188
32, 0, 0, 1413.828247070312
33, 0, 0, 1420.93798828125
34, 0, 0, 1440.39697265625
35, 0, 0, 1456.168334960938
36, 0, 0, 1466.408935546875
37, 0, 0, 1481.915893554688
38, 0, 0, 1492.150634765625
39, 0, 0, 1512.382202148438
40, 0, 0, 1524.54443359375
41, 0, 0, 1547.82275390625
42, 0, 0, 1564.8310546875
43, 0, 0, 1569.813842773438
44, 0, 0, 1596.00537109375
45, 0, 0, 1610.8212890625
46, 0, 0, 1639.73095703125
47, 0, 0, 1656.512451171875
48, 0, 0, 1674.650634765625
49, 0, 0, 1701.454833984375
50, 0, 0, 1720.843505859375
51, 0, 0, 1754.92822265625
52, 0, 0, 1786.304443359375
53, 0, 0, 1810.810424804688
54, 0, 0, 1842.846313476562
55, 0, 0, 1872.234497070312
56, 0, 0, 1905.927612304688
57, 0, 0, 1934.420532226562
58, 0, 0, 1975.758178710938
59, 0, 0, 2020.462646484375
60, 0, 0, 2056.77392578125
61, 0, 0, 2107.3525390625
62, 0, 0, 2153.067138671875
63, 0, 0, 2207.92724609375
64, 0, 0, 2276.235595703125
65, 0, 0, 2344.038818359375
66, 0, 0, 2416.662353515625
67, 0, 0, 2495.03369140625
68, 0, 0, 2597.7763671875
69, 0, 0, 2698.0361328125
70, 0, 0, 2824.661865234375
71, 0, 0, 2972.890869140625
72, 0, 0, 3140.239501953125
73, 0, 0, 3365.638916015625
74, 0, 0, 3639.165771484375
75, 0, 0, 4043.5283203125
76, 0, 0, 4611.2392578125
77, 0, 0, 5429.03515625
78, 0, 0, 6283.2412109375
79, 0, 0, 5971.0966796875
80, 0, 0, 4412.662109375
81, 0, 0, 2350.83544921875
82, 0, 0, 947.3590087890625
83, 0, 0, 232.1820220947266
84, 0, 0, 42.29330825805664
85, 0, 0, 36.81778717041016
86, 0, 0, 30.23260498046875
87, 0, 0, 38.49424362182617
88, 0, 0, 23.16607475280762
89, 0, 0, 3.5260009765625
90, 0, 0, 4.013177394866943
91, 0, 0, 4.586105346679688
92, 0, 0, 5.46386194229126
93, 0, 0, 7.074750423431396
94, 0, 0, 12.32077026367188
95, 0, 0, 0
96, 0, 0, 0
97, 0, 0, 0
98, 0, 0, 0
99, 0, 0, 0
100, 0, 0, 0
101, 0, 0, 0
102, 0, 0, 0
103, 0, 0, 0
104, 0, 0, 0
105, 0, 0, 0
106, 0, 0, 0
107, 0, 0, 0
108, 0, 0, 0
109, 0, 0, 0
110, 0, 0, 0
111, 0, 0, 0
112, 0, 0, 0
113, 0, 0, 0
114, 0, 0, 0
115, 0, 0, 0
116, 0, 0, 0
117, 0, 0, 0
118, 0, 0, 0
119, 0, 0, 0
120, 0, 0, 0
121, 0, 0, 0
122, 0, 0, 0
123, 0, 0, 0
124, 0, 0, 0
125, 0, 0, 0
126, 0, 0, 0
127, 0, 0, 0
128, 0, 0, 0
129, 0, 0, 0
130, 0, 0, 0
131, 0, 0, 0
132, 0, 0, 0
133, 0, 0, 0
134, 0, 0, 0
135, 0, 0, 0
136, 0, 0, 0
137, 0, 0, 0
138, 0, 0, 0
139, 0, 0, 0
140, 0, 0, 0
141, 0, 0, 0
142, 0, 0, 0
143, 0, 0, 0
144, 0, 0, 0
145, 0, 0, 0
146, 0, 0, 0
147, 0, 0, 0
148, 0, 0, 0
149, 0, 0, 0
150, 0, 0, 0
151, 0, 0, 0
152, 0, 0, 0
153, 0, 0, 0
154, 0, 0, 0
155, 0, 0, 0
156, 0, 0, 0
157, 0, 0, 0
158, 0, 0, 0
159, 0, 0, 0
160, 0, 0, 0
161, 0, 0, 0
162, 0, 0, 0
163, 0, 0, 0
164, 0, 0, 0
165, 0, 0, 0
166, 0, 0, 0
167, 0, 0, 0
168, 0, 0, 0
169, 0, 0, 0
170, 0, 0, 0
171, 0, 0, 0
172, 0, 0, 0
173, 0, 0, 0
174, 0, 0, 0
175, 0, 0, 0
176, 0, 0, 0
177, 0, 0, 0
178, 0, 0, 0
179, 0, 0, 0
