# TOPAS Version: 3.3.p1
# Parameter File: Simple_Pattern.txt
# Results for scorer MLIC_Scorer
# Scored in component: MLIC
# X in 180 bins of 0.222222 cm
# Y in 1 bin  of 10 cm
# Z in 1 bin  of 10 cm
# EnergyDeposit ( MeV ) : Sum   
0, 0, 0, 85.05673217773438
1, 0, 0, 87.77949523925781
2, 0, 0, 86.90053558349609
3, 0, 0, 87.80529022216797
4, 0, 0, 87.47047424316406
5, 0, 0, 90.94960784912109
6, 0, 0, 88.00430297851562
7, 0, 0, 90.77085876464844
8, 0, 0, 93.6405029296875
9, 0, 0, 91.57112121582031
10, 0, 0, 89.9622802734375
11, 0, 0, 90.27606201171875
12, 0, 0, 92.61219024658203
13, 0, 0, 91.60432434082031
14, 0, 0, 93.78436279296875
15, 0, 0, 94.41470336914062
16, 0, 0, 96.86568450927734
17, 0, 0, 95.46044921875
18, 0, 0, 94.181640625
19, 0, 0, 94.87468719482422
20, 0, 0, 98.76593780517578
21, 0, 0, 99.64968109130859
22, 0, 0, 98.00736999511719
23, 0, 0, 99.25650787353516
24, 0, 0, 98.254150390625
25, 0, 0, 100.0913009643555
26, 0, 0, 100.7708129882812
27, 0, 0, 99.61636352539062
28, 0, 0, 103.3933563232422
29, 0, 0, 105.5362548828125
30, 0, 0, 105.3160018920898
31, 0, 0, 104.7517929077148
32, 0, 0, 103.942741394043
33, 0, 0, 107.8583755493164
34, 0, 0, 107.3905334472656
35, 0, 0, 108.5837707519531
36, 0, 0, 110.512321472168
37, 0, 0, 112.6622772216797
38, 0, 0, 110.922248840332
39, 0, 0, 112.6773223876953
40, 0, 0, 114.7184600830078
41, 0, 0, 116.9584045410156
42, 0, 0, 115.7908935546875
43, 0, 0, 117.0092315673828
44, 0, 0, 119.3774795532227
45, 0, 0, 120.4392776489258
46, 0, 0, 122.1867904663086
47, 0, 0, 125.0813446044922
48, 0, 0, 126.6056213378906
49, 0, 0, 127.4627456665039
50, 0, 0, 126.2782211303711
51, 0, 0, 133.7130584716797
52, 0, 0, 132.8804626464844
53, 0, 0, 136.0971069335938
54, 0, 0, 138.6251525878906
55, 0, 0, 141.0382843017578
56, 0, 0, 144.2972412109375
57, 0, 0, 145.0404968261719
58, 0, 0, 146.3470153808594
59, 0, 0, 152.5479278564453
60, 0, 0, 155.6106414794922
61, 0, 0, 159.158935546875
62, 0, 0, 162.0540924072266
63, 0, 0, 164.1317443847656
64, 0, 0, 170.8328094482422
65, 0, 0, 177.6123199462891
66, 0, 0, 182.4285888671875
67, 0, 0, 186.6847229003906
68, 0, 0, 194.1408843994141
69, 0, 0, 203.0438537597656
70, 0, 0, 213.4296417236328
71, 0, 0, 221.5130615234375
72, 0, 0, 238.1735382080078
73, 0, 0, 254.6461029052734
74, 0, 0, 272.4120788574219
75, 0, 0, 303.6152038574219
76, 0, 0, 346.1614379882812
77, 0, 0, 422.2434692382812
78, 0, 0, 492.1897277832031
79, 0, 0, 467.5365600585938
80, 0, 0, 282.3735961914062
81, 0, 0, 150.9860382080078
82, 0, 0, 43.4220085144043
83, 0, 0, 10.15468120574951
84, 0, 0, 13.52428245544434
85, 0, 0, 2.637492418289185
86, 0, 0, 3.059277296066284
87, 0, 0, 3.313563346862793
88, 0, 0, 3.561904430389404
89, 0, 0, 3.526003360748291
90, 0, 0, 4.013180255889893
91, 0, 0, 4.58611011505127
92, 0, 0, 5.463869571685791
93, 0, 0, 7.074771404266357
94, 0, 0, 12.32070350646973
95, 0, 0, 0
96, 0, 0, 0
97, 0, 0, 0
98, 0, 0, 0
99, 0, 0, 0
100, 0, 0, 0
101, 0, 0, 0
102, 0, 0, 0
103, 0, 0, 0
104, 0, 0, 0
105, 0, 0, 0
106, 0, 0, 0
107, 0, 0, 0
108, 0, 0, 0
109, 0, 0, 0
110, 0, 0, 0
111, 0, 0, 0
112, 0, 0, 0
113, 0, 0, 0
114, 0, 0, 0
115, 0, 0, 0
116, 0, 0, 0
117, 0, 0, 0
118, 0, 0, 0
119, 0, 0, 0
120, 0, 0, 0
121, 0, 0, 0
122, 0, 0, 0
123, 0, 0, 0
124, 0, 0, 0
125, 0, 0, 0
126, 0, 0, 0
127, 0, 0, 0
128, 0, 0, 0
129, 0, 0, 0
130, 0, 0, 0
131, 0, 0, 0
132, 0, 0, 0
133, 0, 0, 0
134, 0, 0, 0
135, 0, 0, 0
136, 0, 0, 0
137, 0, 0, 0
138, 0, 0, 0
139, 0, 0, 0
140, 0, 0, 0
141, 0, 0, 0
142, 0, 0, 0
143, 0, 0, 0
144, 0, 0, 0
145, 0, 0, 0
146, 0, 0, 0
147, 0, 0, 0
148, 0, 0, 0
149, 0, 0, 0
150, 0, 0, 0
151, 0, 0, 0
152, 0, 0, 0
153, 0, 0, 0
154, 0, 0, 0
155, 0, 0, 0
156, 0, 0, 0
157, 0, 0, 0
158, 0, 0, 0
159, 0, 0, 0
160, 0, 0, 0
161, 0, 0, 0
162, 0, 0, 0
163, 0, 0, 0
164, 0, 0, 0
165, 0, 0, 0
166, 0, 0, 0
167, 0, 0, 0
168, 0, 0, 0
169, 0, 0, 0
170, 0, 0, 0
171, 0, 0, 0
172, 0, 0, 0
173, 0, 0, 0
174, 0, 0, 0
175, 0, 0, 0
176, 0, 0, 0
177, 0, 0, 0
178, 0, 0, 0
179, 0, 0, 0
