# TOPAS Version: 3.3.p1
# Parameter File: Simple_Pattern.txt
# Results for scorer MLIC_Scorer
# Scored in component: MLIC
# X in 180 bins of 0.222222 cm
# Y in 1 bin  of 10 cm
# Z in 1 bin  of 10 cm
# EnergyDeposit ( MeV ) : Sum   
0, 0, 0, 1088.57421875
1, 0, 0, 1088.42529296875
2, 0, 0, 1094.752075195312
3, 0, 0, 1100.151733398438
4, 0, 0, 1099.716430664062
5, 0, 0, 1124.302978515625
6, 0, 0, 1116.907104492188
7, 0, 0, 1126.464721679688
8, 0, 0, 1125.5458984375
9, 0, 0, 1126.058471679688
10, 0, 0, 1133.986572265625
11, 0, 0, 1137.090209960938
12, 0, 0, 1152.162109375
13, 0, 0, 1155.67724609375
14, 0, 0, 1161.938598632812
15, 0, 0, 1164.478515625
16, 0, 0, 1160.47900390625
17, 0, 0, 1185.544921875
18, 0, 0, 1176.84716796875
19, 0, 0, 1186.245727539062
20, 0, 0, 1192.643310546875
21, 0, 0, 1203.075805664062
22, 0, 0, 1206.13916015625
23, 0, 0, 1213.075927734375
24, 0, 0, 1229.460083007812
25, 0, 0, 1230.396118164062
26, 0, 0, 1232.214477539062
27, 0, 0, 1246.717041015625
28, 0, 0, 1253.721801757812
29, 0, 0, 1253.72998046875
30, 0, 0, 1264.901245117188
31, 0, 0, 1280.526977539062
32, 0, 0, 1289.827270507812
33, 0, 0, 1289.434936523438
34, 0, 0, 1296.543701171875
35, 0, 0, 1315.561767578125
36, 0, 0, 1311.583374023438
37, 0, 0, 1331.582763671875
38, 0, 0, 1335.2978515625
39, 0, 0, 1351.8466796875
40, 0, 0, 1358.642211914062
41, 0, 0, 1364.760375976562
42, 0, 0, 1367.695434570312
43, 0, 0, 1391.370971679688
44, 0, 0, 1402.020751953125
45, 0, 0, 1416.311889648438
46, 0, 0, 1429.808715820312
47, 0, 0, 1438.131225585938
48, 0, 0, 1454.44384765625
49, 0, 0, 1468.629638671875
50, 0, 0, 1481.100341796875
51, 0, 0, 1492.45654296875
52, 0, 0, 1511.933349609375
53, 0, 0, 1522.980590820312
54, 0, 0, 1549.5029296875
55, 0, 0, 1571.621948242188
56, 0, 0, 1584.43603515625
57, 0, 0, 1597.352294921875
58, 0, 0, 1628.830444335938
59, 0, 0, 1642.830444335938
60, 0, 0, 1658.734619140625
61, 0, 0, 1687.917358398438
62, 0, 0, 1700.754760742188
63, 0, 0, 1722.401977539062
64, 0, 0, 1754.207275390625
65, 0, 0, 1778.943603515625
66, 0, 0, 1813.206665039062
67, 0, 0, 1837.17138671875
68, 0, 0, 1869.495849609375
69, 0, 0, 1895.59521484375
70, 0, 0, 1938.168579101562
71, 0, 0, 1981.232421875
72, 0, 0, 2017.496337890625
73, 0, 0, 2062.640625
74, 0, 0, 2111.8427734375
75, 0, 0, 2160.0302734375
76, 0, 0, 2219.638916015625
77, 0, 0, 2278.7841796875
78, 0, 0, 2342.414794921875
79, 0, 0, 2422.29345703125
80, 0, 0, 2499.3916015625
81, 0, 0, 2597.76513671875
82, 0, 0, 2704.421142578125
83, 0, 0, 2832.3564453125
84, 0, 0, 2982.970947265625
85, 0, 0, 3162.6845703125
86, 0, 0, 3376.518798828125
87, 0, 0, 3663.66845703125
88, 0, 0, 4087.530517578125
89, 0, 0, 4706.99365234375
90, 0, 0, 5484.64111328125
91, 0, 0, 6161.59130859375
92, 0, 0, 5811.49560546875
93, 0, 0, 4336.1181640625
94, 0, 0, 2183.117919921875
95, 0, 0, 766.7503051757812
96, 0, 0, 104.9896392822266
97, 0, 0, 17.0015926361084
98, 0, 0, 0
99, 0, 0, 0
100, 0, 0, 0
101, 0, 0, 0
102, 0, 0, 0
103, 0, 0, 0.005022852215915918
104, 0, 0, 0
105, 0, 0, 0
106, 0, 0, 0
107, 0, 0, 0
108, 0, 0, 0.00618983106687665
109, 0, 0, 0
110, 0, 0, 0.01812649890780449
111, 0, 0, 0
112, 0, 0, 0.04967671632766724
113, 0, 0, 0
114, 0, 0, 0
115, 0, 0, 0
116, 0, 0, 0
117, 0, 0, 0
118, 0, 0, 0.001461665262468159
119, 0, 0, 0.001183795160613954
120, 0, 0, 0.003954173531383276
121, 0, 0, 0.02958547696471214
122, 0, 0, 0
123, 0, 0, 0.03474292531609535
124, 0, 0, 0
125, 0, 0, 0.00240392773412168
126, 0, 0, 0.005685131996870041
127, 0, 0, 0
128, 0, 0, 0
129, 0, 0, 0.005548732820898294
130, 0, 0, 0
131, 0, 0, 0
132, 0, 0, 0
133, 0, 0, 0
134, 0, 0, 0
135, 0, 0, 0
136, 0, 0, 0
137, 0, 0, 0.01213078387081623
138, 0, 0, 0
139, 0, 0, 0
140, 0, 0, 0.0120657728984952
141, 0, 0, 0
142, 0, 0, 0.007228021509945393
143, 0, 0, 0.02713889628648758
144, 0, 0, 0
145, 0, 0, 0
146, 0, 0, 0
147, 0, 0, 0.01069964654743671
148, 0, 0, 0
149, 0, 0, 0
150, 0, 0, 0
151, 0, 0, 0
152, 0, 0, 0
153, 0, 0, 0
154, 0, 0, 0
155, 0, 0, 0
156, 0, 0, 0
157, 0, 0, 0
158, 0, 0, 0
159, 0, 0, 0.02226521261036396
160, 0, 0, 0
161, 0, 0, 0
162, 0, 0, 0
163, 0, 0, 0
164, 0, 0, 0
165, 0, 0, 0
166, 0, 0, 0.002543049398809671
167, 0, 0, 0.002387816086411476
168, 0, 0, 0
169, 0, 0, 0
170, 0, 0, 0.003080517053604126
171, 0, 0, 0
172, 0, 0, 0.004156984388828278
173, 0, 0, 0
174, 0, 0, 0
175, 0, 0, 0
176, 0, 0, 0
177, 0, 0, 0
178, 0, 0, 0
179, 0, 0, 0
