# TOPAS Version: 3.3.p1
# Parameter File: Simple_Pattern.txt
# Results for scorer MLIC_Scorer
# Scored in component: MLIC
# X in 180 bins of 0.222222 cm
# Y in 1 bin  of 10 cm
# Z in 1 bin  of 10 cm
# EnergyDeposit ( MeV ) : Sum   
0, 0, 0, 1120.781005859375
1, 0, 0, 1120.870849609375
2, 0, 0, 1133.12744140625
3, 0, 0, 1142.177856445312
4, 0, 0, 1137.7958984375
5, 0, 0, 1136.017944335938
6, 0, 0, 1146.539306640625
7, 0, 0, 1151.60498046875
8, 0, 0, 1153.626220703125
9, 0, 0, 1171.64892578125
10, 0, 0, 1171.129272460938
11, 0, 0, 1182.985595703125
12, 0, 0, 1190.297119140625
13, 0, 0, 1188.817626953125
14, 0, 0, 1196.401123046875
15, 0, 0, 1195.1630859375
16, 0, 0, 1210.017578125
17, 0, 0, 1215.203125
18, 0, 0, 1224.65625
19, 0, 0, 1226.423828125
20, 0, 0, 1247.323608398438
21, 0, 0, 1247.588134765625
22, 0, 0, 1254.234985351562
23, 0, 0, 1258.817016601562
24, 0, 0, 1261.810180664062
25, 0, 0, 1282.218994140625
26, 0, 0, 1290.159545898438
27, 0, 0, 1293.901245117188
28, 0, 0, 1301.857421875
29, 0, 0, 1310.303100585938
30, 0, 0, 1313.482299804688
31, 0, 0, 1334.789428710938
32, 0, 0, 1346.001342773438
33, 0, 0, 1361.79150390625
34, 0, 0, 1364.473266601562
35, 0, 0, 1374.567138671875
36, 0, 0, 1380.645629882812
37, 0, 0, 1407.128295898438
38, 0, 0, 1420.860717773438
39, 0, 0, 1418.451049804688
40, 0, 0, 1426.509765625
41, 0, 0, 1445.406372070312
42, 0, 0, 1458.293701171875
43, 0, 0, 1482.76171875
44, 0, 0, 1492.220336914062
45, 0, 0, 1503.101928710938
46, 0, 0, 1519.863159179688
47, 0, 0, 1540.206909179688
48, 0, 0, 1561.9033203125
49, 0, 0, 1573.203247070312
50, 0, 0, 1587.014526367188
51, 0, 0, 1609.617431640625
52, 0, 0, 1634.414184570312
53, 0, 0, 1655.696411132812
54, 0, 0, 1676.115478515625
55, 0, 0, 1703.90625
56, 0, 0, 1726.907836914062
57, 0, 0, 1757.238891601562
58, 0, 0, 1790.691650390625
59, 0, 0, 1807.405029296875
60, 0, 0, 1846.132568359375
61, 0, 0, 1881.384643554688
62, 0, 0, 1911.402587890625
63, 0, 0, 1942.281494140625
64, 0, 0, 1985.507568359375
65, 0, 0, 2032.901123046875
66, 0, 0, 2076.01171875
67, 0, 0, 2128.050537109375
68, 0, 0, 2190.062744140625
69, 0, 0, 2258.4169921875
70, 0, 0, 2338.254638671875
71, 0, 0, 2425.586669921875
72, 0, 0, 2516.03759765625
73, 0, 0, 2641.0478515625
74, 0, 0, 2791.94140625
75, 0, 0, 2998.322998046875
76, 0, 0, 3283.79296875
77, 0, 0, 3638.19970703125
78, 0, 0, 3991.044921875
79, 0, 0, 4135.98681640625
80, 0, 0, 3585.439697265625
81, 0, 0, 2682.774169921875
82, 0, 0, 2004.68408203125
83, 0, 0, 1680.280029296875
84, 0, 0, 1686.457885742188
85, 0, 0, 1786.009887695312
86, 0, 0, 1881.115356445312
87, 0, 0, 1986.595703125
88, 0, 0, 2196.7802734375
89, 0, 0, 2498.328369140625
90, 0, 0, 2888.484375
91, 0, 0, 3372.63720703125
92, 0, 0, 3108.28857421875
93, 0, 0, 2296.31494140625
94, 0, 0, 1156.677001953125
95, 0, 0, 325.3274536132812
96, 0, 0, 73.59048461914062
97, 0, 0, 0
98, 0, 0, 0
99, 0, 0, 0
100, 0, 0, 0
101, 0, 0, 0
102, 0, 0, 0
103, 0, 0, 0
104, 0, 0, 0
105, 0, 0, 0
106, 0, 0, 0
107, 0, 0, 0.000996703514829278
108, 0, 0, 0
109, 0, 0, 0
110, 0, 0, 0
111, 0, 0, 0
112, 0, 0, 0
113, 0, 0, 0
114, 0, 0, 0
115, 0, 0, 0
116, 0, 0, 0
117, 0, 0, 0
118, 0, 0, 0
119, 0, 0, 0
120, 0, 0, 0
121, 0, 0, 0
122, 0, 0, 0
123, 0, 0, 0
124, 0, 0, 0
125, 0, 0, 0
126, 0, 0, 0
127, 0, 0, 0
128, 0, 0, 0
129, 0, 0, 0
130, 0, 0, 0
131, 0, 0, 0
132, 0, 0, 0
133, 0, 0, 0
134, 0, 0, 0
135, 0, 0, 0
136, 0, 0, 0
137, 0, 0, 0
138, 0, 0, 0
139, 0, 0, 0
140, 0, 0, 0
141, 0, 0, 0
142, 0, 0, 0
143, 0, 0, 0
144, 0, 0, 0
145, 0, 0, 0
146, 0, 0, 0
147, 0, 0, 0
148, 0, 0, 0
149, 0, 0, 0
150, 0, 0, 0
151, 0, 0, 0
152, 0, 0, 0
153, 0, 0, 0
154, 0, 0, 0
155, 0, 0, 0
156, 0, 0, 0
157, 0, 0, 0
158, 0, 0, 0
159, 0, 0, 0
160, 0, 0, 0
161, 0, 0, 0
162, 0, 0, 0
163, 0, 0, 0
164, 0, 0, 0
165, 0, 0, 0
166, 0, 0, 0
167, 0, 0, 0
168, 0, 0, 0
169, 0, 0, 0
170, 0, 0, 0
171, 0, 0, 0
172, 0, 0, 0
173, 0, 0, 0
174, 0, 0, 0
175, 0, 0, 0
176, 0, 0, 0
177, 0, 0, 0
178, 0, 0, 0
179, 0, 0, 0
