# TOPAS Version: 3.3.p1
# Parameter File: Simple_Pattern.txt
# Results for scorer MLIC_Scorer
# Scored in component: MLIC
# X in 165 bins of 0.2 cm
# Y in 1 bin  of 10 cm
# Z in 1 bin  of 10 cm
# EnergyDeposit ( MeV ) : Sum   
0, 0, 0, 0
1, 0, 0, 0
2, 0, 0, 0
3, 0, 0, 0
4, 0, 0, 0
5, 0, 0, 0
6, 0, 0, 0
7, 0, 0, 0
8, 0, 0, 0
9, 0, 0, 0
10, 0, 0, 0
11, 0, 0, 0
12, 0, 0, 0
13, 0, 0, 0.01162285078316927
14, 0, 0, 0
15, 0, 0, 0
16, 0, 0, 0
17, 0, 0, 0
18, 0, 0, 0
19, 0, 0, 0
20, 0, 0, 0
21, 0, 0, 0
22, 0, 0, 0
23, 0, 0, 0.005313199479132891
24, 0, 0, 0
25, 0, 0, 0
26, 0, 0, 0.001775185344740748
27, 0, 0, 0.002649403410032392
28, 0, 0, 0
29, 0, 0, 0
30, 0, 0, 0.003351350082084537
31, 0, 0, 0.0005732293939217925
32, 0, 0, 0.007069726008921862
33, 0, 0, 0
34, 0, 0, 0
35, 0, 0, 0
36, 0, 0, 0
37, 0, 0, 0
38, 0, 0, 0
39, 0, 0, 0
40, 0, 0, 0
41, 0, 0, 0
42, 0, 0, 0
43, 0, 0, 6.017340660095215
44, 0, 0, 46.66230773925781
45, 0, 0, 215.7381286621094
46, 0, 0, 572.3849487304688
47, 0, 0, 1550.317504882812
48, 0, 0, 3211.741455078125
49, 0, 0, 4750.74560546875
50, 0, 0, 5282.94775390625
51, 0, 0, 5089.07421875
52, 0, 0, 4840.421875
53, 0, 0, 4273.73779296875
54, 0, 0, 3738.242431640625
55, 0, 0, 3374.11669921875
56, 0, 0, 3124.080322265625
57, 0, 0, 2924.475830078125
58, 0, 0, 2759.892333984375
59, 0, 0, 2623.6455078125
60, 0, 0, 2511.521240234375
61, 0, 0, 2411.15673828125
62, 0, 0, 2327.628662109375
63, 0, 0, 2258.44775390625
64, 0, 0, 2182.657958984375
65, 0, 0, 2122.883056640625
66, 0, 0, 2065.210205078125
67, 0, 0, 2012.703979492188
68, 0, 0, 1974.107666015625
69, 0, 0, 1929.408203125
70, 0, 0, 1881.400268554688
71, 0, 0, 1848.096313476562
72, 0, 0, 1804.962646484375
73, 0, 0, 1786.3916015625
74, 0, 0, 1752.384521484375
75, 0, 0, 1712.748168945312
76, 0, 0, 1691.167114257812
77, 0, 0, 1662.201538085938
78, 0, 0, 1635.523315429688
79, 0, 0, 1614.3544921875
80, 0, 0, 1595.927001953125
81, 0, 0, 1579.928833007812
82, 0, 0, 1552.701293945312
83, 0, 0, 1526.79736328125
84, 0, 0, 1523.616821289062
85, 0, 0, 1495.02734375
86, 0, 0, 1473.956787109375
87, 0, 0, 1458.233642578125
88, 0, 0, 1445.525268554688
89, 0, 0, 1418.36962890625
90, 0, 0, 1413.2392578125
91, 0, 0, 1400.981079101562
92, 0, 0, 1397.720458984375
93, 0, 0, 1372.334106445312
94, 0, 0, 1365.172729492188
95, 0, 0, 1345.706420898438
96, 0, 0, 1338.249633789062
97, 0, 0, 1337.196533203125
98, 0, 0, 1318.599975585938
99, 0, 0, 1308.51806640625
100, 0, 0, 1296.006591796875
101, 0, 0, 1276.120239257812
102, 0, 0, 1272.298217773438
103, 0, 0, 1253.114135742188
104, 0, 0, 1250.430541992188
105, 0, 0, 1251.418212890625
106, 0, 0, 1241.560180664062
107, 0, 0, 1227.365478515625
108, 0, 0, 1215.57763671875
109, 0, 0, 1208.599365234375
110, 0, 0, 1199.56201171875
111, 0, 0, 1194.927490234375
112, 0, 0, 1194.3662109375
113, 0, 0, 1169.77880859375
114, 0, 0, 1170.43798828125
115, 0, 0, 1162.577514648438
116, 0, 0, 1153.696044921875
117, 0, 0, 1141.90283203125
118, 0, 0, 1145.945922851562
119, 0, 0, 1138.935302734375
120, 0, 0, 1130.10986328125
121, 0, 0, 1120.809692382812
122, 0, 0, 1119.035522460938
123, 0, 0, 1110.171997070312
124, 0, 0, 1107.258911132812
125, 0, 0, 1103.10400390625
126, 0, 0, 1097.495239257812
127, 0, 0, 1089.93505859375
128, 0, 0, 1077.847045898438
129, 0, 0, 1084.185424804688
130, 0, 0, 1082.497314453125
131, 0, 0, 1069.576782226562
132, 0, 0, 1063.557495117188
133, 0, 0, 1064.33349609375
134, 0, 0, 1057.985229492188
135, 0, 0, 1048.777099609375
136, 0, 0, 1046.871215820312
137, 0, 0, 1037.708618164062
138, 0, 0, 1038.668334960938
139, 0, 0, 1030.043334960938
140, 0, 0, 1026.908081054688
141, 0, 0, 1025.62158203125
142, 0, 0, 1020.455261230469
143, 0, 0, 1013.984252929688
144, 0, 0, 1012.583740234375
145, 0, 0, 1003.372131347656
146, 0, 0, 1001.876770019531
147, 0, 0, 995.5728149414062
148, 0, 0, 993.8237915039062
149, 0, 0, 986.64892578125
150, 0, 0, 974.2120361328125
151, 0, 0, 981.1996459960938
152, 0, 0, 976.6105346679688
153, 0, 0, 974.6235961914062
154, 0, 0, 968.8262939453125
155, 0, 0, 964.5643310546875
156, 0, 0, 963.306396484375
157, 0, 0, 962.2144775390625
158, 0, 0, 947.7701416015625
159, 0, 0, 953.1392822265625
160, 0, 0, 953.4270629882812
161, 0, 0, 939.6423950195312
162, 0, 0, 948.1278076171875
163, 0, 0, 939.0287475585938
164, 0, 0, 939.2719116210938
