# TOPAS Version: 3.3.p1
# Parameter File: Simple_Pattern.txt
# Results for scorer MLIC_Scorer
# Scored in component: MLIC
# X in 180 bins of 0.222222 cm
# Y in 1 bin  of 10 cm
# Z in 1 bin  of 10 cm
# EnergyDeposit ( MeV ) : Sum   
0, 0, 0, 90.71514129638672
1, 0, 0, 91.01880645751953
2, 0, 0, 91.33905792236328
3, 0, 0, 95.01439666748047
4, 0, 0, 95.97662353515625
5, 0, 0, 93.34558868408203
6, 0, 0, 96.01421356201172
7, 0, 0, 94.21114349365234
8, 0, 0, 95.8369140625
9, 0, 0, 96.23651885986328
10, 0, 0, 96.39869689941406
11, 0, 0, 95.93971252441406
12, 0, 0, 95.51940155029297
13, 0, 0, 98.43545532226562
14, 0, 0, 98.12593078613281
15, 0, 0, 98.69850158691406
16, 0, 0, 98.32128143310547
17, 0, 0, 100.9243469238281
18, 0, 0, 99.40469360351562
19, 0, 0, 101.3061981201172
20, 0, 0, 100.0174942016602
21, 0, 0, 100.6870727539062
22, 0, 0, 100.5999908447266
23, 0, 0, 101.3967437744141
24, 0, 0, 105.6196441650391
25, 0, 0, 105.0900802612305
26, 0, 0, 104.504524230957
27, 0, 0, 104.9800262451172
28, 0, 0, 105.5944976806641
29, 0, 0, 106.8046722412109
30, 0, 0, 106.252799987793
31, 0, 0, 108.2976226806641
32, 0, 0, 110.5950698852539
33, 0, 0, 110.6572723388672
34, 0, 0, 110.4640045166016
35, 0, 0, 110.5974807739258
36, 0, 0, 111.4941558837891
37, 0, 0, 112.5663528442383
38, 0, 0, 113.7694854736328
39, 0, 0, 114.9885940551758
40, 0, 0, 116.8557586669922
41, 0, 0, 118.2070541381836
42, 0, 0, 118.7149047851562
43, 0, 0, 120.4534759521484
44, 0, 0, 118.4849853515625
45, 0, 0, 122.0046234130859
46, 0, 0, 120.0914459228516
47, 0, 0, 124.2670211791992
48, 0, 0, 124.2323379516602
49, 0, 0, 125.5667114257812
50, 0, 0, 124.7289962768555
51, 0, 0, 127.3622436523438
52, 0, 0, 129.1452026367188
53, 0, 0, 129.8760833740234
54, 0, 0, 129.9457550048828
55, 0, 0, 130.9218292236328
56, 0, 0, 134.8207550048828
57, 0, 0, 135.3799591064453
58, 0, 0, 138.3572692871094
59, 0, 0, 136.0737915039062
60, 0, 0, 138.7664947509766
61, 0, 0, 144.9861450195312
62, 0, 0, 142.3946533203125
63, 0, 0, 143.9253997802734
64, 0, 0, 149.0420837402344
65, 0, 0, 149.4635620117188
66, 0, 0, 151.7953338623047
67, 0, 0, 154.7086791992188
68, 0, 0, 157.8771667480469
69, 0, 0, 162.07861328125
70, 0, 0, 163.4461212158203
71, 0, 0, 166.1263122558594
72, 0, 0, 168.4295043945312
73, 0, 0, 173.1553649902344
74, 0, 0, 175.2291564941406
75, 0, 0, 179.4007568359375
76, 0, 0, 185.1609954833984
77, 0, 0, 190.6470336914062
78, 0, 0, 194.8139953613281
79, 0, 0, 200.3873138427734
80, 0, 0, 208.4013824462891
81, 0, 0, 216.0116424560547
82, 0, 0, 223.77001953125
83, 0, 0, 234.7451629638672
84, 0, 0, 244.2838592529297
85, 0, 0, 256.6388549804688
86, 0, 0, 274.1463928222656
87, 0, 0, 297.2913818359375
88, 0, 0, 328.5762634277344
89, 0, 0, 374.55712890625
90, 0, 0, 447.6758117675781
91, 0, 0, 442.0984802246094
92, 0, 0, 474.4727172851562
93, 0, 0, 412.5834045410156
94, 0, 0, 253.1201171875
95, 0, 0, 137.5721588134766
96, 0, 0, 28.96615600585938
97, 0, 0, 0
98, 0, 0, 0
99, 0, 0, 0
100, 0, 0, 0
101, 0, 0, 0
102, 0, 0, 0
103, 0, 0, 0
104, 0, 0, 0
105, 0, 0, 0
106, 0, 0, 0
107, 0, 0, 0
108, 0, 0, 0
109, 0, 0, 0
110, 0, 0, 0.006303984671831131
111, 0, 0, 0
112, 0, 0, 0
113, 0, 0, 0
114, 0, 0, 0
115, 0, 0, 0
116, 0, 0, 0
117, 0, 0, 0
118, 0, 0, 0
119, 0, 0, 0
120, 0, 0, 0
121, 0, 0, 0
122, 0, 0, 0
123, 0, 0, 0
124, 0, 0, 0
125, 0, 0, 0
126, 0, 0, 0
127, 0, 0, 0
128, 0, 0, 0
129, 0, 0, 0
130, 0, 0, 0
131, 0, 0, 0
132, 0, 0, 0
133, 0, 0, 0
134, 0, 0, 0
135, 0, 0, 0
136, 0, 0, 0
137, 0, 0, 0
138, 0, 0, 0
139, 0, 0, 0
140, 0, 0, 0
141, 0, 0, 0
142, 0, 0, 0
143, 0, 0, 0
144, 0, 0, 0
145, 0, 0, 0
146, 0, 0, 0
147, 0, 0, 0
148, 0, 0, 0
149, 0, 0, 0
150, 0, 0, 0
151, 0, 0, 0
152, 0, 0, 0
153, 0, 0, 0
154, 0, 0, 0
155, 0, 0, 0
156, 0, 0, 0
157, 0, 0, 0
158, 0, 0, 0
159, 0, 0, 0
160, 0, 0, 0
161, 0, 0, 0
162, 0, 0, 0
163, 0, 0, 0
164, 0, 0, 0
165, 0, 0, 0
166, 0, 0, 0
167, 0, 0, 0
168, 0, 0, 0
169, 0, 0, 0
170, 0, 0, 0
171, 0, 0, 0
172, 0, 0, 0
173, 0, 0, 0
174, 0, 0, 0
175, 0, 0, 0
176, 0, 0, 0
177, 0, 0, 0
178, 0, 0, 0
179, 0, 0, 0
