# TOPAS Version: 3.3.p1
# Parameter File: Simple_Pattern.txt
# Results for scorer MLIC_Scorer
# Scored in component: MLIC
# X in 180 bins of 0.222222 cm
# Y in 1 bin  of 10 cm
# Z in 1 bin  of 10 cm
# EnergyDeposit ( MeV ) : Sum   
0, 0, 0, 60.89503860473633
1, 0, 0, 61.21753311157227
2, 0, 0, 61.28365325927734
3, 0, 0, 61.66536331176758
4, 0, 0, 61.31673431396484
5, 0, 0, 62.51501083374023
6, 0, 0, 64.06086730957031
7, 0, 0, 63.22339630126953
8, 0, 0, 61.76584625244141
9, 0, 0, 65.54050445556641
10, 0, 0, 64.14501953125
11, 0, 0, 65.00677490234375
12, 0, 0, 63.3590202331543
13, 0, 0, 63.76683807373047
14, 0, 0, 64.25026702880859
15, 0, 0, 63.37111663818359
16, 0, 0, 64.62942504882812
17, 0, 0, 65.74163055419922
18, 0, 0, 68.09073638916016
19, 0, 0, 67.76634216308594
20, 0, 0, 66.01193237304688
21, 0, 0, 66.87713623046875
22, 0, 0, 68.25204467773438
23, 0, 0, 67.49053955078125
24, 0, 0, 69.82991790771484
25, 0, 0, 69.29769134521484
26, 0, 0, 69.35840606689453
27, 0, 0, 69.00006103515625
28, 0, 0, 71.17874145507812
29, 0, 0, 69.82042694091797
30, 0, 0, 72.45050811767578
31, 0, 0, 70.78225708007812
32, 0, 0, 74.0771484375
33, 0, 0, 74.66873931884766
34, 0, 0, 73.35847473144531
35, 0, 0, 73.88570404052734
36, 0, 0, 72.56427001953125
37, 0, 0, 73.77287292480469
38, 0, 0, 73.56147003173828
39, 0, 0, 74.34432983398438
40, 0, 0, 76.66780853271484
41, 0, 0, 75.43180847167969
42, 0, 0, 78.18428802490234
43, 0, 0, 77.5960693359375
44, 0, 0, 77.14691162109375
45, 0, 0, 78.49878692626953
46, 0, 0, 80.00176239013672
47, 0, 0, 79.40476989746094
48, 0, 0, 79.68862915039062
49, 0, 0, 83.67575836181641
50, 0, 0, 81.69493103027344
51, 0, 0, 83.67721557617188
52, 0, 0, 84.69625091552734
53, 0, 0, 86.47467803955078
54, 0, 0, 87.50145721435547
55, 0, 0, 88.03859710693359
56, 0, 0, 87.39313507080078
57, 0, 0, 89.36800384521484
58, 0, 0, 89.94825744628906
59, 0, 0, 91.58992004394531
60, 0, 0, 92.62241363525391
61, 0, 0, 93.05171966552734
62, 0, 0, 95.81208038330078
63, 0, 0, 95.61517333984375
64, 0, 0, 98.45074462890625
65, 0, 0, 97.34886169433594
66, 0, 0, 100.4849166870117
67, 0, 0, 105.2729873657227
68, 0, 0, 103.0740127563477
69, 0, 0, 106.9802093505859
70, 0, 0, 109.8114318847656
71, 0, 0, 111.1744766235352
72, 0, 0, 112.9814834594727
73, 0, 0, 115.1242294311523
74, 0, 0, 115.6405563354492
75, 0, 0, 119.7299728393555
76, 0, 0, 124.4375762939453
77, 0, 0, 126.678840637207
78, 0, 0, 131.5254211425781
79, 0, 0, 134.0014953613281
80, 0, 0, 138.4040069580078
81, 0, 0, 145.0009613037109
82, 0, 0, 148.1973419189453
83, 0, 0, 156.1708068847656
84, 0, 0, 164.4792785644531
85, 0, 0, 173.4605560302734
86, 0, 0, 184.5240783691406
87, 0, 0, 199.7840576171875
88, 0, 0, 220.4639892578125
89, 0, 0, 246.1698303222656
90, 0, 0, 285.9379272460938
91, 0, 0, 341.2337646484375
92, 0, 0, 368.6892395019531
93, 0, 0, 292.2049255371094
94, 0, 0, 168.5510711669922
95, 0, 0, 44.22782516479492
96, 0, 0, 0
97, 0, 0, 0
98, 0, 0, 0
99, 0, 0, 0
100, 0, 0, 0
101, 0, 0, 0
102, 0, 0, 0
103, 0, 0, 0
104, 0, 0, 0
105, 0, 0, 0
106, 0, 0, 0
107, 0, 0, 0
108, 0, 0, 0
109, 0, 0, 0
110, 0, 0, 0
111, 0, 0, 0
112, 0, 0, 0
113, 0, 0, 0
114, 0, 0, 0
115, 0, 0, 0
116, 0, 0, 0
117, 0, 0, 0
118, 0, 0, 0
119, 0, 0, 0
120, 0, 0, 0
121, 0, 0, 0
122, 0, 0, 0
123, 0, 0, 0
124, 0, 0, 0
125, 0, 0, 0
126, 0, 0, 0
127, 0, 0, 0
128, 0, 0, 0
129, 0, 0, 0
130, 0, 0, 0
131, 0, 0, 0
132, 0, 0, 0
133, 0, 0, 0
134, 0, 0, 0
135, 0, 0, 0
136, 0, 0, 0
137, 0, 0, 0
138, 0, 0, 0
139, 0, 0, 0
140, 0, 0, 0
141, 0, 0, 0
142, 0, 0, 0
143, 0, 0, 0
144, 0, 0, 0
145, 0, 0, 0
146, 0, 0, 0
147, 0, 0, 0
148, 0, 0, 0
149, 0, 0, 0
150, 0, 0, 0
151, 0, 0, 0
152, 0, 0, 0
153, 0, 0, 0
154, 0, 0, 0
155, 0, 0, 0
156, 0, 0, 0
157, 0, 0, 0
158, 0, 0, 0
159, 0, 0, 0
160, 0, 0, 0
161, 0, 0, 0
162, 0, 0, 0
163, 0, 0, 0
164, 0, 0, 0
165, 0, 0, 0
166, 0, 0, 0
167, 0, 0, 0
168, 0, 0, 0
169, 0, 0, 0
170, 0, 0, 0
171, 0, 0, 0
172, 0, 0, 0
173, 0, 0, 0
174, 0, 0, 0
175, 0, 0, 0
176, 0, 0, 0
177, 0, 0, 0
178, 0, 0, 0
179, 0, 0, 0
