# TOPAS Version: 3.3.p1
# Parameter File: Simple_Pattern.txt
# Results for scorer MLIC_Scorer
# Scored in component: MLIC
# X in 180 bins of 0.222222 cm
# Y in 1 bin  of 10 cm
# Z in 1 bin  of 10 cm
# EnergyDeposit ( MeV ) : Sum   
0, 0, 0, 1098.099853515625
1, 0, 0, 1096.134399414062
2, 0, 0, 1087.417724609375
3, 0, 0, 1096.366577148438
4, 0, 0, 1107.250854492188
5, 0, 0, 1113.722900390625
6, 0, 0, 1115.763549804688
7, 0, 0, 1122.486694335938
8, 0, 0, 1119.532958984375
9, 0, 0, 1132.906005859375
10, 0, 0, 1135.337036132812
11, 0, 0, 1137.719604492188
12, 0, 0, 1144.932006835938
13, 0, 0, 1164.298950195312
14, 0, 0, 1164.401733398438
15, 0, 0, 1169.341186523438
16, 0, 0, 1170.518798828125
17, 0, 0, 1172.368896484375
18, 0, 0, 1174.319213867188
19, 0, 0, 1187.587890625
20, 0, 0, 1194.471313476562
21, 0, 0, 1204.863891601562
22, 0, 0, 1212.247192382812
23, 0, 0, 1208.830444335938
24, 0, 0, 1208.26123046875
25, 0, 0, 1225.000854492188
26, 0, 0, 1235.85400390625
27, 0, 0, 1242.008911132812
28, 0, 0, 1240.84521484375
29, 0, 0, 1261.180053710938
30, 0, 0, 1277.212158203125
31, 0, 0, 1268.59619140625
32, 0, 0, 1285.814331054688
33, 0, 0, 1294.845581054688
34, 0, 0, 1302.835693359375
35, 0, 0, 1305.298583984375
36, 0, 0, 1323.334350585938
37, 0, 0, 1327.6318359375
38, 0, 0, 1334.591186523438
39, 0, 0, 1345.382446289062
40, 0, 0, 1356.241455078125
41, 0, 0, 1364.0654296875
42, 0, 0, 1376.585327148438
43, 0, 0, 1398.2177734375
44, 0, 0, 1402.407958984375
45, 0, 0, 1417.498779296875
46, 0, 0, 1429.2158203125
47, 0, 0, 1448.242797851562
48, 0, 0, 1446.115234375
49, 0, 0, 1470.188598632812
50, 0, 0, 1477.76123046875
51, 0, 0, 1490.685913085938
52, 0, 0, 1509.65380859375
53, 0, 0, 1527.147094726562
54, 0, 0, 1538.951538085938
55, 0, 0, 1554.633422851562
56, 0, 0, 1572.797973632812
57, 0, 0, 1604.793823242188
58, 0, 0, 1623.376831054688
59, 0, 0, 1631.052734375
60, 0, 0, 1647.665161132812
61, 0, 0, 1670.227905273438
62, 0, 0, 1708.4365234375
63, 0, 0, 1725.268310546875
64, 0, 0, 1753.204345703125
65, 0, 0, 1770.977661132812
66, 0, 0, 1803.895751953125
67, 0, 0, 1827.142456054688
68, 0, 0, 1858.402954101562
69, 0, 0, 1894.549194335938
70, 0, 0, 1928.068603515625
71, 0, 0, 1961.31640625
72, 0, 0, 1997.392944335938
73, 0, 0, 2046.239501953125
74, 0, 0, 2093.10009765625
75, 0, 0, 2139.635009765625
76, 0, 0, 2191.028564453125
77, 0, 0, 2253.643798828125
78, 0, 0, 2317.648681640625
79, 0, 0, 2395.182373046875
80, 0, 0, 2462.96337890625
81, 0, 0, 2558.39697265625
82, 0, 0, 2656.37158203125
83, 0, 0, 2777.555419921875
84, 0, 0, 2912.903076171875
85, 0, 0, 3075.95361328125
86, 0, 0, 3287.928955078125
87, 0, 0, 3558.015625
88, 0, 0, 3936.267578125
89, 0, 0, 4488.6396484375
90, 0, 0, 5323.71630859375
91, 0, 0, 6077.84033203125
92, 0, 0, 5879.71923828125
93, 0, 0, 4162.19482421875
94, 0, 0, 2182.019287109375
95, 0, 0, 675.808837890625
96, 0, 0, 126.1402587890625
97, 0, 0, 1.789253234863281
98, 0, 0, 0.006917493883520365
99, 0, 0, 0
100, 0, 0, 0
101, 0, 0, 0
102, 0, 0, 0
103, 0, 0, 0
104, 0, 0, 0
105, 0, 0, 0.001638970570638776
106, 0, 0, 0.002494471380487084
107, 0, 0, 0
108, 0, 0, 0.07419376820325851
109, 0, 0, 0
110, 0, 0, 0
111, 0, 0, 0.002114727394655347
112, 0, 0, 0
113, 0, 0, 0
114, 0, 0, 0
115, 0, 0, 0
116, 0, 0, 0
117, 0, 0, 0
118, 0, 0, 0
119, 0, 0, 0
120, 0, 0, 0
121, 0, 0, 0
122, 0, 0, 0
123, 0, 0, 0
124, 0, 0, 0
125, 0, 0, 0
126, 0, 0, 0
127, 0, 0, 0
128, 0, 0, 0
129, 0, 0, 0
130, 0, 0, 0
131, 0, 0, 0.02544939517974854
132, 0, 0, 0
133, 0, 0, 0
134, 0, 0, 0.02144789882004261
135, 0, 0, 0
136, 0, 0, 0
137, 0, 0, 0
138, 0, 0, 0
139, 0, 0, 0
140, 0, 0, 0
141, 0, 0, 0
142, 0, 0, 0
143, 0, 0, 0
144, 0, 0, 0
145, 0, 0, 0
146, 0, 0, 0
147, 0, 0, 0
148, 0, 0, 0
149, 0, 0, 0
150, 0, 0, 0
151, 0, 0, 0
152, 0, 0, 0
153, 0, 0, 0
154, 0, 0, 0
155, 0, 0, 0
156, 0, 0, 0
157, 0, 0, 0.02387664280831814
158, 0, 0, 0
159, 0, 0, 0
160, 0, 0, 0.009457304142415524
161, 0, 0, 0
162, 0, 0, 0
163, 0, 0, 0
164, 0, 0, 0
165, 0, 0, 0
166, 0, 0, 0
167, 0, 0, 0
168, 0, 0, 0
169, 0, 0, 0
170, 0, 0, 0
171, 0, 0, 0
172, 0, 0, 0
173, 0, 0, 0
174, 0, 0, 0
175, 0, 0, 0
176, 0, 0, 0
177, 0, 0, 0
178, 0, 0, 0
179, 0, 0, 0
