# TOPAS Version: 3.3.p1
# Parameter File: Simple_Pattern.txt
# Results for scorer MLIC_Scorer
# Scored in component: MLIC
# X in 180 bins of 0.222222 cm
# Y in 1 bin  of 10 cm
# Z in 1 bin  of 10 cm
# EnergyDeposit ( MeV ) : Sum   
0, 0, 0, 44.35372161865234
1, 0, 0, 43.67277526855469
2, 0, 0, 44.96060562133789
3, 0, 0, 44.72229766845703
4, 0, 0, 46.55814361572266
5, 0, 0, 44.86259078979492
6, 0, 0, 44.65090179443359
7, 0, 0, 44.81217575073242
8, 0, 0, 46.4379997253418
9, 0, 0, 46.41095733642578
10, 0, 0, 48.58151626586914
11, 0, 0, 47.5458984375
12, 0, 0, 47.24026107788086
13, 0, 0, 47.02566528320312
14, 0, 0, 47.5578727722168
15, 0, 0, 49.35824584960938
16, 0, 0, 48.41839981079102
17, 0, 0, 48.65618133544922
18, 0, 0, 46.67864608764648
19, 0, 0, 48.61581802368164
20, 0, 0, 49.92304611206055
21, 0, 0, 49.28183364868164
22, 0, 0, 49.16845703125
23, 0, 0, 49.93195724487305
24, 0, 0, 49.3958854675293
25, 0, 0, 51.84714126586914
26, 0, 0, 51.71121978759766
27, 0, 0, 52.87882614135742
28, 0, 0, 52.34519577026367
29, 0, 0, 53.22103118896484
30, 0, 0, 52.77011871337891
31, 0, 0, 53.78803253173828
32, 0, 0, 53.67158889770508
33, 0, 0, 53.57362365722656
34, 0, 0, 54.20652770996094
35, 0, 0, 54.99296569824219
36, 0, 0, 54.73332977294922
37, 0, 0, 57.43574142456055
38, 0, 0, 53.99374008178711
39, 0, 0, 55.62788391113281
40, 0, 0, 56.05533981323242
41, 0, 0, 56.59823226928711
42, 0, 0, 59.90762329101562
43, 0, 0, 59.94514465332031
44, 0, 0, 59.64828109741211
45, 0, 0, 59.74147415161133
46, 0, 0, 59.98850250244141
47, 0, 0, 60.63512802124023
48, 0, 0, 61.98064804077148
49, 0, 0, 61.67503356933594
50, 0, 0, 64.69908142089844
51, 0, 0, 62.83848571777344
52, 0, 0, 64.83497619628906
53, 0, 0, 66.33233642578125
54, 0, 0, 67.95034027099609
55, 0, 0, 66.33767700195312
56, 0, 0, 68.79313659667969
57, 0, 0, 68.97167205810547
58, 0, 0, 70.481201171875
59, 0, 0, 72.39749145507812
60, 0, 0, 73.40962219238281
61, 0, 0, 73.38139343261719
62, 0, 0, 75.73992919921875
63, 0, 0, 77.89006042480469
64, 0, 0, 77.84077453613281
65, 0, 0, 80.00557708740234
66, 0, 0, 83.27584838867188
67, 0, 0, 83.93354797363281
68, 0, 0, 87.61526489257812
69, 0, 0, 89.75027465820312
70, 0, 0, 93.17955017089844
71, 0, 0, 96.54454803466797
72, 0, 0, 99.79402160644531
73, 0, 0, 104.9459381103516
74, 0, 0, 108.0750045776367
75, 0, 0, 116.9629058837891
76, 0, 0, 127.2120742797852
77, 0, 0, 145.2499542236328
78, 0, 0, 155.2441253662109
79, 0, 0, 161.1195831298828
80, 0, 0, 171.5778961181641
81, 0, 0, 130.5428466796875
82, 0, 0, 64.59606170654297
83, 0, 0, 63.37698745727539
84, 0, 0, 70.098876953125
85, 0, 0, 75.75525665283203
86, 0, 0, 78.73358154296875
87, 0, 0, 81.95439910888672
88, 0, 0, 75.05946350097656
89, 0, 0, 83.06113433837891
90, 0, 0, 97.42577362060547
91, 0, 0, 120.1888122558594
92, 0, 0, 150.9627075195312
93, 0, 0, 114.0173263549805
94, 0, 0, 62.90092086791992
95, 0, 0, 20.46141815185547
96, 0, 0, 0
97, 0, 0, 0
98, 0, 0, 0
99, 0, 0, 0
100, 0, 0, 0
101, 0, 0, 0
102, 0, 0, 0
103, 0, 0, 0
104, 0, 0, 0
105, 0, 0, 0
106, 0, 0, 0
107, 0, 0, 0
108, 0, 0, 0
109, 0, 0, 0
110, 0, 0, 0
111, 0, 0, 0
112, 0, 0, 0
113, 0, 0, 0
114, 0, 0, 0
115, 0, 0, 0
116, 0, 0, 0
117, 0, 0, 0
118, 0, 0, 0
119, 0, 0, 0
120, 0, 0, 0
121, 0, 0, 0
122, 0, 0, 0
123, 0, 0, 0
124, 0, 0, 0
125, 0, 0, 0
126, 0, 0, 0
127, 0, 0, 0
128, 0, 0, 0
129, 0, 0, 0
130, 0, 0, 0
131, 0, 0, 0
132, 0, 0, 0
133, 0, 0, 0
134, 0, 0, 0
135, 0, 0, 0
136, 0, 0, 0
137, 0, 0, 0
138, 0, 0, 0
139, 0, 0, 0
140, 0, 0, 0
141, 0, 0, 0
142, 0, 0, 0
143, 0, 0, 0
144, 0, 0, 0
145, 0, 0, 0
146, 0, 0, 0
147, 0, 0, 0
148, 0, 0, 0
149, 0, 0, 0
150, 0, 0, 0
151, 0, 0, 0
152, 0, 0, 0
153, 0, 0, 0
154, 0, 0, 0
155, 0, 0, 0
156, 0, 0, 0
157, 0, 0, 0
158, 0, 0, 0
159, 0, 0, 0
160, 0, 0, 0
161, 0, 0, 0
162, 0, 0, 0
163, 0, 0, 0
164, 0, 0, 0
165, 0, 0, 0
166, 0, 0, 0
167, 0, 0, 0
168, 0, 0, 0
169, 0, 0, 0
170, 0, 0, 0
171, 0, 0, 0
172, 0, 0, 0
173, 0, 0, 0
174, 0, 0, 0
175, 0, 0, 0
176, 0, 0, 0
177, 0, 0, 0
178, 0, 0, 0
179, 0, 0, 0
