# TOPAS Version: 3.3.p1
# Parameter File: Simple_Pattern.txt
# Results for scorer MLIC_Scorer
# Scored in component: MLIC
# X in 180 bins of 0.222222 cm
# Y in 1 bin  of 10 cm
# Z in 1 bin  of 10 cm
# EnergyDeposit ( MeV ) : Sum   
0, 0, 0, 45.63127517700195
1, 0, 0, 46.36015701293945
2, 0, 0, 46.69705581665039
3, 0, 0, 44.68846893310547
4, 0, 0, 46.69353485107422
5, 0, 0, 47.82613372802734
6, 0, 0, 47.15540313720703
7, 0, 0, 48.30280303955078
8, 0, 0, 47.59816741943359
9, 0, 0, 48.71316528320312
10, 0, 0, 48.33425521850586
11, 0, 0, 48.72890853881836
12, 0, 0, 47.53053665161133
13, 0, 0, 46.19866943359375
14, 0, 0, 49.32844543457031
15, 0, 0, 49.07400894165039
16, 0, 0, 48.75038909912109
17, 0, 0, 48.97737884521484
18, 0, 0, 51.78786849975586
19, 0, 0, 49.98177719116211
20, 0, 0, 50.3017463684082
21, 0, 0, 50.46290969848633
22, 0, 0, 52.49328231811523
23, 0, 0, 51.8400764465332
24, 0, 0, 53.38423919677734
25, 0, 0, 53.25817489624023
26, 0, 0, 53.26430892944336
27, 0, 0, 52.45379638671875
28, 0, 0, 55.12783432006836
29, 0, 0, 54.34169006347656
30, 0, 0, 55.04304122924805
31, 0, 0, 55.75002288818359
32, 0, 0, 56.61045455932617
33, 0, 0, 54.881103515625
34, 0, 0, 55.4138069152832
35, 0, 0, 57.52796173095703
36, 0, 0, 57.03462600708008
37, 0, 0, 59.51387023925781
38, 0, 0, 58.57881927490234
39, 0, 0, 56.99713134765625
40, 0, 0, 59.7153205871582
41, 0, 0, 58.89774322509766
42, 0, 0, 60.63677215576172
43, 0, 0, 62.36653518676758
44, 0, 0, 60.05940246582031
45, 0, 0, 60.55885314941406
46, 0, 0, 63.44153594970703
47, 0, 0, 61.70619201660156
48, 0, 0, 64.722900390625
49, 0, 0, 65.50955963134766
50, 0, 0, 66.3419189453125
51, 0, 0, 66.96004486083984
52, 0, 0, 68.09046936035156
53, 0, 0, 68.08242797851562
54, 0, 0, 68.51345062255859
55, 0, 0, 70.61019897460938
56, 0, 0, 70.41114044189453
57, 0, 0, 71.78727722167969
58, 0, 0, 74.37876129150391
59, 0, 0, 74.19794464111328
60, 0, 0, 75.29557037353516
61, 0, 0, 77.73432159423828
62, 0, 0, 79.58315277099609
63, 0, 0, 80.99838256835938
64, 0, 0, 81.77760314941406
65, 0, 0, 82.37510681152344
66, 0, 0, 85.95685577392578
67, 0, 0, 88.33589935302734
68, 0, 0, 91.42527770996094
69, 0, 0, 93.56629943847656
70, 0, 0, 96.53983306884766
71, 0, 0, 100.5484161376953
72, 0, 0, 103.1673202514648
73, 0, 0, 109.6238327026367
74, 0, 0, 115.5697402954102
75, 0, 0, 123.0044631958008
76, 0, 0, 136.7628784179688
77, 0, 0, 152.4526062011719
78, 0, 0, 152.9683380126953
79, 0, 0, 196.8166198730469
80, 0, 0, 148.9015502929688
81, 0, 0, 106.8523330688477
82, 0, 0, 71.44997406005859
83, 0, 0, 72.54890441894531
84, 0, 0, 80.79189300537109
85, 0, 0, 90.52003479003906
86, 0, 0, 88.75563049316406
87, 0, 0, 93.01343536376953
88, 0, 0, 91.58258056640625
89, 0, 0, 79.22275543212891
90, 0, 0, 88.91537475585938
91, 0, 0, 112.68505859375
92, 0, 0, 106.4674835205078
93, 0, 0, 94.56343841552734
94, 0, 0, 39.92764663696289
95, 0, 0, 19.63344383239746
96, 0, 0, 5.198630809783936
97, 0, 0, 0
98, 0, 0, 0
99, 0, 0, 0
100, 0, 0, 0
101, 0, 0, 0
102, 0, 0, 0
103, 0, 0, 0
104, 0, 0, 0
105, 0, 0, 0
106, 0, 0, 0
107, 0, 0, 0
108, 0, 0, 0
109, 0, 0, 0
110, 0, 0, 0
111, 0, 0, 0
112, 0, 0, 0
113, 0, 0, 0
114, 0, 0, 0
115, 0, 0, 0
116, 0, 0, 0
117, 0, 0, 0
118, 0, 0, 0
119, 0, 0, 0
120, 0, 0, 0
121, 0, 0, 0
122, 0, 0, 0
123, 0, 0, 0
124, 0, 0, 0
125, 0, 0, 0
126, 0, 0, 0
127, 0, 0, 0
128, 0, 0, 0
129, 0, 0, 0
130, 0, 0, 0
131, 0, 0, 0
132, 0, 0, 0
133, 0, 0, 0
134, 0, 0, 0
135, 0, 0, 0
136, 0, 0, 0
137, 0, 0, 0
138, 0, 0, 0
139, 0, 0, 0
140, 0, 0, 0
141, 0, 0, 0
142, 0, 0, 0
143, 0, 0, 0
144, 0, 0, 0
145, 0, 0, 0
146, 0, 0, 0
147, 0, 0, 0
148, 0, 0, 0
149, 0, 0, 0
150, 0, 0, 0
151, 0, 0, 0
152, 0, 0, 0
153, 0, 0, 0
154, 0, 0, 0
155, 0, 0, 0
156, 0, 0, 0
157, 0, 0, 0
158, 0, 0, 0
159, 0, 0, 0
160, 0, 0, 0
161, 0, 0, 0
162, 0, 0, 0
163, 0, 0, 0
164, 0, 0, 0
165, 0, 0, 0
166, 0, 0, 0
167, 0, 0, 0
168, 0, 0, 0
169, 0, 0, 0
170, 0, 0, 0
171, 0, 0, 0
172, 0, 0, 0
173, 0, 0, 0
174, 0, 0, 0
175, 0, 0, 0
176, 0, 0, 0
177, 0, 0, 0
178, 0, 0, 0
179, 0, 0, 0
