# TOPAS Version: 3.3.p1
# Parameter File: Simple_Pattern.txt
# Results for scorer MLIC_Scorer
# Scored in component: MLIC
# X in 180 bins of 0.222222 cm
# Y in 1 bin  of 10 cm
# Z in 1 bin  of 10 cm
# EnergyDeposit ( MeV ) : Sum   
0, 0, 0, 135.6913146972656
1, 0, 0, 134.8984375
2, 0, 0, 135.8564147949219
3, 0, 0, 133.6007843017578
4, 0, 0, 134.2266235351562
5, 0, 0, 133.0932006835938
6, 0, 0, 135.5518035888672
7, 0, 0, 137.9866485595703
8, 0, 0, 135.0836639404297
9, 0, 0, 135.4896545410156
10, 0, 0, 137.2902526855469
11, 0, 0, 136.3211975097656
12, 0, 0, 141.3359222412109
13, 0, 0, 140.9862213134766
14, 0, 0, 143.0320434570312
15, 0, 0, 143.8491821289062
16, 0, 0, 142.3590545654297
17, 0, 0, 143.3783264160156
18, 0, 0, 144.3825531005859
19, 0, 0, 147.8475952148438
20, 0, 0, 144.9915924072266
21, 0, 0, 144.8744659423828
22, 0, 0, 145.1238708496094
23, 0, 0, 148.9790954589844
24, 0, 0, 145.5753631591797
25, 0, 0, 146.6653747558594
26, 0, 0, 149.5277252197266
27, 0, 0, 152.0208892822266
28, 0, 0, 152.3332366943359
29, 0, 0, 154.1115875244141
30, 0, 0, 153.4567108154297
31, 0, 0, 156.2599182128906
32, 0, 0, 156.9373321533203
33, 0, 0, 158.92578125
34, 0, 0, 158.6234436035156
35, 0, 0, 156.7586822509766
36, 0, 0, 161.2446899414062
37, 0, 0, 160.7828521728516
38, 0, 0, 160.3729248046875
39, 0, 0, 164.3907012939453
40, 0, 0, 166.6742706298828
41, 0, 0, 165.9263763427734
42, 0, 0, 167.9153442382812
43, 0, 0, 171.1979522705078
44, 0, 0, 173.1436920166016
45, 0, 0, 173.6124267578125
46, 0, 0, 174.2392883300781
47, 0, 0, 176.5362396240234
48, 0, 0, 179.7411804199219
49, 0, 0, 181.4016265869141
50, 0, 0, 178.767578125
51, 0, 0, 181.1847534179688
52, 0, 0, 185.8882598876953
53, 0, 0, 184.7214813232422
54, 0, 0, 184.9755096435547
55, 0, 0, 189.6630096435547
56, 0, 0, 192.9345855712891
57, 0, 0, 193.1573944091797
58, 0, 0, 197.0024108886719
59, 0, 0, 198.3414459228516
60, 0, 0, 203.7030334472656
61, 0, 0, 206.8844451904297
62, 0, 0, 204.9211120605469
63, 0, 0, 209.1920471191406
64, 0, 0, 212.5939331054688
65, 0, 0, 215.7042083740234
66, 0, 0, 220.2555084228516
67, 0, 0, 223.2856597900391
68, 0, 0, 229.2044525146484
69, 0, 0, 231.1534118652344
70, 0, 0, 235.1641540527344
71, 0, 0, 241.3507385253906
72, 0, 0, 247.4376068115234
73, 0, 0, 250.9225463867188
74, 0, 0, 259.4081420898438
75, 0, 0, 265.5470581054688
76, 0, 0, 270.4401245117188
77, 0, 0, 277.5106811523438
78, 0, 0, 281.6637878417969
79, 0, 0, 295.115234375
80, 0, 0, 301.6010437011719
81, 0, 0, 317.844482421875
82, 0, 0, 328.2513427734375
83, 0, 0, 340.5207214355469
84, 0, 0, 360.2443237304688
85, 0, 0, 381.1160583496094
86, 0, 0, 407.9847412109375
87, 0, 0, 437.1881103515625
88, 0, 0, 483.8400573730469
89, 0, 0, 564.5065307617188
90, 0, 0, 659.13623046875
91, 0, 0, 753.270263671875
92, 0, 0, 747.5049438476562
93, 0, 0, 531.8563842773438
94, 0, 0, 307.8042907714844
95, 0, 0, 98.4822998046875
96, 0, 0, 25.81117248535156
97, 0, 0, 0
98, 0, 0, 0
99, 0, 0, 0
100, 0, 0, 0
101, 0, 0, 0
102, 0, 0, 0
103, 0, 0, 0
104, 0, 0, 0
105, 0, 0, 0
106, 0, 0, 0
107, 0, 0, 0
108, 0, 0, 0
109, 0, 0, 0
110, 0, 0, 0
111, 0, 0, 0
112, 0, 0, 0
113, 0, 0, 0
114, 0, 0, 0
115, 0, 0, 0
116, 0, 0, 0
117, 0, 0, 0
118, 0, 0, 0
119, 0, 0, 0
120, 0, 0, 0
121, 0, 0, 0
122, 0, 0, 0
123, 0, 0, 0
124, 0, 0, 0
125, 0, 0, 0
126, 0, 0, 0
127, 0, 0, 0
128, 0, 0, 0
129, 0, 0, 0
130, 0, 0, 0
131, 0, 0, 0
132, 0, 0, 0
133, 0, 0, 0
134, 0, 0, 0
135, 0, 0, 0
136, 0, 0, 0
137, 0, 0, 0
138, 0, 0, 0
139, 0, 0, 0
140, 0, 0, 0
141, 0, 0, 0
142, 0, 0, 0
143, 0, 0, 0
144, 0, 0, 0
145, 0, 0, 0
146, 0, 0, 0
147, 0, 0, 0
148, 0, 0, 0
149, 0, 0, 0
150, 0, 0, 0
151, 0, 0, 0
152, 0, 0, 0
153, 0, 0, 0
154, 0, 0, 0
155, 0, 0, 0
156, 0, 0, 0
157, 0, 0, 0
158, 0, 0, 0
159, 0, 0, 0
160, 0, 0, 0
161, 0, 0, 0
162, 0, 0, 0
163, 0, 0, 0
164, 0, 0, 0
165, 0, 0, 0
166, 0, 0, 0
167, 0, 0, 0
168, 0, 0, 0
169, 0, 0, 0
170, 0, 0, 0
171, 0, 0, 0
172, 0, 0, 0
173, 0, 0, 0
174, 0, 0, 0
175, 0, 0, 0
176, 0, 0, 0
177, 0, 0, 0
178, 0, 0, 0
179, 0, 0, 0
