# TOPAS Version: 3.3.p1
# Parameter File: Simple_Pattern.txt
# Results for scorer MLIC_Scorer
# Scored in component: MLIC
# X in 180 bins of 0.222222 cm
# Y in 1 bin  of 10 cm
# Z in 1 bin  of 10 cm
# EnergyDeposit ( MeV ) : Sum   
0, 0, 0, 548.1395263671875
1, 0, 0, 547.0967407226562
2, 0, 0, 556.889404296875
3, 0, 0, 561.7056274414062
4, 0, 0, 562.0828857421875
5, 0, 0, 557.6334838867188
6, 0, 0, 563.2897338867188
7, 0, 0, 571.7633056640625
8, 0, 0, 569.684326171875
9, 0, 0, 575.3784790039062
10, 0, 0, 575.3538818359375
11, 0, 0, 580.9906005859375
12, 0, 0, 578.9566650390625
13, 0, 0, 590.0701904296875
14, 0, 0, 586.7386474609375
15, 0, 0, 582.193603515625
16, 0, 0, 594.6309814453125
17, 0, 0, 602.005859375
18, 0, 0, 608.0765380859375
19, 0, 0, 603.0737915039062
20, 0, 0, 606.9744262695312
21, 0, 0, 609.4653930664062
22, 0, 0, 612.5955810546875
23, 0, 0, 613.607666015625
24, 0, 0, 618.578857421875
25, 0, 0, 627.1187744140625
26, 0, 0, 624.0121459960938
27, 0, 0, 629.20849609375
28, 0, 0, 631.7652587890625
29, 0, 0, 639.8684692382812
30, 0, 0, 639.5162353515625
31, 0, 0, 645.3952026367188
32, 0, 0, 653.7838134765625
33, 0, 0, 655.0466918945312
34, 0, 0, 663.5145874023438
35, 0, 0, 670.6342163085938
36, 0, 0, 670.3482055664062
37, 0, 0, 673.0935668945312
38, 0, 0, 680.7802124023438
39, 0, 0, 686.7589111328125
40, 0, 0, 694.0175170898438
41, 0, 0, 695.4788818359375
42, 0, 0, 708.6935424804688
43, 0, 0, 711.3876953125
44, 0, 0, 712.5117797851562
45, 0, 0, 723.0723266601562
46, 0, 0, 718.55810546875
47, 0, 0, 736.0390625
48, 0, 0, 735.9550170898438
49, 0, 0, 750.151611328125
50, 0, 0, 751.6334228515625
51, 0, 0, 755.124755859375
52, 0, 0, 767.7239379882812
53, 0, 0, 774.5452880859375
54, 0, 0, 784.3496704101562
55, 0, 0, 798.652099609375
56, 0, 0, 802.8699340820312
57, 0, 0, 809.43310546875
58, 0, 0, 816.0513916015625
59, 0, 0, 829.4113159179688
60, 0, 0, 845.3150024414062
61, 0, 0, 854.6414794921875
62, 0, 0, 866.7490844726562
63, 0, 0, 879.274169921875
64, 0, 0, 892.2142944335938
65, 0, 0, 902.6817626953125
66, 0, 0, 917.5620727539062
67, 0, 0, 929.8348999023438
68, 0, 0, 954.7533569335938
69, 0, 0, 972.7692260742188
70, 0, 0, 982.2996215820312
71, 0, 0, 1000.902099609375
72, 0, 0, 1021.753112792969
73, 0, 0, 1042.351440429688
74, 0, 0, 1073.666625976562
75, 0, 0, 1093.393798828125
76, 0, 0, 1125.608520507812
77, 0, 0, 1159.927612304688
78, 0, 0, 1191.198974609375
79, 0, 0, 1224.168212890625
80, 0, 0, 1271.788452148438
81, 0, 0, 1316.757568359375
82, 0, 0, 1370.683349609375
83, 0, 0, 1437.922485351562
84, 0, 0, 1504.990356445312
85, 0, 0, 1597.196533203125
86, 0, 0, 1712.23388671875
87, 0, 0, 1857.538330078125
88, 0, 0, 2072.6591796875
89, 0, 0, 2381.598876953125
90, 0, 0, 2785.459228515625
91, 0, 0, 3146.605224609375
92, 0, 0, 3074.713623046875
93, 0, 0, 2278.719482421875
94, 0, 0, 1103.199584960938
95, 0, 0, 303.4741516113281
96, 0, 0, 40.63551330566406
97, 0, 0, 0
98, 0, 0, 0
99, 0, 0, 0
100, 0, 0, 0
101, 0, 0, 0
102, 0, 0, 0
103, 0, 0, 0
104, 0, 0, 0
105, 0, 0, 0
106, 0, 0, 0
107, 0, 0, 0
108, 0, 0, 0
109, 0, 0, 0
110, 0, 0, 0
111, 0, 0, 0
112, 0, 0, 0
113, 0, 0, 0
114, 0, 0, 0
115, 0, 0, 0
116, 0, 0, 0
117, 0, 0, 0
118, 0, 0, 0
119, 0, 0, 0
120, 0, 0, 0
121, 0, 0, 0
122, 0, 0, 0
123, 0, 0, 0
124, 0, 0, 0
125, 0, 0, 0
126, 0, 0, 0
127, 0, 0, 0
128, 0, 0, 0
129, 0, 0, 0
130, 0, 0, 0
131, 0, 0, 0
132, 0, 0, 0
133, 0, 0, 0
134, 0, 0, 0
135, 0, 0, 0
136, 0, 0, 0
137, 0, 0, 0
138, 0, 0, 0
139, 0, 0, 0
140, 0, 0, 0
141, 0, 0, 0
142, 0, 0, 0
143, 0, 0, 0
144, 0, 0, 0
145, 0, 0, 0
146, 0, 0, 0
147, 0, 0, 0
148, 0, 0, 0
149, 0, 0, 0
150, 0, 0, 0
151, 0, 0, 0
152, 0, 0, 0
153, 0, 0, 0
154, 0, 0, 0
155, 0, 0, 0
156, 0, 0, 0
157, 0, 0, 0
158, 0, 0, 0
159, 0, 0, 0
160, 0, 0, 0
161, 0, 0, 0
162, 0, 0, 0
163, 0, 0, 0
164, 0, 0, 0
165, 0, 0, 0
166, 0, 0, 0
167, 0, 0, 0
168, 0, 0, 0
169, 0, 0, 0
170, 0, 0, 0
171, 0, 0, 0
172, 0, 0, 0
173, 0, 0, 0
174, 0, 0, 0
175, 0, 0, 0
176, 0, 0, 0
177, 0, 0, 0
178, 0, 0, 0
179, 0, 0, 0
