# TOPAS Version: 3.3.p1
# Parameter File: Simple_Pattern.txt
# Results for scorer MLIC_Scorer
# Scored in component: MLIC
# X in 180 bins of 0.222222 cm
# Y in 1 bin  of 10 cm
# Z in 1 bin  of 10 cm
# EnergyDeposit ( MeV ) : Sum   
0, 0, 0, 114.6350173950195
1, 0, 0, 113.5138778686523
2, 0, 0, 115.3875961303711
3, 0, 0, 113.8585510253906
4, 0, 0, 116.2283477783203
5, 0, 0, 115.0558700561523
6, 0, 0, 117.6459426879883
7, 0, 0, 118.8880920410156
8, 0, 0, 116.6912460327148
9, 0, 0, 116.2912445068359
10, 0, 0, 117.52587890625
11, 0, 0, 120.178840637207
12, 0, 0, 121.415641784668
13, 0, 0, 119.3787689208984
14, 0, 0, 121.9388961791992
15, 0, 0, 122.4256057739258
16, 0, 0, 122.4675979614258
17, 0, 0, 124.9267730712891
18, 0, 0, 122.4719314575195
19, 0, 0, 122.5124206542969
20, 0, 0, 124.1425552368164
21, 0, 0, 126.2822723388672
22, 0, 0, 125.8988342285156
23, 0, 0, 125.6997528076172
24, 0, 0, 124.1000900268555
25, 0, 0, 125.0707626342773
26, 0, 0, 126.6891174316406
27, 0, 0, 129.4257507324219
28, 0, 0, 128.6936492919922
29, 0, 0, 130.5359954833984
30, 0, 0, 132.0680847167969
31, 0, 0, 132.8302001953125
32, 0, 0, 136.6932983398438
33, 0, 0, 135.4746856689453
34, 0, 0, 133.7552032470703
35, 0, 0, 138.4102630615234
36, 0, 0, 135.7091674804688
37, 0, 0, 137.0754852294922
38, 0, 0, 136.7716827392578
39, 0, 0, 141.7867889404297
40, 0, 0, 144.6251983642578
41, 0, 0, 143.0902557373047
42, 0, 0, 141.0397491455078
43, 0, 0, 143.3172149658203
44, 0, 0, 146.2554779052734
45, 0, 0, 145.0259857177734
46, 0, 0, 150.2436828613281
47, 0, 0, 150.5606994628906
48, 0, 0, 152.9477844238281
49, 0, 0, 152.9696502685547
50, 0, 0, 154.8803405761719
51, 0, 0, 155.7392883300781
52, 0, 0, 153.4808044433594
53, 0, 0, 159.2427215576172
54, 0, 0, 162.8894500732422
55, 0, 0, 165.006591796875
56, 0, 0, 164.4307098388672
57, 0, 0, 166.5035247802734
58, 0, 0, 167.6636047363281
59, 0, 0, 170.3737640380859
60, 0, 0, 174.6869812011719
61, 0, 0, 175.7277679443359
62, 0, 0, 178.2791442871094
63, 0, 0, 181.8262939453125
64, 0, 0, 181.57373046875
65, 0, 0, 186.2360076904297
66, 0, 0, 189.8930816650391
67, 0, 0, 192.9725189208984
68, 0, 0, 195.3421020507812
69, 0, 0, 199.5775146484375
70, 0, 0, 200.7551574707031
71, 0, 0, 204.7731628417969
72, 0, 0, 207.66455078125
73, 0, 0, 216.1401977539062
74, 0, 0, 219.6759643554688
75, 0, 0, 226.1660614013672
76, 0, 0, 231.6529846191406
77, 0, 0, 238.3107757568359
78, 0, 0, 244.9610443115234
79, 0, 0, 253.854736328125
80, 0, 0, 261.8629150390625
81, 0, 0, 271.1731872558594
82, 0, 0, 282.7052001953125
83, 0, 0, 294.7792663574219
84, 0, 0, 313.3963012695312
85, 0, 0, 329.6019287109375
86, 0, 0, 354.3112487792969
87, 0, 0, 380.7279968261719
88, 0, 0, 427.4549255371094
89, 0, 0, 486.6197814941406
90, 0, 0, 585.9309692382812
91, 0, 0, 669.2916870117188
92, 0, 0, 580.72265625
93, 0, 0, 478.2122802734375
94, 0, 0, 189.1775360107422
95, 0, 0, 47.51156997680664
96, 0, 0, 20.83839797973633
97, 0, 0, 1.437090754508972
98, 0, 0, 0
99, 0, 0, 0
100, 0, 0, 0
101, 0, 0, 0
102, 0, 0, 0
103, 0, 0, 0
104, 0, 0, 0
105, 0, 0, 0
106, 0, 0, 0
107, 0, 0, 0
108, 0, 0, 0
109, 0, 0, 0
110, 0, 0, 0
111, 0, 0, 0
112, 0, 0, 0
113, 0, 0, 0
114, 0, 0, 0
115, 0, 0, 0
116, 0, 0, 0
117, 0, 0, 0
118, 0, 0, 0
119, 0, 0, 0
120, 0, 0, 0
121, 0, 0, 0
122, 0, 0, 0
123, 0, 0, 0
124, 0, 0, 0
125, 0, 0, 0
126, 0, 0, 0
127, 0, 0, 0
128, 0, 0, 0
129, 0, 0, 0
130, 0, 0, 0
131, 0, 0, 0
132, 0, 0, 0
133, 0, 0, 0
134, 0, 0, 0
135, 0, 0, 0
136, 0, 0, 0
137, 0, 0, 0
138, 0, 0, 0
139, 0, 0, 0
140, 0, 0, 0
141, 0, 0, 0
142, 0, 0, 0
143, 0, 0, 0
144, 0, 0, 0
145, 0, 0, 0
146, 0, 0, 0
147, 0, 0, 0
148, 0, 0, 0
149, 0, 0, 0
150, 0, 0, 0
151, 0, 0, 0
152, 0, 0, 0
153, 0, 0, 0
154, 0, 0, 0
155, 0, 0, 0
156, 0, 0, 0
157, 0, 0, 0
158, 0, 0, 0
159, 0, 0, 0
160, 0, 0, 0
161, 0, 0, 0
162, 0, 0, 0
163, 0, 0, 0
164, 0, 0, 0
165, 0, 0, 0
166, 0, 0, 0
167, 0, 0, 0
168, 0, 0, 0
169, 0, 0, 0
170, 0, 0, 0
171, 0, 0, 0
172, 0, 0, 0
173, 0, 0, 0
174, 0, 0, 0
175, 0, 0, 0
176, 0, 0, 0
177, 0, 0, 0
178, 0, 0, 0
179, 0, 0, 0
