# TOPAS Version: 3.3.p1
# Parameter File: Simple_Pattern.txt
# Results for scorer MLIC_Scorer
# Scored in component: MLIC
# X in 180 bins of 0.222222 cm
# Y in 1 bin  of 10 cm
# Z in 1 bin  of 10 cm
# EnergyDeposit ( MeV ) : Sum   
0, 0, 0, 1083.73486328125
1, 0, 0, 1081.849853515625
2, 0, 0, 1095.432983398438
3, 0, 0, 1108.972412109375
4, 0, 0, 1100.212890625
5, 0, 0, 1101.845703125
6, 0, 0, 1111.722290039062
7, 0, 0, 1122.570556640625
8, 0, 0, 1119.569091796875
9, 0, 0, 1132.86376953125
10, 0, 0, 1135.201171875
11, 0, 0, 1147.592651367188
12, 0, 0, 1138.578369140625
13, 0, 0, 1157.386108398438
14, 0, 0, 1156.449340820312
15, 0, 0, 1163.412353515625
16, 0, 0, 1165.692749023438
17, 0, 0, 1175.459106445312
18, 0, 0, 1177.804565429688
19, 0, 0, 1193.029174804688
20, 0, 0, 1198.179931640625
21, 0, 0, 1192.930419921875
22, 0, 0, 1203.73291015625
23, 0, 0, 1215.036376953125
24, 0, 0, 1216.83251953125
25, 0, 0, 1228.273559570312
26, 0, 0, 1239.367065429688
27, 0, 0, 1257.670776367188
28, 0, 0, 1251.887329101562
29, 0, 0, 1256.981689453125
30, 0, 0, 1264.231323242188
31, 0, 0, 1280.52294921875
32, 0, 0, 1276.919067382812
33, 0, 0, 1281.81591796875
34, 0, 0, 1294.137084960938
35, 0, 0, 1307.19677734375
36, 0, 0, 1313.101318359375
37, 0, 0, 1324.315795898438
38, 0, 0, 1334.642700195312
39, 0, 0, 1337.742553710938
40, 0, 0, 1349.71728515625
41, 0, 0, 1364.549194335938
42, 0, 0, 1375.754638671875
43, 0, 0, 1393.248657226562
44, 0, 0, 1403.70361328125
45, 0, 0, 1413.232299804688
46, 0, 0, 1436.3525390625
47, 0, 0, 1446.963134765625
48, 0, 0, 1456.425537109375
49, 0, 0, 1476.593505859375
50, 0, 0, 1488.18603515625
51, 0, 0, 1494.670776367188
52, 0, 0, 1505.69921875
53, 0, 0, 1544.124145507812
54, 0, 0, 1539.579467773438
55, 0, 0, 1563.71826171875
56, 0, 0, 1578.394775390625
57, 0, 0, 1603.44970703125
58, 0, 0, 1616.527587890625
59, 0, 0, 1634.785888671875
60, 0, 0, 1663.352294921875
61, 0, 0, 1681.38623046875
62, 0, 0, 1709.248779296875
63, 0, 0, 1733.461791992188
64, 0, 0, 1757.828002929688
65, 0, 0, 1783.0068359375
66, 0, 0, 1807.30615234375
67, 0, 0, 1840.52783203125
68, 0, 0, 1873.3720703125
69, 0, 0, 1902.035766601562
70, 0, 0, 1946.677490234375
71, 0, 0, 1979.285400390625
72, 0, 0, 2019.025024414062
73, 0, 0, 2060.08349609375
74, 0, 0, 2111.9658203125
75, 0, 0, 2161.21435546875
76, 0, 0, 2223.82177734375
77, 0, 0, 2276.009033203125
78, 0, 0, 2351.031005859375
79, 0, 0, 2424.73388671875
80, 0, 0, 2506.65087890625
81, 0, 0, 2608.0419921875
82, 0, 0, 2715.812255859375
83, 0, 0, 2837.61767578125
84, 0, 0, 2982.66650390625
85, 0, 0, 3164.630126953125
86, 0, 0, 3383.087158203125
87, 0, 0, 3674.0927734375
88, 0, 0, 4098.6337890625
89, 0, 0, 4638.8701171875
90, 0, 0, 5496.7958984375
91, 0, 0, 6261.82080078125
92, 0, 0, 6125.65869140625
93, 0, 0, 4190.7744140625
94, 0, 0, 2369.397705078125
95, 0, 0, 706.5130004882812
96, 0, 0, 110.7897415161133
97, 0, 0, 18.43891716003418
98, 0, 0, 0
99, 0, 0, 0
100, 0, 0, 0
101, 0, 0, 0
102, 0, 0, 0
103, 0, 0, 0
104, 0, 0, 0
105, 0, 0, 0
106, 0, 0, 0
107, 0, 0, 0
108, 0, 0, 0
109, 0, 0, 0
110, 0, 0, 0
111, 0, 0, 0
112, 0, 0, 0
113, 0, 0, 0
114, 0, 0, 0
115, 0, 0, 0
116, 0, 0, 0
117, 0, 0, 0
118, 0, 0, 0
119, 0, 0, 0
120, 0, 0, 0
121, 0, 0, 0
122, 0, 0, 0
123, 0, 0, 0
124, 0, 0, 0
125, 0, 0, 0
126, 0, 0, 0
127, 0, 0, 0
128, 0, 0, 0
129, 0, 0, 0
130, 0, 0, 0
131, 0, 0, 0
132, 0, 0, 0
133, 0, 0, 0
134, 0, 0, 0
135, 0, 0, 0
136, 0, 0, 0
137, 0, 0, 0
138, 0, 0, 0
139, 0, 0, 0
140, 0, 0, 0
141, 0, 0, 0
142, 0, 0, 0
143, 0, 0, 0
144, 0, 0, 0
145, 0, 0, 0
146, 0, 0, 0
147, 0, 0, 0
148, 0, 0, 0
149, 0, 0, 0
150, 0, 0, 0
151, 0, 0, 0
152, 0, 0, 0
153, 0, 0, 0
154, 0, 0, 0
155, 0, 0, 0
156, 0, 0, 0
157, 0, 0, 0
158, 0, 0, 0
159, 0, 0, 0
160, 0, 0, 0
161, 0, 0, 0
162, 0, 0, 0
163, 0, 0, 0
164, 0, 0, 0
165, 0, 0, 0
166, 0, 0, 0
167, 0, 0, 0
168, 0, 0, 0
169, 0, 0, 0
170, 0, 0, 0
171, 0, 0, 0
172, 0, 0, 0
173, 0, 0, 0
174, 0, 0, 0
175, 0, 0, 0
176, 0, 0, 0
177, 0, 0, 0
178, 0, 0, 0
179, 0, 0, 0
