# TOPAS Version: 3.3.p1
# Parameter File: Simple_Pattern.txt
# Results for scorer MLIC_Scorer
# Scored in component: MLIC
# X in 180 bins of 0.222222 cm
# Y in 1 bin  of 10 cm
# Z in 1 bin  of 10 cm
# EnergyDeposit ( MeV ) : Sum   
0, 0, 0, 68.48235321044922
1, 0, 0, 64.58798980712891
2, 0, 0, 67.11572265625
3, 0, 0, 67.72039031982422
4, 0, 0, 67.2196044921875
5, 0, 0, 68.16709136962891
6, 0, 0, 69.64197540283203
7, 0, 0, 68.25618743896484
8, 0, 0, 68.98516082763672
9, 0, 0, 67.87361145019531
10, 0, 0, 70.12410736083984
11, 0, 0, 72.68042755126953
12, 0, 0, 69.97965240478516
13, 0, 0, 70.55738830566406
14, 0, 0, 72.02619171142578
15, 0, 0, 71.53572082519531
16, 0, 0, 71.36097717285156
17, 0, 0, 71.70943450927734
18, 0, 0, 74.75201416015625
19, 0, 0, 74.89589691162109
20, 0, 0, 73.2294921875
21, 0, 0, 73.84663391113281
22, 0, 0, 76.18790435791016
23, 0, 0, 77.94104766845703
24, 0, 0, 77.30262756347656
25, 0, 0, 78.81906127929688
26, 0, 0, 78.07707977294922
27, 0, 0, 78.82566070556641
28, 0, 0, 79.93836975097656
29, 0, 0, 80.02010345458984
30, 0, 0, 81.54132843017578
31, 0, 0, 82.78524017333984
32, 0, 0, 82.74090576171875
33, 0, 0, 84.222900390625
34, 0, 0, 83.15563201904297
35, 0, 0, 84.10283660888672
36, 0, 0, 85.19284820556641
37, 0, 0, 85.98606109619141
38, 0, 0, 85.86810302734375
39, 0, 0, 88.08599853515625
40, 0, 0, 89.30945587158203
41, 0, 0, 90.29168701171875
42, 0, 0, 90.63658142089844
43, 0, 0, 91.48787689208984
44, 0, 0, 92.81690979003906
45, 0, 0, 92.55274963378906
46, 0, 0, 95.57856750488281
47, 0, 0, 94.83603668212891
48, 0, 0, 97.93958282470703
49, 0, 0, 98.8720703125
50, 0, 0, 99.96670532226562
51, 0, 0, 101.0492324829102
52, 0, 0, 102.3937911987305
53, 0, 0, 106.2967758178711
54, 0, 0, 107.6135559082031
55, 0, 0, 108.6845321655273
56, 0, 0, 110.0569763183594
57, 0, 0, 113.2470550537109
58, 0, 0, 113.4076232910156
59, 0, 0, 116.2387390136719
60, 0, 0, 118.3040161132812
61, 0, 0, 121.8960952758789
62, 0, 0, 123.6764678955078
63, 0, 0, 128.8179626464844
64, 0, 0, 130.9838409423828
65, 0, 0, 135.2431335449219
66, 0, 0, 139.457763671875
67, 0, 0, 142.7371520996094
68, 0, 0, 148.7695007324219
69, 0, 0, 156.6232604980469
70, 0, 0, 161.5817260742188
71, 0, 0, 170.2875823974609
72, 0, 0, 180.3626861572266
73, 0, 0, 193.2578430175781
74, 0, 0, 207.0538787841797
75, 0, 0, 227.7652587890625
76, 0, 0, 261.9139404296875
77, 0, 0, 323.475341796875
78, 0, 0, 325.5049133300781
79, 0, 0, 379.248291015625
80, 0, 0, 279.9587097167969
81, 0, 0, 138.7544860839844
82, 0, 0, 100.6648178100586
83, 0, 0, 0
84, 0, 0, 0
85, 0, 0, 0
86, 0, 0, 0
87, 0, 0, 0
88, 0, 0, 0
89, 0, 0, 0
90, 0, 0, 0
91, 0, 0, 0
92, 0, 0, 0
93, 0, 0, 0
94, 0, 0, 0
95, 0, 0, 0
96, 0, 0, 0
97, 0, 0, 0
98, 0, 0, 0
99, 0, 0, 0
100, 0, 0, 0
101, 0, 0, 0
102, 0, 0, 0
103, 0, 0, 0
104, 0, 0, 0
105, 0, 0, 0
106, 0, 0, 0
107, 0, 0, 0
108, 0, 0, 0
109, 0, 0, 0
110, 0, 0, 0
111, 0, 0, 0
112, 0, 0, 0
113, 0, 0, 0
114, 0, 0, 0
115, 0, 0, 0
116, 0, 0, 0
117, 0, 0, 0
118, 0, 0, 0
119, 0, 0, 0
120, 0, 0, 0
121, 0, 0, 0
122, 0, 0, 0
123, 0, 0, 0
124, 0, 0, 0
125, 0, 0, 0
126, 0, 0, 0
127, 0, 0, 0
128, 0, 0, 0
129, 0, 0, 0
130, 0, 0, 0
131, 0, 0, 0
132, 0, 0, 0
133, 0, 0, 0
134, 0, 0, 0
135, 0, 0, 0
136, 0, 0, 0
137, 0, 0, 0
138, 0, 0, 0
139, 0, 0, 0
140, 0, 0, 0
141, 0, 0, 0
142, 0, 0, 0
143, 0, 0, 0
144, 0, 0, 0
145, 0, 0, 0
146, 0, 0, 0
147, 0, 0, 0
148, 0, 0, 0
149, 0, 0, 0
150, 0, 0, 0
151, 0, 0, 0
152, 0, 0, 0
153, 0, 0, 0
154, 0, 0, 0
155, 0, 0, 0
156, 0, 0, 0
157, 0, 0, 0
158, 0, 0, 0
159, 0, 0, 0
160, 0, 0, 0
161, 0, 0, 0
162, 0, 0, 0
163, 0, 0, 0
164, 0, 0, 0
165, 0, 0, 0
166, 0, 0, 0
167, 0, 0, 0
168, 0, 0, 0
169, 0, 0, 0
170, 0, 0, 0
171, 0, 0, 0
172, 0, 0, 0
173, 0, 0, 0
174, 0, 0, 0
175, 0, 0, 0
176, 0, 0, 0
177, 0, 0, 0
178, 0, 0, 0
179, 0, 0, 0
