# TOPAS Version: 3.3.p1
# Parameter File: Simple_Pattern.txt
# Results for scorer MLIC_Scorer
# Scored in component: MLIC
# X in 165 bins of 0.2 cm
# Y in 1 bin  of 10 cm
# Z in 1 bin  of 10 cm
# EnergyDeposit ( MeV ) : Sum   
0, 0, 0, 938.406005859375
1, 0, 0, 944.1619873046875
2, 0, 0, 945.2113037109375
3, 0, 0, 943.2333374023438
4, 0, 0, 950.2648315429688
5, 0, 0, 949.8862915039062
6, 0, 0, 955.2537841796875
7, 0, 0, 961.3414306640625
8, 0, 0, 960.3204956054688
9, 0, 0, 970.4359741210938
10, 0, 0, 968.19140625
11, 0, 0, 979.7858276367188
12, 0, 0, 974.5515747070312
13, 0, 0, 982.8525390625
14, 0, 0, 982.6146850585938
15, 0, 0, 991.6016845703125
16, 0, 0, 995.1295776367188
17, 0, 0, 984.1016235351562
18, 0, 0, 996.5087890625
19, 0, 0, 1006.891418457031
20, 0, 0, 1004.009033203125
21, 0, 0, 1008.500671386719
22, 0, 0, 1019.70849609375
23, 0, 0, 1025.285888671875
24, 0, 0, 1035.728637695312
25, 0, 0, 1035.572998046875
26, 0, 0, 1032.319458007812
27, 0, 0, 1044.630859375
28, 0, 0, 1042.286376953125
29, 0, 0, 1040.78076171875
30, 0, 0, 1050.3212890625
31, 0, 0, 1062.637329101562
32, 0, 0, 1067.350463867188
33, 0, 0, 1071.294799804688
34, 0, 0, 1076.013549804688
35, 0, 0, 1076.285888671875
36, 0, 0, 1086.170166015625
37, 0, 0, 1089.339111328125
38, 0, 0, 1093.067016601562
39, 0, 0, 1098.960571289062
40, 0, 0, 1100.280151367188
41, 0, 0, 1116.761352539062
42, 0, 0, 1125.12890625
43, 0, 0, 1123.891845703125
44, 0, 0, 1126.261108398438
45, 0, 0, 1137.739135742188
46, 0, 0, 1148.1083984375
47, 0, 0, 1151.984008789062
48, 0, 0, 1161.406982421875
49, 0, 0, 1168.732055664062
50, 0, 0, 1161.374145507812
51, 0, 0, 1178.616821289062
52, 0, 0, 1181.767456054688
53, 0, 0, 1198.504028320312
54, 0, 0, 1206.818969726562
55, 0, 0, 1215.06298828125
56, 0, 0, 1215.931030273438
57, 0, 0, 1224.252075195312
58, 0, 0, 1239.004516601562
59, 0, 0, 1233.375366210938
60, 0, 0, 1257.94921875
61, 0, 0, 1266.675537109375
62, 0, 0, 1269.393310546875
63, 0, 0, 1281.250854492188
64, 0, 0, 1296.31005859375
65, 0, 0, 1296.560791015625
66, 0, 0, 1316.587280273438
67, 0, 0, 1327.170288085938
68, 0, 0, 1330.805908203125
69, 0, 0, 1348.609619140625
70, 0, 0, 1355.966918945312
71, 0, 0, 1369.947509765625
72, 0, 0, 1375.631591796875
73, 0, 0, 1394.75830078125
74, 0, 0, 1408.430541992188
75, 0, 0, 1425.933471679688
76, 0, 0, 1440.872436523438
77, 0, 0, 1454.17626953125
78, 0, 0, 1470.248779296875
79, 0, 0, 1487.668823242188
80, 0, 0, 1504.740600585938
81, 0, 0, 1525.7939453125
82, 0, 0, 1541.747314453125
83, 0, 0, 1562.413452148438
84, 0, 0, 1585.152709960938
85, 0, 0, 1609.524536132812
86, 0, 0, 1624.56884765625
87, 0, 0, 1653.870239257812
88, 0, 0, 1684.89404296875
89, 0, 0, 1712.365844726562
90, 0, 0, 1737.366455078125
91, 0, 0, 1764.726684570312
92, 0, 0, 1789.723388671875
93, 0, 0, 1827.253295898438
94, 0, 0, 1861.02099609375
95, 0, 0, 1904.939819335938
96, 0, 0, 1943.300170898438
97, 0, 0, 2000.66455078125
98, 0, 0, 2041.9296875
99, 0, 0, 2097.290283203125
100, 0, 0, 2163.7021484375
101, 0, 0, 2222.442626953125
102, 0, 0, 2298.1005859375
103, 0, 0, 2373.981201171875
104, 0, 0, 2470.252197265625
105, 0, 0, 2579.868896484375
106, 0, 0, 2702.25537109375
107, 0, 0, 2857.27880859375
108, 0, 0, 3047.96240234375
109, 0, 0, 3305.657470703125
110, 0, 0, 3673.4912109375
111, 0, 0, 4208.19970703125
112, 0, 0, 4802.87744140625
113, 0, 0, 5234.03955078125
114, 0, 0, 5066.19775390625
115, 0, 0, 4293.970703125
116, 0, 0, 2841.748779296875
117, 0, 0, 1533.867431640625
118, 0, 0, 577.1026611328125
119, 0, 0, 135.8198089599609
120, 0, 0, 30.35758972167969
121, 0, 0, 13.78404331207275
122, 0, 0, 0
123, 0, 0, 0.0005904241697862744
124, 0, 0, 0.03437399491667747
125, 0, 0, 0
126, 0, 0, 0
127, 0, 0, 0
128, 0, 0, 0.0002615690173115581
129, 0, 0, 0
130, 0, 0, 0
131, 0, 0, 0
132, 0, 0, 0
133, 0, 0, 0
134, 0, 0, 0
135, 0, 0, 0
136, 0, 0, 0
137, 0, 0, 0
138, 0, 0, 0
139, 0, 0, 0
140, 0, 0, 0
141, 0, 0, 0
142, 0, 0, 0
143, 0, 0, 0
144, 0, 0, 0
145, 0, 0, 0
146, 0, 0, 0
147, 0, 0, 0
148, 0, 0, 0
149, 0, 0, 0
150, 0, 0, 0
151, 0, 0, 0
152, 0, 0, 0
153, 0, 0, 0
154, 0, 0, 0.03429590910673141
155, 0, 0, 0
156, 0, 0, 0
157, 0, 0, 0
158, 0, 0, 0
159, 0, 0, 0
160, 0, 0, 0
161, 0, 0, 0
162, 0, 0, 0
163, 0, 0, 0
164, 0, 0, 0
