# TOPAS Version: 3.3.p1
# Parameter File: Simple_Pattern.txt
# Results for scorer MLIC_Scorer
# Scored in component: MLIC
# X in 180 bins of 0.222222 cm
# Y in 1 bin  of 10 cm
# Z in 1 bin  of 10 cm
# EnergyDeposit ( MeV ) : Sum   
0, 0, 0, 1091.606689453125
1, 0, 0, 1086.905395507812
2, 0, 0, 1088.562255859375
3, 0, 0, 1102.349243164062
4, 0, 0, 1108.088989257812
5, 0, 0, 1111.477416992188
6, 0, 0, 1111.530151367188
7, 0, 0, 1131.869140625
8, 0, 0, 1125.825805664062
9, 0, 0, 1119.32421875
10, 0, 0, 1136.502319335938
11, 0, 0, 1141.061767578125
12, 0, 0, 1138.0361328125
13, 0, 0, 1158.462524414062
14, 0, 0, 1156.142333984375
15, 0, 0, 1164.807250976562
16, 0, 0, 1169.109985351562
17, 0, 0, 1170.790283203125
18, 0, 0, 1177.660278320312
19, 0, 0, 1191.524047851562
20, 0, 0, 1203.168823242188
21, 0, 0, 1195.157104492188
22, 0, 0, 1210.736206054688
23, 0, 0, 1206.748779296875
24, 0, 0, 1226.3681640625
25, 0, 0, 1232.2373046875
26, 0, 0, 1240.641357421875
27, 0, 0, 1255.819091796875
28, 0, 0, 1260.762329101562
29, 0, 0, 1255.92333984375
30, 0, 0, 1267.190063476562
31, 0, 0, 1272.615844726562
32, 0, 0, 1282.997192382812
33, 0, 0, 1291.092163085938
34, 0, 0, 1298.111938476562
35, 0, 0, 1310.478759765625
36, 0, 0, 1318.546020507812
37, 0, 0, 1329.724975585938
38, 0, 0, 1343.344848632812
39, 0, 0, 1354.490356445312
40, 0, 0, 1351.111206054688
41, 0, 0, 1369.877807617188
42, 0, 0, 1380.662841796875
43, 0, 0, 1393.799438476562
44, 0, 0, 1407.113525390625
45, 0, 0, 1413.935668945312
46, 0, 0, 1428.947875976562
47, 0, 0, 1440.021240234375
48, 0, 0, 1456.924438476562
49, 0, 0, 1472.39453125
50, 0, 0, 1484.75048828125
51, 0, 0, 1504.793334960938
52, 0, 0, 1507.82861328125
53, 0, 0, 1520.833862304688
54, 0, 0, 1541.68896484375
55, 0, 0, 1546.77685546875
56, 0, 0, 1574.557373046875
57, 0, 0, 1584.273803710938
58, 0, 0, 1608.966918945312
59, 0, 0, 1631.846801757812
60, 0, 0, 1647.478149414062
61, 0, 0, 1679.63232421875
62, 0, 0, 1701.76318359375
63, 0, 0, 1720.1865234375
64, 0, 0, 1737.609497070312
65, 0, 0, 1775.996215820312
66, 0, 0, 1797.63232421875
67, 0, 0, 1818.025512695312
68, 0, 0, 1857.655883789062
69, 0, 0, 1893.401489257812
70, 0, 0, 1930.030395507812
71, 0, 0, 1969.811279296875
72, 0, 0, 2008.77197265625
73, 0, 0, 2045.698364257812
74, 0, 0, 2094.755126953125
75, 0, 0, 2151.354736328125
76, 0, 0, 2193.940673828125
77, 0, 0, 2268.1328125
78, 0, 0, 2328.088134765625
79, 0, 0, 2391.060791015625
80, 0, 0, 2475.78125
81, 0, 0, 2574.015869140625
82, 0, 0, 2668.115966796875
83, 0, 0, 2787.6943359375
84, 0, 0, 2933.130859375
85, 0, 0, 3099.191162109375
86, 0, 0, 3312.68603515625
87, 0, 0, 3599.830810546875
88, 0, 0, 3978.19873046875
89, 0, 0, 4561.1591796875
90, 0, 0, 5378.4404296875
91, 0, 0, 6184.86279296875
92, 0, 0, 5664.6484375
93, 0, 0, 4350.20654296875
94, 0, 0, 2101.825927734375
95, 0, 0, 705.8184204101562
96, 0, 0, 112.501838684082
97, 0, 0, 6.130740165710449
98, 0, 0, 0
99, 0, 0, 0.02385119721293449
100, 0, 0, 0
101, 0, 0, 0
102, 0, 0, 0
103, 0, 0, 0
104, 0, 0, 0
105, 0, 0, 0.002032833872362971
106, 0, 0, 0.003192760981619358
107, 0, 0, 0.02631145715713501
108, 0, 0, 0
109, 0, 0, 0
110, 0, 0, 0
111, 0, 0, 0
112, 0, 0, 0
113, 0, 0, 0.04609013721346855
114, 0, 0, 0
115, 0, 0, 0.005685617681592703
116, 0, 0, 0
117, 0, 0, 0.001840808079577982
118, 0, 0, 0
119, 0, 0, 0.1149606257677078
120, 0, 0, 0
121, 0, 0, 0
122, 0, 0, 0
123, 0, 0, 0
124, 0, 0, 0
125, 0, 0, 0
126, 0, 0, 0
127, 0, 0, 0
128, 0, 0, 0
129, 0, 0, 0
130, 0, 0, 0
131, 0, 0, 0
132, 0, 0, 0
133, 0, 0, 0
134, 0, 0, 0
135, 0, 0, 0
136, 0, 0, 0
137, 0, 0, 0
138, 0, 0, 0
139, 0, 0, 0
140, 0, 0, 0
141, 0, 0, 0
142, 0, 0, 0
143, 0, 0, 0
144, 0, 0, 0
145, 0, 0, 0
146, 0, 0, 0
147, 0, 0, 0
148, 0, 0, 0
149, 0, 0, 0
150, 0, 0, 0
151, 0, 0, 0
152, 0, 0, 0
153, 0, 0, 0
154, 0, 0, 0
155, 0, 0, 0
156, 0, 0, 0
157, 0, 0, 0
158, 0, 0, 0
159, 0, 0, 0
160, 0, 0, 0
161, 0, 0, 0
162, 0, 0, 0
163, 0, 0, 0
164, 0, 0, 0
165, 0, 0, 0
166, 0, 0, 0
167, 0, 0, 0
168, 0, 0, 0
169, 0, 0, 0
170, 0, 0, 0
171, 0, 0, 0
172, 0, 0, 0
173, 0, 0, 0
174, 0, 0, 0
175, 0, 0, 0
176, 0, 0, 0
177, 0, 0, 0
178, 0, 0, 0
179, 0, 0, 0
