# TOPAS Version: 3.3.p1
# Parameter File: Simple_Pattern.txt
# Results for scorer MLIC_Scorer
# Scored in component: MLIC
# X in 180 bins of 0.222222 cm
# Y in 1 bin  of 10 cm
# Z in 1 bin  of 10 cm
# EnergyDeposit ( MeV ) : Sum   
0, 0, 0, 1086.177368164062
1, 0, 0, 1085.68408203125
2, 0, 0, 1092.350952148438
3, 0, 0, 1108.565307617188
4, 0, 0, 1101.054931640625
5, 0, 0, 1111.78271484375
6, 0, 0, 1122.3525390625
7, 0, 0, 1121.308471679688
8, 0, 0, 1127.421752929688
9, 0, 0, 1132.936401367188
10, 0, 0, 1134.232055664062
11, 0, 0, 1144.330200195312
12, 0, 0, 1148.2626953125
13, 0, 0, 1160.490600585938
14, 0, 0, 1153.595703125
15, 0, 0, 1165.13623046875
16, 0, 0, 1168.244995117188
17, 0, 0, 1170.756591796875
18, 0, 0, 1184.297119140625
19, 0, 0, 1187.175659179688
20, 0, 0, 1186.33544921875
21, 0, 0, 1196.947143554688
22, 0, 0, 1199.418579101562
23, 0, 0, 1209.713134765625
24, 0, 0, 1224.462158203125
25, 0, 0, 1238.261352539062
26, 0, 0, 1228.88916015625
27, 0, 0, 1240.416870117188
28, 0, 0, 1249.341918945312
29, 0, 0, 1263.401123046875
30, 0, 0, 1263.356323242188
31, 0, 0, 1276.671752929688
32, 0, 0, 1288.165649414062
33, 0, 0, 1288.90478515625
34, 0, 0, 1300.405639648438
35, 0, 0, 1306.364501953125
36, 0, 0, 1321.658325195312
37, 0, 0, 1326.838745117188
38, 0, 0, 1335.501586914062
39, 0, 0, 1347.672485351562
40, 0, 0, 1360.671142578125
41, 0, 0, 1371.753784179688
42, 0, 0, 1380.879516601562
43, 0, 0, 1394.920166015625
44, 0, 0, 1405.652099609375
45, 0, 0, 1415.81640625
46, 0, 0, 1426.345703125
47, 0, 0, 1435.002319335938
48, 0, 0, 1455.474975585938
49, 0, 0, 1467.374267578125
50, 0, 0, 1479.17919921875
51, 0, 0, 1498.184814453125
52, 0, 0, 1516.351318359375
53, 0, 0, 1534.161865234375
54, 0, 0, 1544.544921875
55, 0, 0, 1555.885131835938
56, 0, 0, 1580.276611328125
57, 0, 0, 1603.1943359375
58, 0, 0, 1620.000244140625
59, 0, 0, 1628.899536132812
60, 0, 0, 1658.789672851562
61, 0, 0, 1682.717529296875
62, 0, 0, 1704.734130859375
63, 0, 0, 1727.677734375
64, 0, 0, 1749.384033203125
65, 0, 0, 1784.112548828125
66, 0, 0, 1807.958618164062
67, 0, 0, 1843.340454101562
68, 0, 0, 1865.667602539062
69, 0, 0, 1907.730102539062
70, 0, 0, 1936.948852539062
71, 0, 0, 1979.559326171875
72, 0, 0, 2011.878662109375
73, 0, 0, 2064.8544921875
74, 0, 0, 2110.287109375
75, 0, 0, 2169.046630859375
76, 0, 0, 2210.06884765625
77, 0, 0, 2279.568115234375
78, 0, 0, 2339.2607421875
79, 0, 0, 2422.888427734375
80, 0, 0, 2497.809326171875
81, 0, 0, 2597.89599609375
82, 0, 0, 2707.433837890625
83, 0, 0, 2825.916748046875
84, 0, 0, 2980.9296875
85, 0, 0, 3153.240966796875
86, 0, 0, 3370.139892578125
87, 0, 0, 3656.52490234375
88, 0, 0, 4061.58154296875
89, 0, 0, 4644.04296875
90, 0, 0, 5499.287109375
91, 0, 0, 6225.87646484375
92, 0, 0, 6129.88623046875
93, 0, 0, 4412.38818359375
94, 0, 0, 2123.007568359375
95, 0, 0, 729.502197265625
96, 0, 0, 168.6343994140625
97, 0, 0, 20.60265731811523
98, 0, 0, 0
99, 0, 0, 0
100, 0, 0, 0
101, 0, 0, 0.0004064078093506396
102, 0, 0, 0
103, 0, 0, 0
104, 0, 0, 0
105, 0, 0, 0
106, 0, 0, 0
107, 0, 0, 0
108, 0, 0, 0
109, 0, 0, 0
110, 0, 0, 0
111, 0, 0, 0
112, 0, 0, 0
113, 0, 0, 0
114, 0, 0, 0
115, 0, 0, 0
116, 0, 0, 0
117, 0, 0, 0
118, 0, 0, 0
119, 0, 0, 0
120, 0, 0, 0
121, 0, 0, 0
122, 0, 0, 0
123, 0, 0, 0
124, 0, 0, 0
125, 0, 0, 0
126, 0, 0, 0
127, 0, 0, 0
128, 0, 0, 0
129, 0, 0, 0
130, 0, 0, 0
131, 0, 0, 0
132, 0, 0, 0
133, 0, 0, 0
134, 0, 0, 0
135, 0, 0, 0
136, 0, 0, 0
137, 0, 0, 0
138, 0, 0, 0
139, 0, 0, 0
140, 0, 0, 0
141, 0, 0, 0
142, 0, 0, 0
143, 0, 0, 0
144, 0, 0, 0
145, 0, 0, 0
146, 0, 0, 0
147, 0, 0, 0
148, 0, 0, 0
149, 0, 0, 0
150, 0, 0, 0
151, 0, 0, 0
152, 0, 0, 0
153, 0, 0, 0
154, 0, 0, 0
155, 0, 0, 0
156, 0, 0, 0
157, 0, 0, 0
158, 0, 0, 0
159, 0, 0, 0
160, 0, 0, 0
161, 0, 0, 0
162, 0, 0, 0
163, 0, 0, 0
164, 0, 0, 0
165, 0, 0, 0
166, 0, 0, 0
167, 0, 0, 0
168, 0, 0, 0
169, 0, 0, 0
170, 0, 0, 0
171, 0, 0, 0
172, 0, 0, 0
173, 0, 0, 0
174, 0, 0, 0
175, 0, 0, 0
176, 0, 0, 0
177, 0, 0, 0
178, 0, 0, 0
179, 0, 0, 0
