# TOPAS Version: 3.3.p1
# Parameter File: Simple_Pattern.txt
# Results for scorer MLIC_Scorer
# Scored in component: MLIC
# X in 165 bins of 0.2 cm
# Y in 1 bin  of 10 cm
# Z in 1 bin  of 10 cm
# EnergyDeposit ( MeV ) : Sum   
0, 0, 0, 991.1757202148438
1, 0, 0, 990.6087036132812
2, 0, 0, 996.208984375
3, 0, 0, 993.2715454101562
4, 0, 0, 997.8558959960938
5, 0, 0, 1005.546447753906
6, 0, 0, 1012.29541015625
7, 0, 0, 1018.18896484375
8, 0, 0, 1017.873413085938
9, 0, 0, 1022.153381347656
10, 0, 0, 1025.738037109375
11, 0, 0, 1033.294921875
12, 0, 0, 1030.83837890625
13, 0, 0, 1033.031372070312
14, 0, 0, 1034.68115234375
15, 0, 0, 1048.86328125
16, 0, 0, 1061.562377929688
17, 0, 0, 1060.591186523438
18, 0, 0, 1063.41552734375
19, 0, 0, 1064.98876953125
20, 0, 0, 1070.693115234375
21, 0, 0, 1078.419921875
22, 0, 0, 1080.363037109375
23, 0, 0, 1085.973022460938
24, 0, 0, 1100.934448242188
25, 0, 0, 1106.5625
26, 0, 0, 1114.64306640625
27, 0, 0, 1113.337158203125
28, 0, 0, 1117.855590820312
29, 0, 0, 1134.629516601562
30, 0, 0, 1142.552856445312
31, 0, 0, 1140.488403320312
32, 0, 0, 1146.417236328125
33, 0, 0, 1146.328735351562
34, 0, 0, 1158.916625976562
35, 0, 0, 1170.010375976562
36, 0, 0, 1178.615600585938
37, 0, 0, 1178.939575195312
38, 0, 0, 1187.302124023438
39, 0, 0, 1200.040161132812
40, 0, 0, 1207.08544921875
41, 0, 0, 1213.201293945312
42, 0, 0, 1217.946411132812
43, 0, 0, 1234.833984375
44, 0, 0, 1246.701049804688
45, 0, 0, 1245.455932617188
46, 0, 0, 1258.5478515625
47, 0, 0, 1275.047119140625
48, 0, 0, 1273.325073242188
49, 0, 0, 1288.611206054688
50, 0, 0, 1298.581787109375
51, 0, 0, 1303.030151367188
52, 0, 0, 1319.195434570312
53, 0, 0, 1336.042724609375
54, 0, 0, 1344.040283203125
55, 0, 0, 1362.73681640625
56, 0, 0, 1371.816772460938
57, 0, 0, 1382.517822265625
58, 0, 0, 1387.646240234375
59, 0, 0, 1403.917724609375
60, 0, 0, 1429.492553710938
61, 0, 0, 1436.9140625
62, 0, 0, 1462.371215820312
63, 0, 0, 1475.324829101562
64, 0, 0, 1481.234375
65, 0, 0, 1502.135009765625
66, 0, 0, 1520.886352539062
67, 0, 0, 1544.754150390625
68, 0, 0, 1558.56884765625
69, 0, 0, 1582.54150390625
70, 0, 0, 1605.089965820312
71, 0, 0, 1626.966064453125
72, 0, 0, 1649.16259765625
73, 0, 0, 1677.067626953125
74, 0, 0, 1704.821166992188
75, 0, 0, 1725.16943359375
76, 0, 0, 1763.629638671875
77, 0, 0, 1792.6630859375
78, 0, 0, 1827.697387695312
79, 0, 0, 1862.104370117188
80, 0, 0, 1903.892822265625
81, 0, 0, 1950.887573242188
82, 0, 0, 1996.75927734375
83, 0, 0, 2035.89794921875
84, 0, 0, 2091.5185546875
85, 0, 0, 2141.36572265625
86, 0, 0, 2220.9296875
87, 0, 0, 2290.3515625
88, 0, 0, 2363.7392578125
89, 0, 0, 2458.668701171875
90, 0, 0, 2559.68603515625
91, 0, 0, 2697.427978515625
92, 0, 0, 2840.7138671875
93, 0, 0, 3017.88427734375
94, 0, 0, 3235.63232421875
95, 0, 0, 3515.150390625
96, 0, 0, 3892.234619140625
97, 0, 0, 4468.69970703125
98, 0, 0, 5188.12939453125
99, 0, 0, 5320.611328125
100, 0, 0, 5012.8330078125
101, 0, 0, 4072.423583984375
102, 0, 0, 2600.23583984375
103, 0, 0, 990.532958984375
104, 0, 0, 319.2861328125
105, 0, 0, 59.72823333740234
106, 0, 0, 6.118535995483398
107, 0, 0, 11.03318023681641
108, 0, 0, 2.117061376571655
109, 0, 0, 0
110, 0, 0, 0
111, 0, 0, 0
112, 0, 0, 0
113, 0, 0, 0
114, 0, 0, 0.02583194524049759
115, 0, 0, 0
116, 0, 0, 0
117, 0, 0, 0
118, 0, 0, 0
119, 0, 0, 0
120, 0, 0, 0
121, 0, 0, 0
122, 0, 0, 0
123, 0, 0, 0
124, 0, 0, 0
125, 0, 0, 0
126, 0, 0, 0
127, 0, 0, 0
128, 0, 0, 0
129, 0, 0, 0
130, 0, 0, 0
131, 0, 0, 0
132, 0, 0, 0
133, 0, 0, 0
134, 0, 0, 0
135, 0, 0, 0
136, 0, 0, 0
137, 0, 0, 0
138, 0, 0, 0
139, 0, 0, 0
140, 0, 0, 0
141, 0, 0, 0
142, 0, 0, 0
143, 0, 0, 0
144, 0, 0, 0
145, 0, 0, 0
146, 0, 0, 0
147, 0, 0, 0
148, 0, 0, 0
149, 0, 0, 0
150, 0, 0, 0
151, 0, 0, 0
152, 0, 0, 0
153, 0, 0, 0
154, 0, 0, 0
155, 0, 0, 0
156, 0, 0, 0
157, 0, 0, 0
158, 0, 0, 0
159, 0, 0, 0
160, 0, 0, 0
161, 0, 0, 0
162, 0, 0, 0
163, 0, 0, 0
164, 0, 0, 0
