# TOPAS Version: 3.3.p1
# Parameter File: Simple_Pattern.txt
# Results for scorer MLIC_Scorer
# Scored in component: MLIC
# X in 180 bins of 0.222222 cm
# Y in 1 bin  of 10 cm
# Z in 1 bin  of 10 cm
# EnergyDeposit ( MeV ) : Sum   
0, 0, 0, 41.84147644042969
1, 0, 0, 45.29787826538086
2, 0, 0, 43.03697204589844
3, 0, 0, 42.88848114013672
4, 0, 0, 43.497314453125
5, 0, 0, 42.04531097412109
6, 0, 0, 43.18271255493164
7, 0, 0, 42.11525726318359
8, 0, 0, 44.30769348144531
9, 0, 0, 43.19924545288086
10, 0, 0, 44.95737075805664
11, 0, 0, 43.34255981445312
12, 0, 0, 45.18231201171875
13, 0, 0, 44.55093002319336
14, 0, 0, 46.11906433105469
15, 0, 0, 46.47362899780273
16, 0, 0, 44.83734893798828
17, 0, 0, 45.81904983520508
18, 0, 0, 46.66692733764648
19, 0, 0, 45.68606948852539
20, 0, 0, 45.88812637329102
21, 0, 0, 47.20330047607422
22, 0, 0, 46.76968002319336
23, 0, 0, 46.96096801757812
24, 0, 0, 47.98332214355469
25, 0, 0, 48.50785064697266
26, 0, 0, 48.75396728515625
27, 0, 0, 47.95969009399414
28, 0, 0, 47.29280471801758
29, 0, 0, 50.1475830078125
30, 0, 0, 49.38148880004883
31, 0, 0, 49.56267929077148
32, 0, 0, 50.57441711425781
33, 0, 0, 51.09711456298828
34, 0, 0, 50.51035690307617
35, 0, 0, 51.79494094848633
36, 0, 0, 51.47544479370117
37, 0, 0, 51.73057556152344
38, 0, 0, 50.69891738891602
39, 0, 0, 55.27150726318359
40, 0, 0, 52.52685546875
41, 0, 0, 54.39604568481445
42, 0, 0, 53.35757064819336
43, 0, 0, 54.26423263549805
44, 0, 0, 56.37240219116211
45, 0, 0, 54.98000717163086
46, 0, 0, 54.04298400878906
47, 0, 0, 54.9259147644043
48, 0, 0, 56.46879959106445
49, 0, 0, 58.25259017944336
50, 0, 0, 57.05368804931641
51, 0, 0, 57.51411437988281
52, 0, 0, 58.074462890625
53, 0, 0, 60.44994354248047
54, 0, 0, 59.4739990234375
55, 0, 0, 61.30554580688477
56, 0, 0, 62.45777893066406
57, 0, 0, 64.73038482666016
58, 0, 0, 64.24913787841797
59, 0, 0, 62.88098907470703
60, 0, 0, 65.74753570556641
61, 0, 0, 65.10797119140625
62, 0, 0, 66.81880187988281
63, 0, 0, 69.35128784179688
64, 0, 0, 66.41934967041016
65, 0, 0, 69.97707366943359
66, 0, 0, 70.65385437011719
67, 0, 0, 72.26286315917969
68, 0, 0, 72.11411285400391
69, 0, 0, 74.89643859863281
70, 0, 0, 76.30176544189453
71, 0, 0, 76.31143188476562
72, 0, 0, 78.61631011962891
73, 0, 0, 80.67440795898438
74, 0, 0, 84.04607391357422
75, 0, 0, 83.83043670654297
76, 0, 0, 86.15158081054688
77, 0, 0, 89.06314086914062
78, 0, 0, 91.44727325439453
79, 0, 0, 96.83884429931641
80, 0, 0, 95.44155883789062
81, 0, 0, 102.1185607910156
82, 0, 0, 104.4991455078125
83, 0, 0, 110.1402130126953
84, 0, 0, 115.7733688354492
85, 0, 0, 122.4095153808594
86, 0, 0, 131.7510681152344
87, 0, 0, 142.7583465576172
88, 0, 0, 156.1876831054688
89, 0, 0, 175.8639373779297
90, 0, 0, 218.2504425048828
91, 0, 0, 260.7176818847656
92, 0, 0, 288.841552734375
93, 0, 0, 149.2191925048828
94, 0, 0, 68.36181640625
95, 0, 0, 13.42194652557373
96, 0, 0, 0
97, 0, 0, 0
98, 0, 0, 0
99, 0, 0, 0
100, 0, 0, 0
101, 0, 0, 0
102, 0, 0, 0
103, 0, 0, 0
104, 0, 0, 0
105, 0, 0, 0
106, 0, 0, 0
107, 0, 0, 0
108, 0, 0, 0
109, 0, 0, 0
110, 0, 0, 0
111, 0, 0, 0
112, 0, 0, 0
113, 0, 0, 0
114, 0, 0, 0
115, 0, 0, 0
116, 0, 0, 0
117, 0, 0, 0
118, 0, 0, 0
119, 0, 0, 0
120, 0, 0, 0
121, 0, 0, 0
122, 0, 0, 0
123, 0, 0, 0
124, 0, 0, 0
125, 0, 0, 0
126, 0, 0, 0
127, 0, 0, 0
128, 0, 0, 0
129, 0, 0, 0
130, 0, 0, 0
131, 0, 0, 0
132, 0, 0, 0
133, 0, 0, 0
134, 0, 0, 0
135, 0, 0, 0
136, 0, 0, 0
137, 0, 0, 0
138, 0, 0, 0
139, 0, 0, 0
140, 0, 0, 0
141, 0, 0, 0
142, 0, 0, 0
143, 0, 0, 0
144, 0, 0, 0
145, 0, 0, 0
146, 0, 0, 0
147, 0, 0, 0
148, 0, 0, 0
149, 0, 0, 0
150, 0, 0, 0
151, 0, 0, 0
152, 0, 0, 0
153, 0, 0, 0
154, 0, 0, 0
155, 0, 0, 0
156, 0, 0, 0
157, 0, 0, 0
158, 0, 0, 0
159, 0, 0, 0
160, 0, 0, 0
161, 0, 0, 0
162, 0, 0, 0
163, 0, 0, 0
164, 0, 0, 0
165, 0, 0, 0
166, 0, 0, 0
167, 0, 0, 0
168, 0, 0, 0
169, 0, 0, 0
170, 0, 0, 0
171, 0, 0, 0
172, 0, 0, 0
173, 0, 0, 0
174, 0, 0, 0
175, 0, 0, 0
176, 0, 0, 0
177, 0, 0, 0
178, 0, 0, 0
179, 0, 0, 0
