# TOPAS Version: 3.3.p1
# Parameter File: Simple_Pattern.txt
# Results for scorer MLIC_Scorer
# Scored in component: MLIC
# X in 180 bins of 0.222222 cm
# Y in 1 bin  of 10 cm
# Z in 1 bin  of 10 cm
# EnergyDeposit ( MeV ) : Sum   
0, 0, 0, 1086.644775390625
1, 0, 0, 1092.128662109375
2, 0, 0, 1096.005981445312
3, 0, 0, 1097.931396484375
4, 0, 0, 1097.794067382812
5, 0, 0, 1107.276489257812
6, 0, 0, 1117.583129882812
7, 0, 0, 1121.9140625
8, 0, 0, 1128.393188476562
9, 0, 0, 1123.073608398438
10, 0, 0, 1138.535278320312
11, 0, 0, 1141.002807617188
12, 0, 0, 1153.806518554688
13, 0, 0, 1153.456787109375
14, 0, 0, 1155.477172851562
15, 0, 0, 1164.655151367188
16, 0, 0, 1164.7294921875
17, 0, 0, 1177.179931640625
18, 0, 0, 1181.319946289062
19, 0, 0, 1192.605590820312
20, 0, 0, 1200.845458984375
21, 0, 0, 1196.208862304688
22, 0, 0, 1204.351318359375
23, 0, 0, 1210.762939453125
24, 0, 0, 1220.176147460938
25, 0, 0, 1235.257690429688
26, 0, 0, 1238.25244140625
27, 0, 0, 1238.608764648438
28, 0, 0, 1248.613525390625
29, 0, 0, 1261.02978515625
30, 0, 0, 1263.029541015625
31, 0, 0, 1267.936767578125
32, 0, 0, 1281.2119140625
33, 0, 0, 1297.624877929688
34, 0, 0, 1307.826049804688
35, 0, 0, 1310.898559570312
36, 0, 0, 1322.28759765625
37, 0, 0, 1322.0419921875
38, 0, 0, 1334.269409179688
39, 0, 0, 1346.722290039062
40, 0, 0, 1352.66845703125
41, 0, 0, 1359.172241210938
42, 0, 0, 1390.224487304688
43, 0, 0, 1387.010375976562
44, 0, 0, 1408.0703125
45, 0, 0, 1414.977905273438
46, 0, 0, 1424.35400390625
47, 0, 0, 1445.457153320312
48, 0, 0, 1452.015380859375
49, 0, 0, 1473.83447265625
50, 0, 0, 1479.46533203125
51, 0, 0, 1492.698608398438
52, 0, 0, 1513.899291992188
53, 0, 0, 1517.876953125
54, 0, 0, 1537.71337890625
55, 0, 0, 1556.422973632812
56, 0, 0, 1574.704467773438
57, 0, 0, 1593.179443359375
58, 0, 0, 1617.257690429688
59, 0, 0, 1630.531005859375
60, 0, 0, 1650.400024414062
61, 0, 0, 1671.930053710938
62, 0, 0, 1696.968627929688
63, 0, 0, 1725.649780273438
64, 0, 0, 1748.403564453125
65, 0, 0, 1783.329833984375
66, 0, 0, 1805.512329101562
67, 0, 0, 1834.390502929688
68, 0, 0, 1864.296875
69, 0, 0, 1896.114135742188
70, 0, 0, 1930.675048828125
71, 0, 0, 1966.419677734375
72, 0, 0, 2009.212768554688
73, 0, 0, 2051.29931640625
74, 0, 0, 2109.2978515625
75, 0, 0, 2148.55615234375
76, 0, 0, 2210.447021484375
77, 0, 0, 2267.6064453125
78, 0, 0, 2337.80712890625
79, 0, 0, 2416.269287109375
80, 0, 0, 2496.160400390625
81, 0, 0, 2591.149658203125
82, 0, 0, 2694.780517578125
83, 0, 0, 2810.48046875
84, 0, 0, 2967.927490234375
85, 0, 0, 3133.672607421875
86, 0, 0, 3358.138427734375
87, 0, 0, 3654.795654296875
88, 0, 0, 4082.353271484375
89, 0, 0, 4718.5595703125
90, 0, 0, 5469.04052734375
91, 0, 0, 5887.5693359375
92, 0, 0, 5807.365234375
93, 0, 0, 4503.8984375
94, 0, 0, 2297.366943359375
95, 0, 0, 726.6305541992188
96, 0, 0, 101.5639572143555
97, 0, 0, 9.929135322570801
98, 0, 0, 0
99, 0, 0, 0.05109794065356255
100, 0, 0, 0
101, 0, 0, 0
102, 0, 0, 0.02052772417664528
103, 0, 0, 0.01930937543511391
104, 0, 0, 0
105, 0, 0, 0
106, 0, 0, 0
107, 0, 0, 0
108, 0, 0, 0
109, 0, 0, 0
110, 0, 0, 0
111, 0, 0, 0
112, 0, 0, 0
113, 0, 0, 0
114, 0, 0, 0
115, 0, 0, 0
116, 0, 0, 0
117, 0, 0, 0
118, 0, 0, 0
119, 0, 0, 0
120, 0, 0, 0
121, 0, 0, 0
122, 0, 0, 0
123, 0, 0, 0
124, 0, 0, 0
125, 0, 0, 0
126, 0, 0, 0
127, 0, 0, 0
128, 0, 0, 0
129, 0, 0, 0
130, 0, 0, 0
131, 0, 0, 0
132, 0, 0, 0
133, 0, 0, 0
134, 0, 0, 0
135, 0, 0, 0
136, 0, 0, 0
137, 0, 0, 0
138, 0, 0, 0
139, 0, 0, 0
140, 0, 0, 0
141, 0, 0, 0
142, 0, 0, 0
143, 0, 0, 0
144, 0, 0, 0
145, 0, 0, 0
146, 0, 0, 0
147, 0, 0, 0
148, 0, 0, 0.05258031561970711
149, 0, 0, 0
150, 0, 0, 0
151, 0, 0, 0
152, 0, 0, 0
153, 0, 0, 0
154, 0, 0, 0
155, 0, 0, 0
156, 0, 0, 0
157, 0, 0, 0
158, 0, 0, 0
159, 0, 0, 0
160, 0, 0, 0
161, 0, 0, 0
162, 0, 0, 0
163, 0, 0, 0
164, 0, 0, 0
165, 0, 0, 0
166, 0, 0, 0
167, 0, 0, 0
168, 0, 0, 0
169, 0, 0, 0
170, 0, 0, 0.021561399102211
171, 0, 0, 0
172, 0, 0, 0
173, 0, 0, 0
174, 0, 0, 0
175, 0, 0, 0
176, 0, 0, 0
177, 0, 0, 0
178, 0, 0, 0
179, 0, 0, 0
