# TOPAS Version: 3.3.p1
# Parameter File: Simple_Pattern.txt
# Results for scorer MLIC_Scorer
# Scored in component: MLIC
# X in 180 bins of 0.222222 cm
# Y in 1 bin  of 10 cm
# Z in 1 bin  of 10 cm
# EnergyDeposit ( MeV ) : Sum   
0, 0, 0, 58.29540252685547
1, 0, 0, 56.70602035522461
2, 0, 0, 56.17673492431641
3, 0, 0, 58.67586517333984
4, 0, 0, 58.09181976318359
5, 0, 0, 58.7528076171875
6, 0, 0, 59.26300048828125
7, 0, 0, 60.35355758666992
8, 0, 0, 60.0459098815918
9, 0, 0, 63.46492767333984
10, 0, 0, 60.11708831787109
11, 0, 0, 60.92063903808594
12, 0, 0, 62.40890884399414
13, 0, 0, 62.14667129516602
14, 0, 0, 62.97564315795898
15, 0, 0, 63.5791015625
16, 0, 0, 61.35782623291016
17, 0, 0, 63.77924346923828
18, 0, 0, 64.83162689208984
19, 0, 0, 63.67734527587891
20, 0, 0, 63.74472427368164
21, 0, 0, 66.07156372070312
22, 0, 0, 67.40406799316406
23, 0, 0, 66.82584381103516
24, 0, 0, 67.05862426757812
25, 0, 0, 67.69735717773438
26, 0, 0, 67.41209411621094
27, 0, 0, 67.23868560791016
28, 0, 0, 66.57630920410156
29, 0, 0, 69.08881378173828
30, 0, 0, 70.54988098144531
31, 0, 0, 71.27684783935547
32, 0, 0, 71.75637817382812
33, 0, 0, 73.20341491699219
34, 0, 0, 72.90252685546875
35, 0, 0, 73.00088500976562
36, 0, 0, 72.06789398193359
37, 0, 0, 74.50789642333984
38, 0, 0, 76.2364501953125
39, 0, 0, 75.24058532714844
40, 0, 0, 76.83515167236328
41, 0, 0, 76.03726196289062
42, 0, 0, 79.90548706054688
43, 0, 0, 78.86782836914062
44, 0, 0, 81.04752349853516
45, 0, 0, 80.96100616455078
46, 0, 0, 81.68204498291016
47, 0, 0, 81.31817626953125
48, 0, 0, 83.79410552978516
49, 0, 0, 86.17752075195312
50, 0, 0, 85.81343078613281
51, 0, 0, 85.84666442871094
52, 0, 0, 88.96720886230469
53, 0, 0, 91.37017822265625
54, 0, 0, 91.65699768066406
55, 0, 0, 92.39090728759766
56, 0, 0, 97.47084808349609
57, 0, 0, 97.45435333251953
58, 0, 0, 99.69001770019531
59, 0, 0, 100.1643981933594
60, 0, 0, 103.0172424316406
61, 0, 0, 107.5263824462891
62, 0, 0, 108.5692596435547
63, 0, 0, 109.7270660400391
64, 0, 0, 111.4612808227539
65, 0, 0, 116.4545516967773
66, 0, 0, 121.2574996948242
67, 0, 0, 125.5938491821289
68, 0, 0, 129.4389953613281
69, 0, 0, 134.1390686035156
70, 0, 0, 139.4741363525391
71, 0, 0, 146.9151763916016
72, 0, 0, 156.0399780273438
73, 0, 0, 165.1441497802734
74, 0, 0, 180.379638671875
75, 0, 0, 198.0834808349609
76, 0, 0, 224.6501922607422
77, 0, 0, 278.2732543945312
78, 0, 0, 325.9957275390625
79, 0, 0, 320.1494750976562
80, 0, 0, 229.2162170410156
81, 0, 0, 100.1295700073242
82, 0, 0, 52.68829727172852
83, 0, 0, 0
84, 0, 0, 0
85, 0, 0, 0
86, 0, 0, 0
87, 0, 0, 0
88, 0, 0, 0
89, 0, 0, 0
90, 0, 0, 0
91, 0, 0, 0
92, 0, 0, 0
93, 0, 0, 0
94, 0, 0, 0
95, 0, 0, 0
96, 0, 0, 0
97, 0, 0, 0
98, 0, 0, 0
99, 0, 0, 0
100, 0, 0, 0
101, 0, 0, 0
102, 0, 0, 0
103, 0, 0, 0
104, 0, 0, 0
105, 0, 0, 0
106, 0, 0, 0
107, 0, 0, 0
108, 0, 0, 0
109, 0, 0, 0
110, 0, 0, 0
111, 0, 0, 0
112, 0, 0, 0
113, 0, 0, 0
114, 0, 0, 0
115, 0, 0, 0
116, 0, 0, 0
117, 0, 0, 0
118, 0, 0, 0
119, 0, 0, 0
120, 0, 0, 0
121, 0, 0, 0
122, 0, 0, 0
123, 0, 0, 0
124, 0, 0, 0
125, 0, 0, 0
126, 0, 0, 0
127, 0, 0, 0
128, 0, 0, 0
129, 0, 0, 0
130, 0, 0, 0
131, 0, 0, 0
132, 0, 0, 0
133, 0, 0, 0
134, 0, 0, 0
135, 0, 0, 0
136, 0, 0, 0
137, 0, 0, 0
138, 0, 0, 0
139, 0, 0, 0
140, 0, 0, 0
141, 0, 0, 0
142, 0, 0, 0
143, 0, 0, 0
144, 0, 0, 0
145, 0, 0, 0
146, 0, 0, 0
147, 0, 0, 0
148, 0, 0, 0
149, 0, 0, 0
150, 0, 0, 0
151, 0, 0, 0
152, 0, 0, 0
153, 0, 0, 0
154, 0, 0, 0
155, 0, 0, 0
156, 0, 0, 0
157, 0, 0, 0
158, 0, 0, 0
159, 0, 0, 0
160, 0, 0, 0
161, 0, 0, 0
162, 0, 0, 0
163, 0, 0, 0
164, 0, 0, 0
165, 0, 0, 0
166, 0, 0, 0
167, 0, 0, 0
168, 0, 0, 0
169, 0, 0, 0
170, 0, 0, 0
171, 0, 0, 0
172, 0, 0, 0
173, 0, 0, 0
174, 0, 0, 0
175, 0, 0, 0
176, 0, 0, 0
177, 0, 0, 0
178, 0, 0, 0
179, 0, 0, 0
