# TOPAS Version: 3.3.p1
# Parameter File: Simple_Pattern.txt
# Results for scorer MLIC_Scorer
# Scored in component: MLIC
# X in 180 bins of 0.222222 cm
# Y in 1 bin  of 10 cm
# Z in 1 bin  of 10 cm
# EnergyDeposit ( MeV ) : Sum   
0, 0, 0, 1151.911499023438
1, 0, 0, 1161.106079101562
2, 0, 0, 1155.652465820312
3, 0, 0, 1163.997314453125
4, 0, 0, 1184.314086914062
5, 0, 0, 1184.009765625
6, 0, 0, 1199.95361328125
7, 0, 0, 1196.176025390625
8, 0, 0, 1202.590209960938
9, 0, 0, 1204.04248046875
10, 0, 0, 1217.477416992188
11, 0, 0, 1223.019775390625
12, 0, 0, 1233.00927734375
13, 0, 0, 1236.28076171875
14, 0, 0, 1243.286499023438
15, 0, 0, 1244.62744140625
16, 0, 0, 1261.128784179688
17, 0, 0, 1262.934204101562
18, 0, 0, 1277.235595703125
19, 0, 0, 1281.019653320312
20, 0, 0, 1290.258544921875
21, 0, 0, 1303.577880859375
22, 0, 0, 1312.209594726562
23, 0, 0, 1317.296997070312
24, 0, 0, 1329.443603515625
25, 0, 0, 1343.504028320312
26, 0, 0, 1352.283935546875
27, 0, 0, 1363.052978515625
28, 0, 0, 1383.587768554688
29, 0, 0, 1385.512451171875
30, 0, 0, 1394.106689453125
31, 0, 0, 1397.466674804688
32, 0, 0, 1422.23291015625
33, 0, 0, 1428.256713867188
34, 0, 0, 1451.120849609375
35, 0, 0, 1453.406494140625
36, 0, 0, 1465.771728515625
37, 0, 0, 1484.7333984375
38, 0, 0, 1498.543090820312
39, 0, 0, 1512.43994140625
40, 0, 0, 1528.322509765625
41, 0, 0, 1547.984008789062
42, 0, 0, 1561.020751953125
43, 0, 0, 1578.74658203125
44, 0, 0, 1600.7470703125
45, 0, 0, 1616.33056640625
46, 0, 0, 1636.827392578125
47, 0, 0, 1666.995727539062
48, 0, 0, 1679.868896484375
49, 0, 0, 1702.573120117188
50, 0, 0, 1729.26611328125
51, 0, 0, 1753.875122070312
52, 0, 0, 1776.262817382812
53, 0, 0, 1808.329467773438
54, 0, 0, 1843.166259765625
55, 0, 0, 1869.34619140625
56, 0, 0, 1912.364135742188
57, 0, 0, 1936.14208984375
58, 0, 0, 1975.238891601562
59, 0, 0, 2018.778076171875
60, 0, 0, 2063.685791015625
61, 0, 0, 2108.593505859375
62, 0, 0, 2164.173583984375
63, 0, 0, 2218.490234375
64, 0, 0, 2279.300048828125
65, 0, 0, 2339.942626953125
66, 0, 0, 2421.762939453125
67, 0, 0, 2499.301025390625
68, 0, 0, 2599.669677734375
69, 0, 0, 2710.03515625
70, 0, 0, 2835.281494140625
71, 0, 0, 2975.327880859375
72, 0, 0, 3157.951416015625
73, 0, 0, 3381.53515625
74, 0, 0, 3672.642578125
75, 0, 0, 4079.77490234375
76, 0, 0, 4648.02099609375
77, 0, 0, 5566.634765625
78, 0, 0, 6162.384765625
79, 0, 0, 5816.3232421875
80, 0, 0, 4129.07763671875
81, 0, 0, 2368.767333984375
82, 0, 0, 839.4342041015625
83, 0, 0, 286.5313110351562
84, 0, 0, 114.3865127563477
85, 0, 0, 78.31358337402344
86, 0, 0, 57.82427215576172
87, 0, 0, 31.75297164916992
88, 0, 0, 20.82578659057617
89, 0, 0, 21.1997184753418
90, 0, 0, 26.2287483215332
91, 0, 0, 10.7130880355835
92, 0, 0, 4.072067737579346
93, 0, 0, 0
94, 0, 0, 0
95, 0, 0, 0
96, 0, 0, 0
97, 0, 0, 0
98, 0, 0, 0
99, 0, 0, 0
100, 0, 0, 0
101, 0, 0, 0
102, 0, 0, 0
103, 0, 0, 0
104, 0, 0, 0
105, 0, 0, 0
106, 0, 0, 0
107, 0, 0, 0
108, 0, 0, 0
109, 0, 0, 0
110, 0, 0, 0
111, 0, 0, 0
112, 0, 0, 0
113, 0, 0, 0
114, 0, 0, 0
115, 0, 0, 0
116, 0, 0, 0
117, 0, 0, 0
118, 0, 0, 0
119, 0, 0, 0
120, 0, 0, 0
121, 0, 0, 0
122, 0, 0, 0
123, 0, 0, 0
124, 0, 0, 0
125, 0, 0, 0
126, 0, 0, 0
127, 0, 0, 0
128, 0, 0, 0
129, 0, 0, 0
130, 0, 0, 0
131, 0, 0, 0
132, 0, 0, 0
133, 0, 0, 0
134, 0, 0, 0
135, 0, 0, 0
136, 0, 0, 0
137, 0, 0, 0
138, 0, 0, 0
139, 0, 0, 0
140, 0, 0, 0
141, 0, 0, 0
142, 0, 0, 0
143, 0, 0, 0
144, 0, 0, 0
145, 0, 0, 0
146, 0, 0, 0
147, 0, 0, 0
148, 0, 0, 0
149, 0, 0, 0
150, 0, 0, 0
151, 0, 0, 0
152, 0, 0, 0
153, 0, 0, 0
154, 0, 0, 0
155, 0, 0, 0
156, 0, 0, 0
157, 0, 0, 0
158, 0, 0, 0
159, 0, 0, 0
160, 0, 0, 0
161, 0, 0, 0
162, 0, 0, 0
163, 0, 0, 0
164, 0, 0, 0
165, 0, 0, 0
166, 0, 0, 0
167, 0, 0, 0
168, 0, 0, 0
169, 0, 0, 0
170, 0, 0, 0
171, 0, 0, 0
172, 0, 0, 0
173, 0, 0, 0
174, 0, 0, 0
175, 0, 0, 0
176, 0, 0, 0
177, 0, 0, 0
178, 0, 0, 0
179, 0, 0, 0
