# TOPAS Version: 3.3.p1
# Parameter File: Simple_Pattern.txt
# Results for scorer MLIC_Scorer
# Scored in component: MLIC
# X in 180 bins of 0.222222 cm
# Y in 1 bin  of 10 cm
# Z in 1 bin  of 10 cm
# EnergyDeposit ( MeV ) : Sum   
0, 0, 0, 45.6201057434082
1, 0, 0, 44.58245849609375
2, 0, 0, 43.8361701965332
3, 0, 0, 45.67099380493164
4, 0, 0, 45.06377410888672
5, 0, 0, 45.59362411499023
6, 0, 0, 45.86352157592773
7, 0, 0, 46.95095062255859
8, 0, 0, 49.90458679199219
9, 0, 0, 46.52970504760742
10, 0, 0, 46.23552322387695
11, 0, 0, 47.50755310058594
12, 0, 0, 47.94267272949219
13, 0, 0, 47.75336837768555
14, 0, 0, 47.10287475585938
15, 0, 0, 47.97873306274414
16, 0, 0, 47.82721328735352
17, 0, 0, 49.40598297119141
18, 0, 0, 49.71045684814453
19, 0, 0, 50.04315567016602
20, 0, 0, 50.1107177734375
21, 0, 0, 50.79703521728516
22, 0, 0, 50.32414245605469
23, 0, 0, 49.83202743530273
24, 0, 0, 52.77487182617188
25, 0, 0, 51.00888824462891
26, 0, 0, 52.59880828857422
27, 0, 0, 52.28935623168945
28, 0, 0, 52.80846786499023
29, 0, 0, 53.46194076538086
30, 0, 0, 53.18609619140625
31, 0, 0, 53.89184188842773
32, 0, 0, 53.56825256347656
33, 0, 0, 54.42675399780273
34, 0, 0, 54.72210693359375
35, 0, 0, 54.54369354248047
36, 0, 0, 55.36569976806641
37, 0, 0, 55.33323287963867
38, 0, 0, 56.40567398071289
39, 0, 0, 56.43513107299805
40, 0, 0, 58.35198974609375
41, 0, 0, 55.70602035522461
42, 0, 0, 58.56049346923828
43, 0, 0, 58.51257705688477
44, 0, 0, 59.48396301269531
45, 0, 0, 59.49430847167969
46, 0, 0, 61.10073471069336
47, 0, 0, 60.46338272094727
48, 0, 0, 61.34566116333008
49, 0, 0, 62.47687149047852
50, 0, 0, 61.62803268432617
51, 0, 0, 62.97554397583008
52, 0, 0, 64.44039916992188
53, 0, 0, 64.17566680908203
54, 0, 0, 66.26142883300781
55, 0, 0, 63.78512954711914
56, 0, 0, 67.53969573974609
57, 0, 0, 67.12831878662109
58, 0, 0, 66.78261566162109
59, 0, 0, 70.26080322265625
60, 0, 0, 67.37445068359375
61, 0, 0, 67.59492492675781
62, 0, 0, 71.35739898681641
63, 0, 0, 70.29534149169922
64, 0, 0, 71.87158966064453
65, 0, 0, 72.28726959228516
66, 0, 0, 73.22576904296875
67, 0, 0, 76.64734649658203
68, 0, 0, 77.78245544433594
69, 0, 0, 76.24110412597656
70, 0, 0, 77.54207611083984
71, 0, 0, 79.79161834716797
72, 0, 0, 83.04054260253906
73, 0, 0, 84.81661224365234
74, 0, 0, 86.20188140869141
75, 0, 0, 88.93716430664062
76, 0, 0, 89.21014404296875
77, 0, 0, 92.57855987548828
78, 0, 0, 94.07644653320312
79, 0, 0, 96.01462554931641
80, 0, 0, 99.12194061279297
81, 0, 0, 101.9617691040039
82, 0, 0, 106.6729202270508
83, 0, 0, 112.3797760009766
84, 0, 0, 117.2384262084961
85, 0, 0, 122.8356475830078
86, 0, 0, 132.0027160644531
87, 0, 0, 142.5892028808594
88, 0, 0, 156.4321746826172
89, 0, 0, 178.489990234375
90, 0, 0, 214.1720733642578
91, 0, 0, 255.7456512451172
92, 0, 0, 255.4124603271484
93, 0, 0, 202.78515625
94, 0, 0, 97.6456298828125
95, 0, 0, 28.16147232055664
96, 0, 0, 14.43158626556396
97, 0, 0, 0
98, 0, 0, 0
99, 0, 0, 0
100, 0, 0, 0
101, 0, 0, 0
102, 0, 0, 0
103, 0, 0, 0
104, 0, 0, 0
105, 0, 0, 0
106, 0, 0, 0
107, 0, 0, 0
108, 0, 0, 0
109, 0, 0, 0
110, 0, 0, 0
111, 0, 0, 0
112, 0, 0, 0
113, 0, 0, 0
114, 0, 0, 0
115, 0, 0, 0
116, 0, 0, 0
117, 0, 0, 0
118, 0, 0, 0
119, 0, 0, 0
120, 0, 0, 0
121, 0, 0, 0
122, 0, 0, 0
123, 0, 0, 0
124, 0, 0, 0
125, 0, 0, 0
126, 0, 0, 0
127, 0, 0, 0
128, 0, 0, 0
129, 0, 0, 0
130, 0, 0, 0
131, 0, 0, 0
132, 0, 0, 0
133, 0, 0, 0
134, 0, 0, 0
135, 0, 0, 0
136, 0, 0, 0
137, 0, 0, 0
138, 0, 0, 0
139, 0, 0, 0
140, 0, 0, 0
141, 0, 0, 0
142, 0, 0, 0
143, 0, 0, 0
144, 0, 0, 0
145, 0, 0, 0
146, 0, 0, 0
147, 0, 0, 0
148, 0, 0, 0
149, 0, 0, 0
150, 0, 0, 0
151, 0, 0, 0
152, 0, 0, 0
153, 0, 0, 0
154, 0, 0, 0
155, 0, 0, 0
156, 0, 0, 0
157, 0, 0, 0
158, 0, 0, 0
159, 0, 0, 0
160, 0, 0, 0
161, 0, 0, 0
162, 0, 0, 0
163, 0, 0, 0
164, 0, 0, 0
165, 0, 0, 0
166, 0, 0, 0
167, 0, 0, 0
168, 0, 0, 0
169, 0, 0, 0
170, 0, 0, 0
171, 0, 0, 0
172, 0, 0, 0
173, 0, 0, 0
174, 0, 0, 0
175, 0, 0, 0
176, 0, 0, 0
177, 0, 0, 0
178, 0, 0, 0
179, 0, 0, 0
