# TOPAS Version: 3.3.p1
# Parameter File: Simple_Pattern.txt
# Results for scorer MLIC_Scorer
# Scored in component: MLIC
# X in 180 bins of 0.222222 cm
# Y in 1 bin  of 10 cm
# Z in 1 bin  of 10 cm
# EnergyDeposit ( MeV ) : Sum   
0, 0, 0, 1092.271606445312
1, 0, 0, 1092.939819335938
2, 0, 0, 1099.008056640625
3, 0, 0, 1097.9248046875
4, 0, 0, 1111.268310546875
5, 0, 0, 1111.126342773438
6, 0, 0, 1115.14990234375
7, 0, 0, 1121.3154296875
8, 0, 0, 1131.934204101562
9, 0, 0, 1124.677856445312
10, 0, 0, 1136.399291992188
11, 0, 0, 1142.887451171875
12, 0, 0, 1147.434814453125
13, 0, 0, 1158.164428710938
14, 0, 0, 1160.892944335938
15, 0, 0, 1160.293334960938
16, 0, 0, 1165.53076171875
17, 0, 0, 1170.039794921875
18, 0, 0, 1178.830688476562
19, 0, 0, 1192.532470703125
20, 0, 0, 1193.445190429688
21, 0, 0, 1207.818481445312
22, 0, 0, 1201.890380859375
23, 0, 0, 1217.268310546875
24, 0, 0, 1221.15234375
25, 0, 0, 1230.455444335938
26, 0, 0, 1242.474975585938
27, 0, 0, 1241.5185546875
28, 0, 0, 1245.70361328125
29, 0, 0, 1257.449340820312
30, 0, 0, 1270.738891601562
31, 0, 0, 1275.146728515625
32, 0, 0, 1293.805786132812
33, 0, 0, 1293.734375
34, 0, 0, 1298.2958984375
35, 0, 0, 1316.414672851562
36, 0, 0, 1315.352783203125
37, 0, 0, 1328.807739257812
38, 0, 0, 1332.878540039062
39, 0, 0, 1350.147827148438
40, 0, 0, 1356.306884765625
41, 0, 0, 1369.700073242188
42, 0, 0, 1379.600708007812
43, 0, 0, 1397.628173828125
44, 0, 0, 1408.450927734375
45, 0, 0, 1416.057006835938
46, 0, 0, 1438.75341796875
47, 0, 0, 1436.194091796875
48, 0, 0, 1462.6328125
49, 0, 0, 1468.506469726562
50, 0, 0, 1475.548095703125
51, 0, 0, 1491.365478515625
52, 0, 0, 1506.623779296875
53, 0, 0, 1527.2119140625
54, 0, 0, 1546.32666015625
55, 0, 0, 1566.699096679688
56, 0, 0, 1577.937866210938
57, 0, 0, 1603.431762695312
58, 0, 0, 1618.365966796875
59, 0, 0, 1639.734985351562
60, 0, 0, 1667.953857421875
61, 0, 0, 1673.63671875
62, 0, 0, 1700.678466796875
63, 0, 0, 1725.842163085938
64, 0, 0, 1752.962524414062
65, 0, 0, 1781.3701171875
66, 0, 0, 1806.103881835938
67, 0, 0, 1828.450927734375
68, 0, 0, 1857.861450195312
69, 0, 0, 1896.685913085938
70, 0, 0, 1934.967163085938
71, 0, 0, 1966.777954101562
72, 0, 0, 2001.001831054688
73, 0, 0, 2044.90087890625
74, 0, 0, 2091.985107421875
75, 0, 0, 2143.9169921875
76, 0, 0, 2200.0556640625
77, 0, 0, 2261.77880859375
78, 0, 0, 2324.094970703125
79, 0, 0, 2403.1435546875
80, 0, 0, 2479.729248046875
81, 0, 0, 2580.828857421875
82, 0, 0, 2684.63525390625
83, 0, 0, 2806.33740234375
84, 0, 0, 2955.438720703125
85, 0, 0, 3127.75634765625
86, 0, 0, 3348.647216796875
87, 0, 0, 3626.133544921875
88, 0, 0, 4032.27099609375
89, 0, 0, 4612.26025390625
90, 0, 0, 5545.2587890625
91, 0, 0, 6011.86279296875
92, 0, 0, 5593.37451171875
93, 0, 0, 4290.59521484375
94, 0, 0, 2413.958984375
95, 0, 0, 762.3732299804688
96, 0, 0, 158.0905456542969
97, 0, 0, 12.47324848175049
98, 0, 0, 0
99, 0, 0, 0
100, 0, 0, 0
101, 0, 0, 0
102, 0, 0, 0
103, 0, 0, 0
104, 0, 0, 0
105, 0, 0, 0
106, 0, 0, 0.0002039375540334731
107, 0, 0, 0
108, 0, 0, 0
109, 0, 0, 0
110, 0, 0, 0
111, 0, 0, 0
112, 0, 0, 0
113, 0, 0, 0
114, 0, 0, 0
115, 0, 0, 0
116, 0, 0, 0
117, 0, 0, 0.04827333614230156
118, 0, 0, 0
119, 0, 0, 0
120, 0, 0, 0
121, 0, 0, 0
122, 0, 0, 0
123, 0, 0, 0
124, 0, 0, 0
125, 0, 0, 0
126, 0, 0, 0
127, 0, 0, 0
128, 0, 0, 0
129, 0, 0, 0
130, 0, 0, 0
131, 0, 0, 0
132, 0, 0, 0
133, 0, 0, 0
134, 0, 0, 0
135, 0, 0, 0
136, 0, 0, 0
137, 0, 0, 0
138, 0, 0, 0
139, 0, 0, 0
140, 0, 0, 0
141, 0, 0, 0
142, 0, 0, 0
143, 0, 0, 0
144, 0, 0, 0
145, 0, 0, 0
146, 0, 0, 0
147, 0, 0, 0
148, 0, 0, 0
149, 0, 0, 0
150, 0, 0, 0
151, 0, 0, 0
152, 0, 0, 0
153, 0, 0, 0
154, 0, 0, 0
155, 0, 0, 0
156, 0, 0, 0
157, 0, 0, 0
158, 0, 0, 0
159, 0, 0, 0
160, 0, 0, 0
161, 0, 0, 0
162, 0, 0, 0
163, 0, 0, 0
164, 0, 0, 0
165, 0, 0, 0
166, 0, 0, 0
167, 0, 0, 0
168, 0, 0, 0
169, 0, 0, 0
170, 0, 0, 0
171, 0, 0, 0
172, 0, 0, 0
173, 0, 0, 0
174, 0, 0, 0
175, 0, 0, 0
176, 0, 0, 0
177, 0, 0, 0
178, 0, 0, 0
179, 0, 0, 0
