# TOPAS Version: 3.3.p1
# Parameter File: Simple_Pattern.txt
# Results for scorer MLIC_Scorer
# Scored in component: MLIC
# X in 180 bins of 0.222222 cm
# Y in 1 bin  of 10 cm
# Z in 1 bin  of 10 cm
# EnergyDeposit ( MeV ) : Sum   
0, 0, 0, 44.99386596679688
1, 0, 0, 45.88033676147461
2, 0, 0, 46.60417938232422
3, 0, 0, 45.73784255981445
4, 0, 0, 47.18202972412109
5, 0, 0, 46.17848587036133
6, 0, 0, 44.85723114013672
7, 0, 0, 47.94451904296875
8, 0, 0, 47.36225128173828
9, 0, 0, 47.60525512695312
10, 0, 0, 48.04752349853516
11, 0, 0, 45.84394454956055
12, 0, 0, 48.45948028564453
13, 0, 0, 49.76183700561523
14, 0, 0, 49.62778091430664
15, 0, 0, 48.43667984008789
16, 0, 0, 49.52002716064453
17, 0, 0, 49.66546630859375
18, 0, 0, 48.82582855224609
19, 0, 0, 50.3282356262207
20, 0, 0, 49.89249038696289
21, 0, 0, 49.8016471862793
22, 0, 0, 50.96422576904297
23, 0, 0, 50.24958419799805
24, 0, 0, 51.30864334106445
25, 0, 0, 52.15082931518555
26, 0, 0, 53.65099334716797
27, 0, 0, 52.55400848388672
28, 0, 0, 51.36783599853516
29, 0, 0, 53.82253646850586
30, 0, 0, 53.95818710327148
31, 0, 0, 57.26866912841797
32, 0, 0, 54.97661209106445
33, 0, 0, 55.31871795654297
34, 0, 0, 53.10926055908203
35, 0, 0, 56.04747009277344
36, 0, 0, 56.78211212158203
37, 0, 0, 56.55501556396484
38, 0, 0, 56.98198699951172
39, 0, 0, 56.83078765869141
40, 0, 0, 58.418701171875
41, 0, 0, 58.54872894287109
42, 0, 0, 60.62454605102539
43, 0, 0, 61.01847839355469
44, 0, 0, 59.96232223510742
45, 0, 0, 60.78934478759766
46, 0, 0, 60.59946823120117
47, 0, 0, 61.53576278686523
48, 0, 0, 62.26760482788086
49, 0, 0, 62.68619537353516
50, 0, 0, 63.49748611450195
51, 0, 0, 63.85799026489258
52, 0, 0, 64.19089508056641
53, 0, 0, 66.70146942138672
54, 0, 0, 67.83002471923828
55, 0, 0, 69.08735656738281
56, 0, 0, 68.92527008056641
57, 0, 0, 68.96262359619141
58, 0, 0, 71.16436767578125
59, 0, 0, 73.47829437255859
60, 0, 0, 75.82854461669922
61, 0, 0, 74.89897918701172
62, 0, 0, 74.11005401611328
63, 0, 0, 75.76031494140625
64, 0, 0, 78.40786743164062
65, 0, 0, 80.192626953125
66, 0, 0, 81.85512542724609
67, 0, 0, 83.86465454101562
68, 0, 0, 85.24672698974609
69, 0, 0, 88.74198150634766
70, 0, 0, 91.55506134033203
71, 0, 0, 94.81605529785156
72, 0, 0, 95.86879730224609
73, 0, 0, 101.6409225463867
74, 0, 0, 104.6446533203125
75, 0, 0, 112.1416702270508
76, 0, 0, 118.4409332275391
77, 0, 0, 131.2416229248047
78, 0, 0, 137.9552917480469
79, 0, 0, 157.8487548828125
80, 0, 0, 129.0570831298828
81, 0, 0, 96.60179138183594
82, 0, 0, 100.7339706420898
83, 0, 0, 84.57209777832031
84, 0, 0, 90.30248260498047
85, 0, 0, 93.46997833251953
86, 0, 0, 102.8422088623047
87, 0, 0, 111.6344146728516
88, 0, 0, 127.6403961181641
89, 0, 0, 134.6345977783203
90, 0, 0, 171.5541839599609
91, 0, 0, 190.5976104736328
92, 0, 0, 168.5492706298828
93, 0, 0, 85.52500915527344
94, 0, 0, 47.19049072265625
95, 0, 0, 5.361786365509033
96, 0, 0, 0
97, 0, 0, 0
98, 0, 0, 0
99, 0, 0, 0
100, 0, 0, 0
101, 0, 0, 0
102, 0, 0, 0
103, 0, 0, 0
104, 0, 0, 0
105, 0, 0, 0
106, 0, 0, 0
107, 0, 0, 0
108, 0, 0, 0
109, 0, 0, 0
110, 0, 0, 0
111, 0, 0, 0
112, 0, 0, 0
113, 0, 0, 0
114, 0, 0, 0
115, 0, 0, 0
116, 0, 0, 0
117, 0, 0, 0
118, 0, 0, 0
119, 0, 0, 0
120, 0, 0, 0
121, 0, 0, 0
122, 0, 0, 0
123, 0, 0, 0
124, 0, 0, 0
125, 0, 0, 0
126, 0, 0, 0
127, 0, 0, 0
128, 0, 0, 0
129, 0, 0, 0
130, 0, 0, 0
131, 0, 0, 0
132, 0, 0, 0
133, 0, 0, 0
134, 0, 0, 0
135, 0, 0, 0
136, 0, 0, 0
137, 0, 0, 0
138, 0, 0, 0
139, 0, 0, 0
140, 0, 0, 0
141, 0, 0, 0
142, 0, 0, 0
143, 0, 0, 0
144, 0, 0, 0
145, 0, 0, 0
146, 0, 0, 0
147, 0, 0, 0
148, 0, 0, 0
149, 0, 0, 0
150, 0, 0, 0
151, 0, 0, 0
152, 0, 0, 0
153, 0, 0, 0
154, 0, 0, 0
155, 0, 0, 0
156, 0, 0, 0
157, 0, 0, 0
158, 0, 0, 0
159, 0, 0, 0
160, 0, 0, 0
161, 0, 0, 0
162, 0, 0, 0
163, 0, 0, 0
164, 0, 0, 0
165, 0, 0, 0
166, 0, 0, 0
167, 0, 0, 0
168, 0, 0, 0
169, 0, 0, 0
170, 0, 0, 0
171, 0, 0, 0
172, 0, 0, 0
173, 0, 0, 0
174, 0, 0, 0
175, 0, 0, 0
176, 0, 0, 0
177, 0, 0, 0
178, 0, 0, 0
179, 0, 0, 0
