# TOPAS Version: 3.3.p1
# Parameter File: Simple_Pattern.txt
# Results for scorer MLIC_Scorer
# Scored in component: MLIC
# X in 180 bins of 0.222222 cm
# Y in 1 bin  of 10 cm
# Z in 1 bin  of 10 cm
# EnergyDeposit ( MeV ) : Sum   
0, 0, 0, 1081.190063476562
1, 0, 0, 1086.268310546875
2, 0, 0, 1089.457275390625
3, 0, 0, 1096.700073242188
4, 0, 0, 1109.48828125
5, 0, 0, 1107.725463867188
6, 0, 0, 1113.975952148438
7, 0, 0, 1107.761962890625
8, 0, 0, 1120.555053710938
9, 0, 0, 1123.749633789062
10, 0, 0, 1121.990112304688
11, 0, 0, 1134.354858398438
12, 0, 0, 1130.831176757812
13, 0, 0, 1144.484375
14, 0, 0, 1143.001953125
15, 0, 0, 1142.905029296875
16, 0, 0, 1151.456909179688
17, 0, 0, 1151.282592773438
18, 0, 0, 1153.234741210938
19, 0, 0, 1166.15966796875
20, 0, 0, 1165.496459960938
21, 0, 0, 1169.225463867188
22, 0, 0, 1170.932006835938
23, 0, 0, 1181.304443359375
24, 0, 0, 1181.238647460938
25, 0, 0, 1191.097290039062
26, 0, 0, 1191.86279296875
27, 0, 0, 1197.426635742188
28, 0, 0, 1200.238891601562
29, 0, 0, 1205.3837890625
30, 0, 0, 1213.573852539062
31, 0, 0, 1204.787353515625
32, 0, 0, 1217.732055664062
33, 0, 0, 1211.198120117188
34, 0, 0, 1216.887817382812
35, 0, 0, 1231.148559570312
36, 0, 0, 1231.500122070312
37, 0, 0, 1235.826293945312
38, 0, 0, 1237.220336914062
39, 0, 0, 1242.4326171875
40, 0, 0, 1258.976928710938
41, 0, 0, 1262.724243164062
42, 0, 0, 1261.527465820312
43, 0, 0, 1278.533081054688
44, 0, 0, 1277.67578125
45, 0, 0, 1294.026245117188
46, 0, 0, 1289.785034179688
47, 0, 0, 1294.707275390625
48, 0, 0, 1298.696899414062
49, 0, 0, 1292.780883789062
50, 0, 0, 1304.44091796875
51, 0, 0, 1317.559936523438
52, 0, 0, 1335.973876953125
53, 0, 0, 1334.7421875
54, 0, 0, 1347.607788085938
55, 0, 0, 1356.773071289062
56, 0, 0, 1373.539428710938
57, 0, 0, 1385.964111328125
58, 0, 0, 1385.76318359375
59, 0, 0, 1400.77001953125
60, 0, 0, 1409.735717773438
61, 0, 0, 1420.900634765625
62, 0, 0, 1439.761962890625
63, 0, 0, 1441.152709960938
64, 0, 0, 1455.697875976562
65, 0, 0, 1487.033081054688
66, 0, 0, 1495.162109375
67, 0, 0, 1516.994506835938
68, 0, 0, 1539.838134765625
69, 0, 0, 1562.235473632812
70, 0, 0, 1578.12744140625
71, 0, 0, 1600.5517578125
72, 0, 0, 1628.560668945312
73, 0, 0, 1649.78125
74, 0, 0, 1691.704711914062
75, 0, 0, 1704.377075195312
76, 0, 0, 1747.32763671875
77, 0, 0, 1785.423828125
78, 0, 0, 1836.579467773438
79, 0, 0, 1894.90966796875
80, 0, 0, 1942.726806640625
81, 0, 0, 2009.452270507812
82, 0, 0, 2090.66748046875
83, 0, 0, 2179.26123046875
84, 0, 0, 2279.7568359375
85, 0, 0, 2402.537841796875
86, 0, 0, 2565.7294921875
87, 0, 0, 2768.110107421875
88, 0, 0, 3078.713623046875
89, 0, 0, 3510.957275390625
90, 0, 0, 4261.64599609375
91, 0, 0, 4616.6494140625
92, 0, 0, 4327.75634765625
93, 0, 0, 3220.102783203125
94, 0, 0, 1642.733276367188
95, 0, 0, 487.5971374511719
96, 0, 0, 73.52865600585938
97, 0, 0, 9.474918365478516
98, 0, 0, 0.004405671264976263
99, 0, 0, 0.05553936958312988
100, 0, 0, 0
101, 0, 0, 0.04200225323438644
102, 0, 0, 0
103, 0, 0, 0.0729968473315239
104, 0, 0, 0.009206556715071201
105, 0, 0, 0.04576827213168144
106, 0, 0, 0.09015356004238129
107, 0, 0, 0
108, 0, 0, 0.04732020571827888
109, 0, 0, 0.007448282092809677
110, 0, 0, 0
111, 0, 0, 0.003866629209369421
112, 0, 0, 0
113, 0, 0, 0
114, 0, 0, 0.03025281429290771
115, 0, 0, 0.02867447026073933
116, 0, 0, 0
117, 0, 0, 0
118, 0, 0, 0
119, 0, 0, 0.02006678469479084
120, 0, 0, 0
121, 0, 0, 0
122, 0, 0, 0
123, 0, 0, 0.004570735618472099
124, 0, 0, 0
125, 0, 0, 0
126, 0, 0, 0
127, 0, 0, 0.01339286100119352
128, 0, 0, 0.01945986412465572
129, 0, 0, 0
130, 0, 0, 0.04088563472032547
131, 0, 0, 0
132, 0, 0, 0.02801043540239334
133, 0, 0, 0
134, 0, 0, 0.04783809930086136
135, 0, 0, 0
136, 0, 0, 0
137, 0, 0, 0
138, 0, 0, 0
139, 0, 0, 0
140, 0, 0, 0
141, 0, 0, 0
142, 0, 0, 0
143, 0, 0, 0
144, 0, 0, 0
145, 0, 0, 0.04776481539011002
146, 0, 0, 0
147, 0, 0, 0
148, 0, 0, 0
149, 0, 0, 0
150, 0, 0, 0
151, 0, 0, 0.1000680923461914
152, 0, 0, 0
153, 0, 0, 0.08866124600172043
154, 0, 0, 0
155, 0, 0, 0
156, 0, 0, 0.224768728017807
157, 0, 0, 0.03025105595588684
158, 0, 0, 0
159, 0, 0, 0.08134332299232483
160, 0, 0, 0
161, 0, 0, 0.000676192925311625
162, 0, 0, 0
163, 0, 0, 0
164, 0, 0, 0
165, 0, 0, 0
166, 0, 0, 0.03263182938098907
167, 0, 0, 0
168, 0, 0, 0
169, 0, 0, 0
170, 0, 0, 0
171, 0, 0, 0
172, 0, 0, 0
173, 0, 0, 0
174, 0, 0, 0
175, 0, 0, 0
176, 0, 0, 0
177, 0, 0, 0.0420948825776577
178, 0, 0, 0
179, 0, 0, 0
