# TOPAS Version: 3.3.p1
# Parameter File: Simple_Pattern.txt
# Results for scorer MLIC_Scorer
# Scored in component: MLIC
# X in 180 bins of 0.222222 cm
# Y in 1 bin  of 10 cm
# Z in 1 bin  of 10 cm
# EnergyDeposit ( MeV ) : Sum   
0, 0, 0, 58.54512405395508
1, 0, 0, 59.39285278320312
2, 0, 0, 59.72385406494141
3, 0, 0, 58.05669784545898
4, 0, 0, 61.07074737548828
5, 0, 0, 59.34699249267578
6, 0, 0, 60.89017105102539
7, 0, 0, 58.73907089233398
8, 0, 0, 59.54457092285156
9, 0, 0, 62.82900619506836
10, 0, 0, 60.94812393188477
11, 0, 0, 62.79647827148438
12, 0, 0, 64.98931121826172
13, 0, 0, 63.5582389831543
14, 0, 0, 65.27923583984375
15, 0, 0, 63.22719573974609
16, 0, 0, 64.60092163085938
17, 0, 0, 64.23946380615234
18, 0, 0, 64.52675628662109
19, 0, 0, 62.93100738525391
20, 0, 0, 66.56801605224609
21, 0, 0, 68.27403259277344
22, 0, 0, 66.90212249755859
23, 0, 0, 67.06584167480469
24, 0, 0, 64.88386535644531
25, 0, 0, 66.89955139160156
26, 0, 0, 68.41564178466797
27, 0, 0, 68.48432159423828
28, 0, 0, 70.11994171142578
29, 0, 0, 71.05220031738281
30, 0, 0, 69.02539825439453
31, 0, 0, 69.85665893554688
32, 0, 0, 72.75003051757812
33, 0, 0, 72.39617156982422
34, 0, 0, 72.22467803955078
35, 0, 0, 74.64939880371094
36, 0, 0, 73.45511627197266
37, 0, 0, 76.39743804931641
38, 0, 0, 79.03632354736328
39, 0, 0, 77.83064270019531
40, 0, 0, 78.2855224609375
41, 0, 0, 76.64496612548828
42, 0, 0, 78.98765563964844
43, 0, 0, 81.56814575195312
44, 0, 0, 81.12017059326172
45, 0, 0, 81.34290313720703
46, 0, 0, 83.05622863769531
47, 0, 0, 81.54148864746094
48, 0, 0, 84.06034851074219
49, 0, 0, 87.43650054931641
50, 0, 0, 87.24758148193359
51, 0, 0, 87.47055816650391
52, 0, 0, 89.35402679443359
53, 0, 0, 90.98523712158203
54, 0, 0, 93.14383697509766
55, 0, 0, 94.51160430908203
56, 0, 0, 96.55678558349609
57, 0, 0, 97.81936645507812
58, 0, 0, 98.65084838867188
59, 0, 0, 102.3081970214844
60, 0, 0, 103.9527282714844
61, 0, 0, 105.6130599975586
62, 0, 0, 108.5805587768555
63, 0, 0, 111.7593994140625
64, 0, 0, 113.9622802734375
65, 0, 0, 117.7341461181641
66, 0, 0, 121.7629852294922
67, 0, 0, 125.8076553344727
68, 0, 0, 130.6432647705078
69, 0, 0, 137.1945190429688
70, 0, 0, 140.8828582763672
71, 0, 0, 147.0884552001953
72, 0, 0, 156.2566223144531
73, 0, 0, 167.7727203369141
74, 0, 0, 178.56689453125
75, 0, 0, 197.1316070556641
76, 0, 0, 222.5409851074219
77, 0, 0, 266.0209350585938
78, 0, 0, 315.2565002441406
79, 0, 0, 325.4400329589844
80, 0, 0, 266.1430969238281
81, 0, 0, 129.0371704101562
82, 0, 0, 61.54069519042969
83, 0, 0, 10.1470890045166
84, 0, 0, 3.240549325942993
85, 0, 0, 3.43967342376709
86, 0, 0, 3.514130353927612
87, 0, 0, 4.410416603088379
88, 0, 0, 4.789872169494629
89, 0, 0, 6.008735656738281
90, 0, 0, 8.793184280395508
91, 0, 0, 7.716701507568359
92, 0, 0, 0
93, 0, 0, 0
94, 0, 0, 0
95, 0, 0, 0
96, 0, 0, 0
97, 0, 0, 0
98, 0, 0, 0
99, 0, 0, 0
100, 0, 0, 0
101, 0, 0, 0
102, 0, 0, 0
103, 0, 0, 0
104, 0, 0, 0
105, 0, 0, 0
106, 0, 0, 0
107, 0, 0, 0
108, 0, 0, 0
109, 0, 0, 0
110, 0, 0, 0
111, 0, 0, 0
112, 0, 0, 0
113, 0, 0, 0
114, 0, 0, 0
115, 0, 0, 0
116, 0, 0, 0
117, 0, 0, 0
118, 0, 0, 0
119, 0, 0, 0
120, 0, 0, 0
121, 0, 0, 0
122, 0, 0, 0
123, 0, 0, 0
124, 0, 0, 0
125, 0, 0, 0
126, 0, 0, 0
127, 0, 0, 0
128, 0, 0, 0
129, 0, 0, 0
130, 0, 0, 0
131, 0, 0, 0
132, 0, 0, 0
133, 0, 0, 0
134, 0, 0, 0
135, 0, 0, 0
136, 0, 0, 0
137, 0, 0, 0
138, 0, 0, 0
139, 0, 0, 0
140, 0, 0, 0
141, 0, 0, 0
142, 0, 0, 0
143, 0, 0, 0
144, 0, 0, 0
145, 0, 0, 0
146, 0, 0, 0
147, 0, 0, 0
148, 0, 0, 0
149, 0, 0, 0
150, 0, 0, 0
151, 0, 0, 0
152, 0, 0, 0
153, 0, 0, 0
154, 0, 0, 0
155, 0, 0, 0
156, 0, 0, 0
157, 0, 0, 0
158, 0, 0, 0
159, 0, 0, 0
160, 0, 0, 0
161, 0, 0, 0
162, 0, 0, 0
163, 0, 0, 0
164, 0, 0, 0
165, 0, 0, 0
166, 0, 0, 0
167, 0, 0, 0
168, 0, 0, 0
169, 0, 0, 0
170, 0, 0, 0
171, 0, 0, 0
172, 0, 0, 0
173, 0, 0, 0
174, 0, 0, 0
175, 0, 0, 0
176, 0, 0, 0
177, 0, 0, 0
178, 0, 0, 0
179, 0, 0, 0
