# TOPAS Version: 3.3.p1
# Parameter File: Simple_Pattern.txt
# Results for scorer MLIC_Scorer
# Scored in component: MLIC
# X in 165 bins of 0.2 cm
# Y in 1 bin  of 10 cm
# Z in 1 bin  of 10 cm
# EnergyDeposit ( MeV ) : Sum   
0, 0, 0, 935.9583129882812
1, 0, 0, 943.072265625
2, 0, 0, 939.5748291015625
3, 0, 0, 942.8623657226562
4, 0, 0, 954.0984497070312
5, 0, 0, 953.6928100585938
6, 0, 0, 959.9884643554688
7, 0, 0, 957.9908447265625
8, 0, 0, 964.1090698242188
9, 0, 0, 966.435791015625
10, 0, 0, 966.5897827148438
11, 0, 0, 976.6655883789062
12, 0, 0, 974.929931640625
13, 0, 0, 987.0526733398438
14, 0, 0, 988.4226684570312
15, 0, 0, 996.3917846679688
16, 0, 0, 990.4510498046875
17, 0, 0, 989.06494140625
18, 0, 0, 999.0682983398438
19, 0, 0, 1007.220275878906
20, 0, 0, 1006.021850585938
21, 0, 0, 1012.336364746094
22, 0, 0, 1019.318054199219
23, 0, 0, 1031.024291992188
24, 0, 0, 1027.003540039062
25, 0, 0, 1031.888549804688
26, 0, 0, 1035.942260742188
27, 0, 0, 1035.546508789062
28, 0, 0, 1041.47314453125
29, 0, 0, 1050.768310546875
30, 0, 0, 1050.259887695312
31, 0, 0, 1055.896362304688
32, 0, 0, 1064.83251953125
33, 0, 0, 1069.537231445312
34, 0, 0, 1063.316284179688
35, 0, 0, 1076.349853515625
36, 0, 0, 1079.759643554688
37, 0, 0, 1089.320556640625
38, 0, 0, 1094.108276367188
39, 0, 0, 1098.57421875
40, 0, 0, 1108.111328125
41, 0, 0, 1110.894409179688
42, 0, 0, 1109.633544921875
43, 0, 0, 1124.967895507812
44, 0, 0, 1127.645263671875
45, 0, 0, 1133.654296875
46, 0, 0, 1136.5009765625
47, 0, 0, 1145.176879882812
48, 0, 0, 1164.85107421875
49, 0, 0, 1169.543823242188
50, 0, 0, 1167.129638671875
51, 0, 0, 1176.136596679688
52, 0, 0, 1187.615478515625
53, 0, 0, 1187.449462890625
54, 0, 0, 1201.884887695312
55, 0, 0, 1212.50830078125
56, 0, 0, 1216.933349609375
57, 0, 0, 1221.201782226562
58, 0, 0, 1243.070922851562
59, 0, 0, 1247.395385742188
60, 0, 0, 1247.538208007812
61, 0, 0, 1260.911743164062
62, 0, 0, 1260.880249023438
63, 0, 0, 1283.138061523438
64, 0, 0, 1281.175048828125
65, 0, 0, 1299.981811523438
66, 0, 0, 1303.538330078125
67, 0, 0, 1325.105590820312
68, 0, 0, 1331.1083984375
69, 0, 0, 1338.648681640625
70, 0, 0, 1349.931274414062
71, 0, 0, 1377.0234375
72, 0, 0, 1382.66357421875
73, 0, 0, 1396.176147460938
74, 0, 0, 1406.351318359375
75, 0, 0, 1415.729370117188
76, 0, 0, 1434.770141601562
77, 0, 0, 1442.781127929688
78, 0, 0, 1463.536987304688
79, 0, 0, 1487.86767578125
80, 0, 0, 1504.327270507812
81, 0, 0, 1518.234008789062
82, 0, 0, 1544.609741210938
83, 0, 0, 1556.86962890625
84, 0, 0, 1582.870849609375
85, 0, 0, 1604.22998046875
86, 0, 0, 1634.39599609375
87, 0, 0, 1651.86962890625
88, 0, 0, 1675.127197265625
89, 0, 0, 1716.718627929688
90, 0, 0, 1736.60400390625
91, 0, 0, 1762.265380859375
92, 0, 0, 1795.1884765625
93, 0, 0, 1830.9287109375
94, 0, 0, 1862.63818359375
95, 0, 0, 1899.725708007812
96, 0, 0, 1942.323364257812
97, 0, 0, 1985.04443359375
98, 0, 0, 2036.588989257812
99, 0, 0, 2098.16162109375
100, 0, 0, 2160.662841796875
101, 0, 0, 2221.095947265625
102, 0, 0, 2287.360107421875
103, 0, 0, 2377.43994140625
104, 0, 0, 2474.423095703125
105, 0, 0, 2584.340087890625
106, 0, 0, 2708.26025390625
107, 0, 0, 2866.80712890625
108, 0, 0, 3054.0478515625
109, 0, 0, 3302.98681640625
110, 0, 0, 3658.466796875
111, 0, 0, 4150.48388671875
112, 0, 0, 4734.44140625
113, 0, 0, 5270.73779296875
114, 0, 0, 5318.37255859375
115, 0, 0, 4461.07275390625
116, 0, 0, 2959.87744140625
117, 0, 0, 1385.570922851562
118, 0, 0, 433.6980895996094
119, 0, 0, 113.1834182739258
120, 0, 0, 27.94466400146484
121, 0, 0, 0
122, 0, 0, 0
123, 0, 0, 0.02127344533801079
124, 0, 0, 0
125, 0, 0, 0
126, 0, 0, 0
127, 0, 0, 0
128, 0, 0, 0
129, 0, 0, 0
130, 0, 0, 0
131, 0, 0, 0
132, 0, 0, 0
133, 0, 0, 0
134, 0, 0, 0
135, 0, 0, 0
136, 0, 0, 0
137, 0, 0, 0
138, 0, 0, 0
139, 0, 0, 0
140, 0, 0, 0
141, 0, 0, 0.02052083238959312
142, 0, 0, 0
143, 0, 0, 0
144, 0, 0, 0
145, 0, 0, 0
146, 0, 0, 0
147, 0, 0, 0
148, 0, 0, 0
149, 0, 0, 0
150, 0, 0, 0
151, 0, 0, 0
152, 0, 0, 0
153, 0, 0, 0
154, 0, 0, 0
155, 0, 0, 0
156, 0, 0, 0
157, 0, 0, 0
158, 0, 0, 0
159, 0, 0, 0
160, 0, 0, 0
161, 0, 0, 0
162, 0, 0, 0
163, 0, 0, 0
164, 0, 0, 0
