# TOPAS Version: 3.3.p1
# Parameter File: Simple_Pattern.txt
# Results for scorer MLIC_Scorer
# Scored in component: MLIC
# X in 165 bins of 0.2 cm
# Y in 1 bin  of 10 cm
# Z in 1 bin  of 10 cm
# EnergyDeposit ( MeV ) : Sum   
0, 0, 0, 961.8514404296875
1, 0, 0, 968.6983642578125
2, 0, 0, 965.073974609375
3, 0, 0, 968.77978515625
4, 0, 0, 977.07763671875
5, 0, 0, 985.63623046875
6, 0, 0, 985.9120483398438
7, 0, 0, 987.172607421875
8, 0, 0, 994.6056518554688
9, 0, 0, 995.88037109375
10, 0, 0, 1009.3701171875
11, 0, 0, 1003.224426269531
12, 0, 0, 1007.878662109375
13, 0, 0, 1005.640747070312
14, 0, 0, 1016.706420898438
15, 0, 0, 1018.196594238281
16, 0, 0, 1033.574340820312
17, 0, 0, 1020.638854980469
18, 0, 0, 1040.264770507812
19, 0, 0, 1039.7548828125
20, 0, 0, 1039.76171875
21, 0, 0, 1050.815795898438
22, 0, 0, 1052.533447265625
23, 0, 0, 1051.302001953125
24, 0, 0, 1058.818603515625
25, 0, 0, 1070.625610351562
26, 0, 0, 1067.563110351562
27, 0, 0, 1075.648315429688
28, 0, 0, 1085.608154296875
29, 0, 0, 1091.590209960938
30, 0, 0, 1095.994018554688
31, 0, 0, 1097.823364257812
32, 0, 0, 1102.531616210938
33, 0, 0, 1114.223754882812
34, 0, 0, 1116.904174804688
35, 0, 0, 1122.1396484375
36, 0, 0, 1133.709594726562
37, 0, 0, 1139.671997070312
38, 0, 0, 1142.27587890625
39, 0, 0, 1149.93505859375
40, 0, 0, 1162.742065429688
41, 0, 0, 1164.37060546875
42, 0, 0, 1170.3544921875
43, 0, 0, 1185.526611328125
44, 0, 0, 1181.214721679688
45, 0, 0, 1190.479736328125
46, 0, 0, 1198.008544921875
47, 0, 0, 1217.126342773438
48, 0, 0, 1220.272705078125
49, 0, 0, 1227.580200195312
50, 0, 0, 1235.773803710938
51, 0, 0, 1243.924072265625
52, 0, 0, 1252.677612304688
53, 0, 0, 1259.552612304688
54, 0, 0, 1272.622314453125
55, 0, 0, 1278.096801757812
56, 0, 0, 1299.625732421875
57, 0, 0, 1309.2470703125
58, 0, 0, 1320.317749023438
59, 0, 0, 1330.844482421875
60, 0, 0, 1339.454467773438
61, 0, 0, 1357.872802734375
62, 0, 0, 1362.72900390625
63, 0, 0, 1370.081298828125
64, 0, 0, 1398.868041992188
65, 0, 0, 1406.470336914062
66, 0, 0, 1419.893310546875
67, 0, 0, 1432.864501953125
68, 0, 0, 1448.344116210938
69, 0, 0, 1470.303588867188
70, 0, 0, 1489.84912109375
71, 0, 0, 1503.526123046875
72, 0, 0, 1519.485229492188
73, 0, 0, 1544.93701171875
74, 0, 0, 1558.890869140625
75, 0, 0, 1585.638671875
76, 0, 0, 1602.651611328125
77, 0, 0, 1631.456909179688
78, 0, 0, 1660.852416992188
79, 0, 0, 1677.407470703125
80, 0, 0, 1715.69482421875
81, 0, 0, 1745.807006835938
82, 0, 0, 1771.136474609375
83, 0, 0, 1812.984130859375
84, 0, 0, 1842.615600585938
85, 0, 0, 1883.462524414062
86, 0, 0, 1928.467895507812
87, 0, 0, 1970.6298828125
88, 0, 0, 2034.6142578125
89, 0, 0, 2086.025146484375
90, 0, 0, 2161.220703125
91, 0, 0, 2222.17041015625
92, 0, 0, 2315.5537109375
93, 0, 0, 2421.564208984375
94, 0, 0, 2541.684326171875
95, 0, 0, 2716.66796875
96, 0, 0, 2926.390380859375
97, 0, 0, 3221.51123046875
98, 0, 0, 3517.0634765625
99, 0, 0, 3727.00439453125
100, 0, 0, 3702.31884765625
101, 0, 0, 3230.95654296875
102, 0, 0, 2618.2041015625
103, 0, 0, 1951.731323242188
104, 0, 0, 1598.625
105, 0, 0, 1435.967163085938
106, 0, 0, 1451.6875
107, 0, 0, 1511.619384765625
108, 0, 0, 1601.751708984375
109, 0, 0, 1712.288818359375
110, 0, 0, 1831.593505859375
111, 0, 0, 2011.644409179688
112, 0, 0, 2335.18115234375
113, 0, 0, 2620.041259765625
114, 0, 0, 2419.105224609375
115, 0, 0, 2056.208984375
116, 0, 0, 1381.596435546875
117, 0, 0, 589.3535766601562
118, 0, 0, 212.5398864746094
119, 0, 0, 58.15111541748047
120, 0, 0, 6.085073471069336
121, 0, 0, 0
122, 0, 0, 0.00218012765981257
123, 0, 0, 0
124, 0, 0, 0
125, 0, 0, 0
126, 0, 0, 0
127, 0, 0, 0
128, 0, 0, 0
129, 0, 0, 0
130, 0, 0, 0
131, 0, 0, 0
132, 0, 0, 0
133, 0, 0, 0
134, 0, 0, 0
135, 0, 0, 0
136, 0, 0, 0
137, 0, 0, 0
138, 0, 0, 0
139, 0, 0, 0
140, 0, 0, 0
141, 0, 0, 0
142, 0, 0, 0.003410364734008908
143, 0, 0, 0.07266532629728317
144, 0, 0, 0
145, 0, 0, 0
146, 0, 0, 0
147, 0, 0, 0
148, 0, 0, 0
149, 0, 0, 0
150, 0, 0, 0
151, 0, 0, 0
152, 0, 0, 0
153, 0, 0, 0
154, 0, 0, 0
155, 0, 0, 0
156, 0, 0, 0
157, 0, 0, 0
158, 0, 0, 0
159, 0, 0, 0
160, 0, 0, 0
161, 0, 0, 0
162, 0, 0, 0
163, 0, 0, 0
164, 0, 0, 0
