# TOPAS Version: 3.3.p1
# Parameter File: Simple_Pattern.txt
# Results for scorer MLIC_Scorer
# Scored in component: MLIC
# X in 180 bins of 0.222222 cm
# Y in 1 bin  of 10 cm
# Z in 1 bin  of 10 cm
# EnergyDeposit ( MeV ) : Sum   
0, 0, 0, 1085.951782226562
1, 0, 0, 1094.582153320312
2, 0, 0, 1089.947631835938
3, 0, 0, 1097.925659179688
4, 0, 0, 1106.391723632812
5, 0, 0, 1111.233642578125
6, 0, 0, 1120.186645507812
7, 0, 0, 1120.661010742188
8, 0, 0, 1125.1357421875
9, 0, 0, 1131.226440429688
10, 0, 0, 1138.573852539062
11, 0, 0, 1140.524291992188
12, 0, 0, 1154.463500976562
13, 0, 0, 1159.2158203125
14, 0, 0, 1155.080444335938
15, 0, 0, 1155.916381835938
16, 0, 0, 1175.939819335938
17, 0, 0, 1178.987670898438
18, 0, 0, 1183.573364257812
19, 0, 0, 1187.513793945312
20, 0, 0, 1196.687255859375
21, 0, 0, 1216.524536132812
22, 0, 0, 1216.48486328125
23, 0, 0, 1209.196044921875
24, 0, 0, 1217.81591796875
25, 0, 0, 1224.54541015625
26, 0, 0, 1235.612182617188
27, 0, 0, 1254.336791992188
28, 0, 0, 1249.739013671875
29, 0, 0, 1259.679077148438
30, 0, 0, 1263.988525390625
31, 0, 0, 1283.866455078125
32, 0, 0, 1289.803100585938
33, 0, 0, 1295.215209960938
34, 0, 0, 1299.065551757812
35, 0, 0, 1308.567993164062
36, 0, 0, 1314.127807617188
37, 0, 0, 1327.157592773438
38, 0, 0, 1345.987060546875
39, 0, 0, 1351.25048828125
40, 0, 0, 1360.5224609375
41, 0, 0, 1371.036987304688
42, 0, 0, 1392.018310546875
43, 0, 0, 1399.34033203125
44, 0, 0, 1395.499755859375
45, 0, 0, 1418.661010742188
46, 0, 0, 1422.298095703125
47, 0, 0, 1440.738647460938
48, 0, 0, 1453.964233398438
49, 0, 0, 1471.129760742188
50, 0, 0, 1478.873901367188
51, 0, 0, 1503.725463867188
52, 0, 0, 1511.741088867188
53, 0, 0, 1525.724487304688
54, 0, 0, 1545.70068359375
55, 0, 0, 1555.904907226562
56, 0, 0, 1579.570556640625
57, 0, 0, 1597.809326171875
58, 0, 0, 1621.622680664062
59, 0, 0, 1634.506225585938
60, 0, 0, 1661.631958007812
61, 0, 0, 1673.363647460938
62, 0, 0, 1706.004516601562
63, 0, 0, 1732.115112304688
64, 0, 0, 1750.612426757812
65, 0, 0, 1781.2216796875
66, 0, 0, 1806.364990234375
67, 0, 0, 1833.178955078125
68, 0, 0, 1865.5263671875
69, 0, 0, 1896.260375976562
70, 0, 0, 1939.357543945312
71, 0, 0, 1965.661987304688
72, 0, 0, 2005.247802734375
73, 0, 0, 2049.34228515625
74, 0, 0, 2102.4248046875
75, 0, 0, 2147.496826171875
76, 0, 0, 2201.50732421875
77, 0, 0, 2263.59765625
78, 0, 0, 2328.840576171875
79, 0, 0, 2406.402099609375
80, 0, 0, 2489.135498046875
81, 0, 0, 2582.487548828125
82, 0, 0, 2689.974365234375
83, 0, 0, 2804.227294921875
84, 0, 0, 2961.40283203125
85, 0, 0, 3137.33154296875
86, 0, 0, 3343.440185546875
87, 0, 0, 3639.1044921875
88, 0, 0, 4065.22509765625
89, 0, 0, 4679.39990234375
90, 0, 0, 5447.6728515625
91, 0, 0, 6200.61865234375
92, 0, 0, 5710.68212890625
93, 0, 0, 4015.609130859375
94, 0, 0, 2000.686279296875
95, 0, 0, 778.6486206054688
96, 0, 0, 137.5584411621094
97, 0, 0, 8.193594932556152
98, 0, 0, 0
99, 0, 0, 0
100, 0, 0, 0
101, 0, 0, 0
102, 0, 0, 0
103, 0, 0, 0
104, 0, 0, 0
105, 0, 0, 0
106, 0, 0, 0
107, 0, 0, 0
108, 0, 0, 0
109, 0, 0, 0
110, 0, 0, 0
111, 0, 0, 0
112, 0, 0, 0
113, 0, 0, 0
114, 0, 0, 0
115, 0, 0, 0
116, 0, 0, 0
117, 0, 0, 0
118, 0, 0, 0
119, 0, 0, 0
120, 0, 0, 0
121, 0, 0, 0
122, 0, 0, 0
123, 0, 0, 0
124, 0, 0, 0
125, 0, 0, 0
126, 0, 0, 0
127, 0, 0, 0
128, 0, 0, 0
129, 0, 0, 0
130, 0, 0, 0
131, 0, 0, 0
132, 0, 0, 0
133, 0, 0, 0
134, 0, 0, 0
135, 0, 0, 0
136, 0, 0, 0
137, 0, 0, 0
138, 0, 0, 0
139, 0, 0, 0
140, 0, 0, 0
141, 0, 0, 0
142, 0, 0, 0
143, 0, 0, 0
144, 0, 0, 0
145, 0, 0, 0
146, 0, 0, 0
147, 0, 0, 0
148, 0, 0, 0
149, 0, 0, 0
150, 0, 0, 0.04222889617085457
151, 0, 0, 0
152, 0, 0, 0
153, 0, 0, 0
154, 0, 0, 0
155, 0, 0, 0
156, 0, 0, 0
157, 0, 0, 0
158, 0, 0, 0
159, 0, 0, 0
160, 0, 0, 0.05086829140782356
161, 0, 0, 0
162, 0, 0, 0
163, 0, 0, 0
164, 0, 0, 0
165, 0, 0, 0
166, 0, 0, 0
167, 0, 0, 0
168, 0, 0, 0
169, 0, 0, 0
170, 0, 0, 0.0248271394520998
171, 0, 0, 0
172, 0, 0, 0
173, 0, 0, 0
174, 0, 0, 0
175, 0, 0, 0
176, 0, 0, 0
177, 0, 0, 0
178, 0, 0, 0
179, 0, 0, 0
