# TOPAS Version: 3.3.p1
# Parameter File: Simple_Pattern.txt
# Results for scorer MLIC_Scorer
# Scored in component: MLIC
# X in 165 bins of 0.2 cm
# Y in 1 bin  of 10 cm
# Z in 1 bin  of 10 cm
# EnergyDeposit ( MeV ) : Sum   
0, 0, 0, 934.8158569335938
1, 0, 0, 939.1776733398438
2, 0, 0, 941.2389526367188
3, 0, 0, 948.0452880859375
4, 0, 0, 951.6211547851562
5, 0, 0, 960.9046020507812
6, 0, 0, 960.1992797851562
7, 0, 0, 960.5128173828125
8, 0, 0, 964.3728637695312
9, 0, 0, 970.6224365234375
10, 0, 0, 971.2923583984375
11, 0, 0, 980.73779296875
12, 0, 0, 981.9678344726562
13, 0, 0, 988.1486206054688
14, 0, 0, 990.6915283203125
15, 0, 0, 996.9591674804688
16, 0, 0, 987.9696655273438
17, 0, 0, 1002.336242675781
18, 0, 0, 998.97509765625
19, 0, 0, 1005.609497070312
20, 0, 0, 1008.609436035156
21, 0, 0, 1010.132751464844
22, 0, 0, 1020.124938964844
23, 0, 0, 1021.605651855469
24, 0, 0, 1031.145874023438
25, 0, 0, 1028.1123046875
26, 0, 0, 1037.033935546875
27, 0, 0, 1043.302978515625
28, 0, 0, 1052.909545898438
29, 0, 0, 1041.865844726562
30, 0, 0, 1055.423828125
31, 0, 0, 1062.046142578125
32, 0, 0, 1062.111572265625
33, 0, 0, 1064.3193359375
34, 0, 0, 1074.054077148438
35, 0, 0, 1085.332763671875
36, 0, 0, 1082.518310546875
37, 0, 0, 1093.686157226562
38, 0, 0, 1096.466796875
39, 0, 0, 1100.116333007812
40, 0, 0, 1111.070556640625
41, 0, 0, 1115.744140625
42, 0, 0, 1114.700317382812
43, 0, 0, 1122.505859375
44, 0, 0, 1130.73291015625
45, 0, 0, 1134.960815429688
46, 0, 0, 1144.462158203125
47, 0, 0, 1155.74609375
48, 0, 0, 1154.6025390625
49, 0, 0, 1164.22705078125
50, 0, 0, 1173.886840820312
51, 0, 0, 1181.951904296875
52, 0, 0, 1191.7841796875
53, 0, 0, 1196.85986328125
54, 0, 0, 1205.378051757812
55, 0, 0, 1207.160400390625
56, 0, 0, 1224.571655273438
57, 0, 0, 1222.2509765625
58, 0, 0, 1237.824584960938
59, 0, 0, 1243.939086914062
60, 0, 0, 1253.873779296875
61, 0, 0, 1269.377563476562
62, 0, 0, 1277.057739257812
63, 0, 0, 1282.628051757812
64, 0, 0, 1300.642578125
65, 0, 0, 1305.543334960938
66, 0, 0, 1316.065551757812
67, 0, 0, 1330.148193359375
68, 0, 0, 1335.806030273438
69, 0, 0, 1352.542114257812
70, 0, 0, 1364.59130859375
71, 0, 0, 1380.838989257812
72, 0, 0, 1385.100341796875
73, 0, 0, 1404.191162109375
74, 0, 0, 1421.027954101562
75, 0, 0, 1433.425170898438
76, 0, 0, 1450.852661132812
77, 0, 0, 1465.427368164062
78, 0, 0, 1475.653198242188
79, 0, 0, 1497.788330078125
80, 0, 0, 1520.639526367188
81, 0, 0, 1532.652954101562
82, 0, 0, 1562.00341796875
83, 0, 0, 1575.867553710938
84, 0, 0, 1598.956176757812
85, 0, 0, 1620.202026367188
86, 0, 0, 1650.88623046875
87, 0, 0, 1669.049072265625
88, 0, 0, 1695.466552734375
89, 0, 0, 1721.394165039062
90, 0, 0, 1757.546752929688
91, 0, 0, 1781.902709960938
92, 0, 0, 1815.751220703125
93, 0, 0, 1852.317749023438
94, 0, 0, 1890.824096679688
95, 0, 0, 1932.8232421875
96, 0, 0, 1987.157836914062
97, 0, 0, 2032.804443359375
98, 0, 0, 2074.5751953125
99, 0, 0, 2139.5048828125
100, 0, 0, 2198.689697265625
101, 0, 0, 2271.018310546875
102, 0, 0, 2340.912109375
103, 0, 0, 2427.872314453125
104, 0, 0, 2530.4326171875
105, 0, 0, 2647.745849609375
106, 0, 0, 2778.954345703125
107, 0, 0, 2947.741943359375
108, 0, 0, 3156.17333984375
109, 0, 0, 3417.6142578125
110, 0, 0, 3786.9228515625
111, 0, 0, 4288.21630859375
112, 0, 0, 5005.7431640625
113, 0, 0, 5398.4345703125
114, 0, 0, 5185.82666015625
115, 0, 0, 4492.85986328125
116, 0, 0, 2815.3935546875
117, 0, 0, 1426.194213867188
118, 0, 0, 347.1212768554688
119, 0, 0, 88.42479705810547
120, 0, 0, 2.191846609115601
121, 0, 0, 0
122, 0, 0, 0
123, 0, 0, 0
124, 0, 0, 0
125, 0, 0, 0
126, 0, 0, 0.0004705186875071377
127, 0, 0, 0
128, 0, 0, 0.02932017482817173
129, 0, 0, 0
130, 0, 0, 0
131, 0, 0, 0
132, 0, 0, 0
133, 0, 0, 0
134, 0, 0, 0
135, 0, 0, 0
136, 0, 0, 0
137, 0, 0, 0
138, 0, 0, 0
139, 0, 0, 0
140, 0, 0, 0
141, 0, 0, 0
142, 0, 0, 0
143, 0, 0, 0
144, 0, 0, 0
145, 0, 0, 0
146, 0, 0, 0
147, 0, 0, 0
148, 0, 0, 0
149, 0, 0, 0
150, 0, 0, 0
151, 0, 0, 0
152, 0, 0, 0
153, 0, 0, 0
154, 0, 0, 0
155, 0, 0, 0
156, 0, 0, 0
157, 0, 0, 0
158, 0, 0, 0
159, 0, 0, 0
160, 0, 0, 0
161, 0, 0, 0
162, 0, 0, 0
163, 0, 0, 0
164, 0, 0, 0
