# TOPAS Version: 3.2.p2
# Parameter File: /home/michael/Documents/Topas_Work/TOPAS/TG-195/Case4_Test1.txt
# Results for scorer DoseCylinder
# Scored in component: TestCylinder
# R in 1 bin  of 16 cm
# Phi in 1 bin  of 360 deg
# Z in 3000 bins of 0.1 cm
# DoseToMedium ( Gy ) : Sum   
0, 0, 0, 0
0, 0, 1, 0
0, 0, 2, 0
0, 0, 3, 0
0, 0, 4, 0
0, 0, 5, 4.831740205418072e-14
0, 0, 6, 0
0, 0, 7, 5.148140892535444e-15
0, 0, 8, 0
0, 0, 9, 5.773207691291452e-16
0, 0, 10, 0
0, 0, 11, 0
0, 0, 12, 0
0, 0, 13, 0
0, 0, 14, 7.316803582555365e-15
0, 0, 15, 0
0, 0, 16, 0
0, 0, 17, 5.274417834861536e-15
0, 0, 18, 0
0, 0, 19, 4.11125228641767e-15
0, 0, 20, 7.489132435674253e-15
0, 0, 21, 0
0, 0, 22, 1.124520347851746e-14
0, 0, 23, 0
0, 0, 24, 0
0, 0, 25, 0
0, 0, 26, 0
0, 0, 27, 7.753956439600362e-15
0, 0, 28, 7.920432295053723e-14
0, 0, 29, 5.02324503742985e-15
0, 0, 30, 0
0, 0, 31, 0
0, 0, 32, 0
0, 0, 33, 0
0, 0, 34, 0
0, 0, 35, 0
0, 0, 36, 0
0, 0, 37, 0
0, 0, 38, 0
0, 0, 39, 0
0, 0, 40, 0
0, 0, 41, 0
0, 0, 42, 3.198359351140796e-15
0, 0, 43, 2.86014862442281e-15
0, 0, 44, 0
0, 0, 45, 0
0, 0, 46, 0
0, 0, 47, 0
0, 0, 48, 0
0, 0, 49, 2.696721558183973e-16
0, 0, 50, 0
0, 0, 51, 0
0, 0, 52, 7.826503117466799e-15
0, 0, 53, 0
0, 0, 54, 0
0, 0, 55, 0
0, 0, 56, 0
0, 0, 57, 9.346279065825381e-16
0, 0, 58, 0
0, 0, 59, 0
0, 0, 60, 0
0, 0, 61, 0
0, 0, 62, 0
0, 0, 63, 8.611752634515423e-15
0, 0, 64, 0
0, 0, 65, 0
0, 0, 66, 0
0, 0, 67, 0
0, 0, 68, 0
0, 0, 69, 0
0, 0, 70, 0
0, 0, 71, 0
0, 0, 72, 0
0, 0, 73, 0
0, 0, 74, 9.34863572324288e-15
0, 0, 75, 5.684504177593495e-15
0, 0, 76, 0
0, 0, 77, 0
0, 0, 78, 4.740832902573773e-14
0, 0, 79, 0
0, 0, 80, 0
0, 0, 81, 2.311381388885167e-15
0, 0, 82, 0
0, 0, 83, 0
0, 0, 84, 6.878916347945099e-15
0, 0, 85, 0
0, 0, 86, 6.275220296327435e-15
0, 0, 87, 5.106206663009136e-14
0, 0, 88, 0
0, 0, 89, 0
0, 0, 90, 7.426596501398236e-14
0, 0, 91, 1.243402650196661e-15
0, 0, 92, 0
0, 0, 93, 1.060920370787389e-14
0, 0, 94, 5.535530140412777e-15
0, 0, 95, 1.465956851318584e-15
0, 0, 96, 0
0, 0, 97, 0
0, 0, 98, 0
0, 0, 99, 0
0, 0, 100, 0
0, 0, 101, 0
0, 0, 102, 0
0, 0, 103, 5.100712468500065e-14
0, 0, 104, 0
0, 0, 105, 0
0, 0, 106, 0
0, 0, 107, 0
0, 0, 108, 3.15884674645904e-15
0, 0, 109, 0
0, 0, 110, 9.826318048022811e-16
0, 0, 111, 0
0, 0, 112, 0
0, 0, 113, 0
0, 0, 114, 3.385824153631525e-16
0, 0, 115, 0
0, 0, 116, 5.803237444491341e-15
0, 0, 117, 0
0, 0, 118, 7.735015088833862e-15
0, 0, 119, 0
0, 0, 120, 0
0, 0, 121, 6.477097470294815e-15
0, 0, 122, 6.474561284244146e-14
0, 0, 123, 0
0, 0, 124, 0
0, 0, 125, 0
0, 0, 126, 5.416628459542216e-17
0, 0, 127, 4.213018636349064e-15
0, 0, 128, 0
0, 0, 129, 0
0, 0, 130, 0
0, 0, 131, 0
0, 0, 132, 0
0, 0, 133, 0
0, 0, 134, 0
0, 0, 135, 4.827570431625329e-14
0, 0, 136, 0
0, 0, 137, 0
0, 0, 138, 0
0, 0, 139, 0
0, 0, 140, 0
0, 0, 141, 6.284436268903446e-14
0, 0, 142, 4.114100434702813e-15
0, 0, 143, 0
0, 0, 144, 0
0, 0, 145, 0
0, 0, 146, 0
0, 0, 147, 0
0, 0, 148, 0
0, 0, 149, 0
0, 0, 150, 0
0, 0, 151, 2.870033922433742e-15
0, 0, 152, 0
0, 0, 153, 0
0, 0, 154, 0
0, 0, 155, 0
0, 0, 156, 0
0, 0, 157, 0
0, 0, 158, 0
0, 0, 159, 0
0, 0, 160, 1.829463184684915e-16
0, 0, 161, 1.207476637123464e-14
0, 0, 162, 3.067559252876366e-15
0, 0, 163, 5.315856380707111e-15
0, 0, 164, 0
0, 0, 165, 0
0, 0, 166, 9.774307048687845e-15
0, 0, 167, 1.325701721310648e-16
0, 0, 168, 0
0, 0, 169, 1.555012307206125e-15
0, 0, 170, 7.791282809893607e-14
0, 0, 171, 0
0, 0, 172, 7.233868045590855e-15
0, 0, 173, 0
0, 0, 174, 0
0, 0, 175, 1.287484891749735e-15
0, 0, 176, 9.170458107623201e-15
0, 0, 177, 0
0, 0, 178, 4.972706477818743e-14
0, 0, 179, 7.383662772994168e-14
0, 0, 180, 1.09595712632091e-14
0, 0, 181, 0
0, 0, 182, 5.04204154556237e-15
0, 0, 183, 0
0, 0, 184, 8.290528200642557e-16
0, 0, 185, 0
0, 0, 186, 3.097239922622867e-15
0, 0, 187, 0
0, 0, 188, 4.08089022101675e-14
0, 0, 189, 0
0, 0, 190, 0
0, 0, 191, 0
0, 0, 192, 6.063682288080146e-15
0, 0, 193, 4.894967403282343e-15
0, 0, 194, 0
0, 0, 195, 0
0, 0, 196, 0
0, 0, 197, 0
0, 0, 198, 0
0, 0, 199, 6.5454873339726e-15
0, 0, 200, 0
0, 0, 201, 0
0, 0, 202, 2.355413761373471e-15
0, 0, 203, 0
0, 0, 204, 6.50763690439489e-14
0, 0, 205, 0
0, 0, 206, 0
0, 0, 207, 0
0, 0, 208, 0
0, 0, 209, 7.245033633901561e-15
0, 0, 210, 0
0, 0, 211, 4.345334605951724e-16
0, 0, 212, 9.882369818032654e-15
0, 0, 213, 0
0, 0, 214, 0
0, 0, 215, 0
0, 0, 216, 0
0, 0, 217, 0
0, 0, 218, 0
0, 0, 219, 1.511442732344377e-15
0, 0, 220, 0
0, 0, 221, 0
0, 0, 222, 0
0, 0, 223, 0
0, 0, 224, 0
0, 0, 225, 5.29411389198404e-15
0, 0, 226, 0
0, 0, 227, 0
0, 0, 228, 6.375473421898559e-15
0, 0, 229, 8.61831205765896e-15
0, 0, 230, 0
0, 0, 231, 0
0, 0, 232, 0
0, 0, 233, 0
0, 0, 234, 4.630594126763291e-16
0, 0, 235, 0
0, 0, 236, 0
0, 0, 237, 3.834262348270147e-15
0, 0, 238, 0
0, 0, 239, 1.363085313973436e-14
0, 0, 240, 3.514225983984923e-15
0, 0, 241, 0
0, 0, 242, 1.316226350188496e-14
0, 0, 243, 2.775146327066999e-15
0, 0, 244, 0
0, 0, 245, 0
0, 0, 246, 8.00002154365681e-14
0, 0, 247, 6.797575774020268e-15
0, 0, 248, 0
0, 0, 249, 0
0, 0, 250, 0
0, 0, 251, 6.489827104942626e-15
0, 0, 252, 6.219608877571046e-16
0, 0, 253, 0
0, 0, 254, 0
0, 0, 255, 0
0, 0, 256, 1.112001116188033e-14
0, 0, 257, 0
0, 0, 258, 7.408194880025726e-14
0, 0, 259, 0
0, 0, 260, 0
0, 0, 261, 0
0, 0, 262, 0
0, 0, 263, 0
0, 0, 264, 0
0, 0, 265, 0
0, 0, 266, 6.963278711909259e-15
0, 0, 267, 0
0, 0, 268, 0
0, 0, 269, 0
0, 0, 270, 7.391797677419598e-14
0, 0, 271, 0
0, 0, 272, 0
0, 0, 273, 0
0, 0, 274, 2.952242069854797e-15
0, 0, 275, 0
0, 0, 276, 7.324945771464142e-14
0, 0, 277, 0
0, 0, 278, 0
0, 0, 279, 0
0, 0, 280, 3.11247418075615e-16
0, 0, 281, 0
0, 0, 282, 0
0, 0, 283, 0
0, 0, 284, 0
0, 0, 285, 9.502683064261178e-15
0, 0, 286, 6.193297556657956e-14
0, 0, 287, 0
0, 0, 288, 2.397978649280657e-15
0, 0, 289, 5.867056718385742e-15
0, 0, 290, 9.005735610370658e-15
0, 0, 291, 0
0, 0, 292, 0
0, 0, 293, 2.200169562800703e-15
0, 0, 294, 6.277590209810557e-14
0, 0, 295, 0
0, 0, 296, 1.762947407872708e-16
0, 0, 297, 0
0, 0, 298, 9.127450009726364e-15
0, 0, 299, 6.501128642041366e-15
0, 0, 300, 0
0, 0, 301, 0
0, 0, 302, 1.074815353364032e-14
0, 0, 303, 0
0, 0, 304, 0
0, 0, 305, 0
0, 0, 306, 0
0, 0, 307, 6.677531384823368e-14
0, 0, 308, 4.960112707255672e-16
0, 0, 309, 0
0, 0, 310, 7.820303683325844e-15
0, 0, 311, 0
0, 0, 312, 0
0, 0, 313, 0
0, 0, 314, 9.822612278878574e-16
0, 0, 315, 0
0, 0, 316, 0
0, 0, 317, 4.8243511135027e-15
0, 0, 318, 0
0, 0, 319, 3.769632887361696e-15
0, 0, 320, 0
0, 0, 321, 6.053589975216905e-14
0, 0, 322, 0
0, 0, 323, 0
0, 0, 324, 0
0, 0, 325, 0
0, 0, 326, 0
0, 0, 327, 0
0, 0, 328, 0
0, 0, 329, 0
0, 0, 330, 4.887336398757235e-14
0, 0, 331, 0
0, 0, 332, 5.534346835385463e-15
0, 0, 333, 0
0, 0, 334, 0
0, 0, 335, 0
0, 0, 336, 0
0, 0, 337, 0
0, 0, 338, 0
0, 0, 339, 0
0, 0, 340, 0
0, 0, 341, 0
0, 0, 342, 0
0, 0, 343, 8.714828073866799e-15
0, 0, 344, 0
0, 0, 345, 0
0, 0, 346, 0
0, 0, 347, 0
0, 0, 348, 5.868099246537223e-14
0, 0, 349, 0
0, 0, 350, 0
0, 0, 351, 0
0, 0, 352, 0
0, 0, 353, 0
0, 0, 354, 0
0, 0, 355, 0
0, 0, 356, 1.277496361598357e-15
0, 0, 357, 0
0, 0, 358, 1.455148287395145e-15
0, 0, 359, 0
0, 0, 360, 0
0, 0, 361, 0
0, 0, 362, 9.293048339046369e-15
0, 0, 363, 4.777589727913284e-14
0, 0, 364, 0
0, 0, 365, 0
0, 0, 366, 0
0, 0, 367, 0
0, 0, 368, 0
0, 0, 369, 4.686564687489316e-15
0, 0, 370, 0
0, 0, 371, 0
0, 0, 372, 0
0, 0, 373, 4.603722535907241e-16
0, 0, 374, 3.364036242766658e-15
0, 0, 375, 0
0, 0, 376, 0
0, 0, 377, 0
0, 0, 378, 0
0, 0, 379, 0
0, 0, 380, 0
0, 0, 381, 8.043087748013829e-15
0, 0, 382, 0
0, 0, 383, 0
0, 0, 384, 0
0, 0, 385, 0
0, 0, 386, 0
0, 0, 387, 0
0, 0, 388, 6.983506112799576e-14
0, 0, 389, 0
0, 0, 390, 0
0, 0, 391, 0
0, 0, 392, 0
0, 0, 393, 5.803848748169374e-14
0, 0, 394, 3.039662222758545e-15
0, 0, 395, 7.058167577825422e-15
0, 0, 396, 0
0, 0, 397, 2.879092092771679e-15
0, 0, 398, 4.706134960219153e-15
0, 0, 399, 0
0, 0, 400, 1.027777390341514e-15
0, 0, 401, 0
0, 0, 402, 3.468721256476054e-15
0, 0, 403, 8.088013210865894e-16
0, 0, 404, 0
0, 0, 405, 1.68050087361656e-15
0, 0, 406, 6.660145525361205e-15
0, 0, 407, 0
0, 0, 408, 0
0, 0, 409, 5.824152805541417e-15
0, 0, 410, 4.467818259454304e-14
0, 0, 411, 0
0, 0, 412, 3.509538715413055e-15
0, 0, 413, 0
0, 0, 414, 0
0, 0, 415, 0
0, 0, 416, 0
0, 0, 417, 0
0, 0, 418, 0
0, 0, 419, 1.2561583311076e-14
0, 0, 420, 0
0, 0, 421, 0
0, 0, 422, 1.965477104258918e-14
0, 0, 423, 1.43442183586813e-14
0, 0, 424, 0
0, 0, 425, 2.454830018392708e-15
0, 0, 426, 0
0, 0, 427, 1.088804949520884e-14
0, 0, 428, 5.56990637965403e-14
0, 0, 429, 5.581683483401006e-16
0, 0, 430, 7.019124017638208e-15
0, 0, 431, 0
0, 0, 432, 1.229632753210503e-15
0, 0, 433, 6.776348281329128e-16
0, 0, 434, 6.528073183609999e-15
0, 0, 435, 1.089089467887867e-14
0, 0, 436, 3.593335261368449e-15
0, 0, 437, 0
0, 0, 438, 0
0, 0, 439, 1.690939601779403e-15
0, 0, 440, 5.369933505158667e-15
0, 0, 441, 0
0, 0, 442, 1.228833929143441e-13
0, 0, 443, 1.350706350965788e-14
0, 0, 444, 0
0, 0, 445, 0
0, 0, 446, 0
0, 0, 447, 4.646156768982313e-16
0, 0, 448, 0
0, 0, 449, 0
0, 0, 450, 6.149858149584377e-15
0, 0, 451, 6.935663743762874e-15
0, 0, 452, 0
0, 0, 453, 3.362433603490894e-16
0, 0, 454, 8.02409642230344e-15
0, 0, 455, 0
0, 0, 456, 0
0, 0, 457, 8.320409723076676e-15
0, 0, 458, 0
0, 0, 459, 3.544371886577704e-15
0, 0, 460, 5.721429731896099e-15
0, 0, 461, 0
0, 0, 462, 0
0, 0, 463, 6.391374453780009e-16
0, 0, 464, 5.723071620561057e-14
0, 0, 465, 0
0, 0, 466, 0
0, 0, 467, 0
0, 0, 468, 0
0, 0, 469, 5.440459755336018e-14
0, 0, 470, 2.734243529560563e-15
0, 0, 471, 4.577571452451948e-15
0, 0, 472, 4.956944888736235e-14
0, 0, 473, 0
0, 0, 474, 0
0, 0, 475, 0
0, 0, 476, 9.875529603467102e-16
0, 0, 477, 0
0, 0, 478, 0
0, 0, 479, 0
0, 0, 480, 1.051603855400539e-14
0, 0, 481, 5.603809466290946e-15
0, 0, 482, 3.056083862265201e-15
0, 0, 483, 0
0, 0, 484, 0
0, 0, 485, 1.112834173091657e-14
0, 0, 486, 0
0, 0, 487, 0
0, 0, 488, 0
0, 0, 489, 6.435220055503444e-16
0, 0, 490, 3.507384075353477e-15
0, 0, 491, 6.917275590214225e-14
0, 0, 492, 0
0, 0, 493, 0
0, 0, 494, 0
0, 0, 495, 1.090465557613976e-14
0, 0, 496, 0
0, 0, 497, 4.975009899215507e-15
0, 0, 498, 8.542728025522789e-16
0, 0, 499, 4.912493616103866e-14
0, 0, 500, 7.750106674855092e-15
0, 0, 501, 1.953222824501106e-15
0, 0, 502, 0
0, 0, 503, 3.268338629792457e-14
0, 0, 504, 1.318092109661414e-14
0, 0, 505, 2.756210270256419e-16
0, 0, 506, 6.916249663908511e-14
0, 0, 507, 0
0, 0, 508, 5.593733162350409e-15
0, 0, 509, 6.029862888298418e-14
0, 0, 510, 0
0, 0, 511, 9.686909342157199e-15
0, 0, 512, 2.440920519788931e-16
0, 0, 513, 0
0, 0, 514, 1.28815838882192e-15
0, 0, 515, 0
0, 0, 516, 1.170306713815577e-14
0, 0, 517, 0
0, 0, 518, 0
0, 0, 519, 6.517250220126457e-15
0, 0, 520, 0
0, 0, 521, 8.359573138425926e-15
0, 0, 522, 0
0, 0, 523, 0
0, 0, 524, 1.422453768543195e-15
0, 0, 525, 0
0, 0, 526, 0
0, 0, 527, 1.341372725513403e-14
0, 0, 528, 0
0, 0, 529, 0
0, 0, 530, 6.860965178693938e-15
0, 0, 531, 0
0, 0, 532, 3.467519687300815e-16
0, 0, 533, 4.967488416050478e-14
0, 0, 534, 0
0, 0, 535, 0
0, 0, 536, 0
0, 0, 537, 0
0, 0, 538, 0
0, 0, 539, 0
0, 0, 540, 0
0, 0, 541, 0
0, 0, 542, 0
0, 0, 543, 2.106697994763533e-15
0, 0, 544, 0
0, 0, 545, 5.212519123471739e-14
0, 0, 546, 6.783037808733364e-14
0, 0, 547, 0
0, 0, 548, 0
0, 0, 549, 0
0, 0, 550, 0
0, 0, 551, 6.101072609360908e-14
0, 0, 552, 2.590756148295684e-15
0, 0, 553, 5.053098713655828e-15
0, 0, 554, 7.029085294504508e-14
0, 0, 555, 0
0, 0, 556, 0
0, 0, 557, 5.727100786884556e-14
0, 0, 558, 0
0, 0, 559, 0
0, 0, 560, 1.501339132767114e-14
0, 0, 561, 2.927206952307512e-15
0, 0, 562, 7.781421313508494e-14
0, 0, 563, 6.415524951293005e-16
0, 0, 564, 1.235748564023739e-14
0, 0, 565, 0
0, 0, 566, 0
0, 0, 567, 5.405389542001079e-14
0, 0, 568, 0
0, 0, 569, 5.738669901691335e-14
0, 0, 570, 2.30260358645277e-15
0, 0, 571, 0
0, 0, 572, 6.508164097701261e-14
0, 0, 573, 0
0, 0, 574, 0
0, 0, 575, 0
0, 0, 576, 0
0, 0, 577, 2.997411795833027e-15
0, 0, 578, 0
0, 0, 579, 1.950524601047627e-15
0, 0, 580, 5.508484293703653e-14
0, 0, 581, 0
0, 0, 582, 0
0, 0, 583, 0
0, 0, 584, 3.849439908135523e-15
0, 0, 585, 0
0, 0, 586, 2.101873083337736e-15
0, 0, 587, 7.223922523537374e-14
0, 0, 588, 1.884372174900013e-15
0, 0, 589, 5.658368806599375e-14
0, 0, 590, 5.465489578927382e-14
0, 0, 591, 7.328998315896985e-15
0, 0, 592, 6.625492983972558e-15
0, 0, 593, 8.734138942756539e-16
0, 0, 594, 0
0, 0, 595, 8.663865489562297e-15
0, 0, 596, 4.414667958453633e-15
0, 0, 597, 6.646600621501662e-15
0, 0, 598, 0
0, 0, 599, 0
0, 0, 600, 6.777088249311849e-14
0, 0, 601, 0
0, 0, 602, 0
0, 0, 603, 6.077566428635064e-15
0, 0, 604, 4.9520138017305e-14
0, 0, 605, 1.399707334019391e-15
0, 0, 606, 0
0, 0, 607, 0
0, 0, 608, 0
0, 0, 609, 1.093494462730063e-13
0, 0, 610, 5.39312060857328e-15
0, 0, 611, 7.319088369227289e-14
0, 0, 612, 0
0, 0, 613, 0
0, 0, 614, 0
0, 0, 615, 0
0, 0, 616, 0
0, 0, 617, 0
0, 0, 618, 0
0, 0, 619, 1.612460876897637e-14
0, 0, 620, 1.405869100605181e-13
0, 0, 621, 4.933683585235443e-15
0, 0, 622, 7.25683686861496e-14
0, 0, 623, 1.696552253846147e-15
0, 0, 624, 0
0, 0, 625, 9.417137818786177e-15
0, 0, 626, 0
0, 0, 627, 4.93096808230984e-14
0, 0, 628, 1.48467384423318e-15
0, 0, 629, 5.848412167963959e-14
0, 0, 630, 0
0, 0, 631, 6.762770681997821e-14
0, 0, 632, 2.040845248872658e-14
0, 0, 633, 3.740651231554917e-15
0, 0, 634, 6.24245799366388e-14
0, 0, 635, 3.633925080200875e-15
0, 0, 636, 0
0, 0, 637, 0
0, 0, 638, 0
0, 0, 639, 2.222689670121e-14
0, 0, 640, 0
0, 0, 641, 1.321427911754949e-13
0, 0, 642, 6.204112727438383e-15
0, 0, 643, 4.18610077631827e-15
0, 0, 644, 6.808912039469846e-15
0, 0, 645, 0
0, 0, 646, 9.575917532880784e-15
0, 0, 647, 0
0, 0, 648, 1.60546296597313e-15
0, 0, 649, 0
0, 0, 650, 0
0, 0, 651, 0
0, 0, 652, 0
0, 0, 653, 8.313786941868684e-14
0, 0, 654, 0
0, 0, 655, 7.108976764463176e-14
0, 0, 656, 1.18525203842264e-15
0, 0, 657, 0
0, 0, 658, 0
0, 0, 659, 1.756539868324526e-15
0, 0, 660, 0
0, 0, 661, 4.368214130527365e-15
0, 0, 662, 0
0, 0, 663, 0
0, 0, 664, 6.541072344141627e-14
0, 0, 665, 4.680474012378789e-14
0, 0, 666, 2.287618303066421e-15
0, 0, 667, 0
0, 0, 668, 0
0, 0, 669, 0
0, 0, 670, 6.277308761938008e-16
0, 0, 671, 0
0, 0, 672, 2.893689011551712e-15
0, 0, 673, 9.100000890631052e-14
0, 0, 674, 0
0, 0, 675, 0
0, 0, 676, 0
0, 0, 677, 4.758956697139584e-14
0, 0, 678, 0
0, 0, 679, 0
0, 0, 680, 0
0, 0, 681, 0
0, 0, 682, 0
0, 0, 683, 0
0, 0, 684, 0
0, 0, 685, 6.062051495546797e-14
0, 0, 686, 7.390734312257615e-15
0, 0, 687, 4.306632294163136e-15
0, 0, 688, 3.97138715684843e-14
0, 0, 689, 0
0, 0, 690, 2.783902741917478e-15
0, 0, 691, 8.242607841047237e-16
0, 0, 692, 0
0, 0, 693, 4.922740343073391e-15
0, 0, 694, 7.706611533013583e-15
0, 0, 695, 3.311430922764251e-14
0, 0, 696, 7.330863482446839e-15
0, 0, 697, 1.249426028539528e-14
0, 0, 698, 0
0, 0, 699, 8.843328901195907e-15
0, 0, 700, 2.400873596136136e-16
0, 0, 701, 2.142837714249322e-15
0, 0, 702, 5.482131912868445e-15
0, 0, 703, 3.970518185747842e-15
0, 0, 704, 1.063689469722729e-15
0, 0, 705, 8.042730977736445e-14
0, 0, 706, 0
0, 0, 707, 7.482283327262754e-15
0, 0, 708, 2.509614627113459e-14
0, 0, 709, 2.058996656712549e-14
0, 0, 710, 5.640991671576568e-15
0, 0, 711, 1.332169119618422e-14
0, 0, 712, 9.066597256971484e-16
0, 0, 713, 1.688346436881164e-16
0, 0, 714, 6.78592043125946e-14
0, 0, 715, 1.143324225170907e-14
0, 0, 716, 1.618290835266999e-14
0, 0, 717, 7.347430091642418e-14
0, 0, 718, 9.36609116646166e-16
0, 0, 719, 0
0, 0, 720, 1.473318732300526e-15
0, 0, 721, 1.151891082518119e-13
0, 0, 722, 0
0, 0, 723, 0
0, 0, 724, 2.522386189892159e-15
0, 0, 725, 0
0, 0, 726, 1.469235567626639e-14
0, 0, 727, 4.748395128023565e-15
0, 0, 728, 8.991596089382142e-15
0, 0, 729, 5.881749351888815e-14
0, 0, 730, 0
0, 0, 731, 1.463235694448058e-14
0, 0, 732, 1.044608261111142e-13
0, 0, 733, 0
0, 0, 734, 0
0, 0, 735, 1.298864207648857e-14
0, 0, 736, 1.530763871508602e-14
0, 0, 737, 1.066971658865868e-14
0, 0, 738, 6.565285458565249e-15
0, 0, 739, 1.055572204758425e-14
0, 0, 740, 5.007058661324294e-15
0, 0, 741, 6.270640473884925e-14
0, 0, 742, 2.532336285923555e-15
0, 0, 743, 8.141136893856198e-15
0, 0, 744, 5.175673529079355e-14
0, 0, 745, 6.612211507359611e-15
0, 0, 746, 1.417600608568607e-14
0, 0, 747, 4.179472743506005e-15
0, 0, 748, 8.521176013333732e-15
0, 0, 749, 0
0, 0, 750, 0
0, 0, 751, 8.985292470188675e-15
0, 0, 752, 0
0, 0, 753, 5.777694403637235e-14
0, 0, 754, 7.075410542829383e-14
0, 0, 755, 0
0, 0, 756, 4.43662199365528e-16
0, 0, 757, 3.035318214288552e-15
0, 0, 758, 5.433991642344194e-15
0, 0, 759, 5.183856883789369e-15
0, 0, 760, 0
0, 0, 761, 2.122020820779363e-15
0, 0, 762, 6.061735044037703e-14
0, 0, 763, 6.049644156935416e-14
0, 0, 764, 6.359123568434183e-14
0, 0, 765, 0
0, 0, 766, 2.118050607948993e-14
0, 0, 767, 0
0, 0, 768, 2.024107030801966e-14
0, 0, 769, 2.047376550522347e-14
0, 0, 770, 1.264755583173333e-16
0, 0, 771, 1.410435048648014e-14
0, 0, 772, 6.292388891838627e-14
0, 0, 773, 4.117398357482947e-15
0, 0, 774, 7.031315256968921e-16
0, 0, 775, 3.539942116021801e-14
0, 0, 776, 6.574482711713125e-14
0, 0, 777, 6.958480693779537e-14
0, 0, 778, 1.2181093993587e-15
0, 0, 779, 5.608766218394984e-14
0, 0, 780, 7.254883780045181e-15
0, 0, 781, 1.358899700664579e-14
0, 0, 782, 2.496703092140225e-15
0, 0, 783, 5.607444508184088e-15
0, 0, 784, 0
0, 0, 785, 0
0, 0, 786, 0
0, 0, 787, 5.568275671823976e-14
0, 0, 788, 1.069237302593184e-14
0, 0, 789, 1.801192692446694e-15
0, 0, 790, 5.033445516400455e-14
0, 0, 791, 0
0, 0, 792, 5.988876658046677e-14
0, 0, 793, 0
0, 0, 794, 5.264884479040189e-15
0, 0, 795, 4.648792100239458e-15
0, 0, 796, 4.01036685075142e-15
0, 0, 797, 6.094793384716322e-15
0, 0, 798, 1.703000906256007e-14
0, 0, 799, 5.908465448671574e-14
0, 0, 800, 3.097619181625e-15
0, 0, 801, 9.530442875041543e-15
0, 0, 802, 6.966300713706825e-16
0, 0, 803, 4.569479831410123e-14
0, 0, 804, 2.920143173983444e-16
0, 0, 805, 0
0, 0, 806, 0
0, 0, 807, 0
0, 0, 808, 2.841276942116221e-15
0, 0, 809, 9.468074145069314e-15
0, 0, 810, 9.083943009423594e-15
0, 0, 811, 0
0, 0, 812, 1.594749375618903e-15
0, 0, 813, 3.026346398959587e-14
0, 0, 814, 6.789315339312055e-14
0, 0, 815, 1.239196602217951e-15
0, 0, 816, 1.047834558785257e-14
0, 0, 817, 7.409305509626166e-15
0, 0, 818, 0
0, 0, 819, 8.295727924147514e-16
0, 0, 820, 0
0, 0, 821, 0
0, 0, 822, 6.88532347456472e-14
0, 0, 823, 3.820192707499779e-15
0, 0, 824, 5.301314519068649e-16
0, 0, 825, 1.827954969465737e-13
0, 0, 826, 4.009705741536088e-15
0, 0, 827, 1.117243911318358e-14
0, 0, 828, 3.855751997658462e-15
0, 0, 829, 8.30420937092749e-14
0, 0, 830, 6.283432280751065e-15
0, 0, 831, 8.849286930946894e-15
0, 0, 832, 1.240462175320267e-15
0, 0, 833, 8.741174694877965e-14
0, 0, 834, 1.043600177554462e-15
0, 0, 835, 2.059902812559522e-15
0, 0, 836, 5.714588246781126e-15
0, 0, 837, 5.614905174383504e-14
0, 0, 838, 0
0, 0, 839, 7.731216993098373e-15
0, 0, 840, 1.218749120992114e-14
0, 0, 841, 1.271916320300082e-15
0, 0, 842, 5.961138700716351e-14
0, 0, 843, 3.4315411687728e-15
0, 0, 844, 2.826281070818031e-15
0, 0, 845, 6.409142981551917e-15
0, 0, 846, 0
0, 0, 847, 0
0, 0, 848, 0
0, 0, 849, 3.927013811247208e-14
0, 0, 850, 5.167437573623318e-15
0, 0, 851, 0
0, 0, 852, 2.157389528524914e-14
0, 0, 853, 0
0, 0, 854, 1.233007226593245e-14
0, 0, 855, 0
0, 0, 856, 8.085065006813857e-15
0, 0, 857, 0
0, 0, 858, 6.772519268891065e-15
0, 0, 859, 5.21160568314142e-14
0, 0, 860, 1.288245497690216e-13
0, 0, 861, 4.315353345388066e-15
0, 0, 862, 0
0, 0, 863, 7.104199498640662e-14
0, 0, 864, 1.260406709557849e-14
0, 0, 865, 0
0, 0, 866, 0
0, 0, 867, 5.298491781771924e-15
0, 0, 868, 3.997606299401034e-15
0, 0, 869, 0
0, 0, 870, 0
0, 0, 871, 0
0, 0, 872, 9.362667671047094e-15
0, 0, 873, 0
0, 0, 874, 1.566926672642204e-15
0, 0, 875, 1.395262655683616e-14
0, 0, 876, 0
0, 0, 877, 1.4650769746688e-14
0, 0, 878, 0
0, 0, 879, 0
0, 0, 880, 0
0, 0, 881, 8.211666786275221e-15
0, 0, 882, 0
0, 0, 883, 0
0, 0, 884, 6.723357900148899e-14
0, 0, 885, 0
0, 0, 886, 0
0, 0, 887, 5.370541251298322e-14
0, 0, 888, 0
0, 0, 889, 1.46411889570216e-15
0, 0, 890, 3.769952218782811e-15
0, 0, 891, 0
0, 0, 892, 8.675372432150746e-15
0, 0, 893, 5.200133130090628e-14
0, 0, 894, 0
0, 0, 895, 1.934443680544004e-15
0, 0, 896, 6.359444763327782e-14
0, 0, 897, 0
0, 0, 898, 8.135271190696462e-15
0, 0, 899, 1.963046458513477e-14
0, 0, 900, 6.02194008092298e-14
0, 0, 901, 5.610309173611702e-15
0, 0, 902, 1.142374616533741e-14
0, 0, 903, 7.592385751944552e-15
0, 0, 904, 0
0, 0, 905, 2.737205815535348e-15
0, 0, 906, 0
0, 0, 907, 5.147734740237235e-15
0, 0, 908, 1.048814491201935e-14
0, 0, 909, 0
0, 0, 910, 1.215850997763083e-14
0, 0, 911, 1.226621275797306e-14
0, 0, 912, 0
0, 0, 913, 1.013825000106871e-14
0, 0, 914, 5.096449012863356e-15
0, 0, 915, 6.808919069843308e-14
0, 0, 916, 1.303949454650993e-14
0, 0, 917, 0
0, 0, 918, 0
0, 0, 919, 0
0, 0, 920, 3.667062703163358e-15
0, 0, 921, 1.159439450508894e-15
0, 0, 922, 1.264117222086591e-14
0, 0, 923, 0
0, 0, 924, 1.003767500297762e-14
0, 0, 925, 1.574207174933739e-14
0, 0, 926, 6.232749534956512e-16
0, 0, 927, 0
0, 0, 928, 1.620573385771942e-13
0, 0, 929, 0
0, 0, 930, 0
0, 0, 931, 0
0, 0, 932, 6.843189345262859e-14
0, 0, 933, 9.009010578557922e-14
0, 0, 934, 5.273178202143229e-16
0, 0, 935, 0
0, 0, 936, 4.278128788455082e-15
0, 0, 937, 1.1437675622155e-14
0, 0, 938, 7.742833880563377e-14
0, 0, 939, 2.577605453569793e-14
0, 0, 940, 5.414539107194026e-15
0, 0, 941, 1.860850747581119e-13
0, 0, 942, 1.963753561617845e-14
0, 0, 943, 7.107783464447084e-14
0, 0, 944, 1.367663442350051e-15
0, 0, 945, 3.991851811667273e-14
0, 0, 946, 6.554630292308558e-14
0, 0, 947, 1.015841954960872e-14
0, 0, 948, 6.011120420867933e-14
0, 0, 949, 5.452175322139376e-15
0, 0, 950, 0
0, 0, 951, 6.972693229008106e-14
0, 0, 952, 9.686707409502573e-14
0, 0, 953, 7.961253353880749e-15
0, 0, 954, 8.270299253917111e-15
0, 0, 955, 6.125940141439579e-14
0, 0, 956, 0
0, 0, 957, 0
0, 0, 958, 0
0, 0, 959, 8.88804749742643e-14
0, 0, 960, 1.637818163426411e-13
0, 0, 961, 1.234322584057037e-14
0, 0, 962, 2.030588061046235e-15
0, 0, 963, 1.78688596715439e-14
0, 0, 964, 0
0, 0, 965, 6.7919113258888e-14
0, 0, 966, 3.496981663728247e-15
0, 0, 967, 3.380193184477297e-15
0, 0, 968, 1.371884969855871e-14
0, 0, 969, 6.338714140163501e-14
0, 0, 970, 2.115674341718766e-14
0, 0, 971, 5.272326086998291e-14
0, 0, 972, 4.672064753981743e-15
0, 0, 973, 9.323035507664834e-14
0, 0, 974, 6.825702519473384e-14
0, 0, 975, 7.633048415610442e-15
0, 0, 976, 8.493693182327119e-15
0, 0, 977, 7.788321413303417e-15
0, 0, 978, 1.160379064157283e-14
0, 0, 979, 9.881951171998474e-16
0, 0, 980, 1.039279271908104e-13
0, 0, 981, 1.128277955412356e-14
0, 0, 982, 0
0, 0, 983, 0
0, 0, 984, 5.109189235423008e-15
0, 0, 985, 1.340641193978837e-13
0, 0, 986, 0
0, 0, 987, 0
0, 0, 988, 7.590078603602821e-14
0, 0, 989, 0
0, 0, 990, 6.694047172042111e-14
0, 0, 991, 0
0, 0, 992, 6.402277525404537e-14
0, 0, 993, 0
0, 0, 994, 1.163664569434411e-13
0, 0, 995, 5.043377147113601e-14
0, 0, 996, 2.397595197465435e-14
0, 0, 997, 7.210781315580492e-14
0, 0, 998, 8.538101595092357e-14
0, 0, 999, 0
0, 0, 1000, 2.218649322962597e-14
0, 0, 1001, 2.557709666078326e-14
0, 0, 1002, 2.596780585429736e-14
0, 0, 1003, 6.627987411298927e-14
0, 0, 1004, 7.130154621023607e-14
0, 0, 1005, 1.340535890842834e-13
0, 0, 1006, 7.005549298218922e-14
0, 0, 1007, 2.540289290023563e-15
0, 0, 1008, 9.905068606953175e-15
0, 0, 1009, 1.384136284998368e-14
0, 0, 1010, 1.985428965331493e-14
0, 0, 1011, 1.161684172522413e-14
0, 0, 1012, 1.340356455383288e-14
0, 0, 1013, 1.216392844739442e-13
0, 0, 1014, 1.192325453864065e-13
0, 0, 1015, 6.687039837876066e-14
0, 0, 1016, 1.488661760052148e-13
0, 0, 1017, 8.625480158678395e-14
0, 0, 1018, 6.577522543554232e-14
0, 0, 1019, 7.098750705097565e-14
0, 0, 1020, 1.541322984229074e-14
0, 0, 1021, 5.892997525911879e-15
0, 0, 1022, 6.899990019453017e-14
0, 0, 1023, 6.029147992490935e-14
0, 0, 1024, 1.011698481541141e-15
0, 0, 1025, 6.85668258011262e-15
0, 0, 1026, 1.535339967006144e-15
0, 0, 1027, 6.410655020066061e-14
0, 0, 1028, 2.389041858764061e-14
0, 0, 1029, 7.923325759601543e-14
0, 0, 1030, 1.181677639853357e-13
0, 0, 1031, 7.611526155453657e-15
0, 0, 1032, 1.920693117084867e-14
0, 0, 1033, 2.440682747052725e-14
0, 0, 1034, 7.064129419224671e-14
0, 0, 1035, 1.640281843456794e-14
0, 0, 1036, 4.202654595316345e-14
0, 0, 1037, 6.203113652077097e-14
0, 0, 1038, 3.111228671746772e-15
0, 0, 1039, 4.833934973663527e-16
0, 0, 1040, 1.181619906087672e-13
0, 0, 1041, 2.20453809287452e-14
0, 0, 1042, 7.014596965348313e-14
0, 0, 1043, 7.19641834730049e-14
0, 0, 1044, 6.153785163734438e-14
0, 0, 1045, 1.207493916595588e-14
0, 0, 1046, 3.576457367564755e-14
0, 0, 1047, 8.570549055609417e-14
0, 0, 1048, 1.489420701572888e-13
0, 0, 1049, 1.687289766455838e-13
0, 0, 1050, 8.901357010829931e-16
0, 0, 1051, 6.488987271775423e-15
0, 0, 1052, 9.133579140132696e-15
0, 0, 1053, 6.114104041847826e-16
0, 0, 1054, 6.056387216821918e-14
0, 0, 1055, 5.357120437765551e-15
0, 0, 1056, 4.649316837150282e-15
0, 0, 1057, 2.065020246813654e-14
0, 0, 1058, 1.247805163232321e-13
0, 0, 1059, 1.60214465934512e-13
0, 0, 1060, 1.170715542737899e-13
0, 0, 1061, 8.981171654900283e-15
0, 0, 1062, 5.356655670787393e-14
0, 0, 1063, 1.717319727178798e-13
0, 0, 1064, 1.07396201849165e-13
0, 0, 1065, 1.453286614856199e-14
0, 0, 1066, 1.871466103289289e-14
0, 0, 1067, 1.431351002621154e-15
0, 0, 1068, 3.085880346826581e-13
0, 0, 1069, 8.748779017865235e-14
0, 0, 1070, 2.098454602358218e-13
0, 0, 1071, 1.56358216304997e-14
0, 0, 1072, 3.078003550280838e-14
0, 0, 1073, 0
0, 0, 1074, 2.641903216376099e-14
0, 0, 1075, 6.161281744130817e-14
0, 0, 1076, 5.630474656393575e-14
0, 0, 1077, 9.330453483403708e-14
0, 0, 1078, 2.069828683448627e-13
0, 0, 1079, 6.060817537949237e-14
0, 0, 1080, 8.503212646808131e-14
0, 0, 1081, 6.188922038562325e-15
0, 0, 1082, 3.688410728642892e-14
0, 0, 1083, 8.940995188146117e-15
0, 0, 1084, 1.494805256137266e-13
0, 0, 1085, 3.111732656350388e-15
0, 0, 1086, 2.238140567518455e-14
0, 0, 1087, 1.815126045615848e-14
0, 0, 1088, 1.427934647694334e-13
0, 0, 1089, 3.47052681731741e-13
0, 0, 1090, 2.356016315201159e-13
0, 0, 1091, 8.858634447739613e-14
0, 0, 1092, 5.740053021790906e-15
0, 0, 1093, 7.404379166004935e-15
0, 0, 1094, 1.271003023965364e-13
0, 0, 1095, 8.533103423077198e-14
0, 0, 1096, 2.325959249423887e-13
0, 0, 1097, 1.351111605409072e-13
0, 0, 1098, 3.900887249395739e-14
0, 0, 1099, 6.378092363068175e-14
0, 0, 1100, 1.956386712787667e-13
0, 0, 1101, 9.945028741492612e-14
0, 0, 1102, 1.119862666140725e-13
0, 0, 1103, 1.675889922713239e-13
0, 0, 1104, 6.454096290612124e-14
0, 0, 1105, 1.964425936371375e-14
0, 0, 1106, 9.634442766151552e-14
0, 0, 1107, 3.290407903826578e-14
0, 0, 1108, 1.007812540018693e-13
0, 0, 1109, 1.336568524043166e-13
0, 0, 1110, 1.192004123445195e-13
0, 0, 1111, 5.796446357836729e-14
0, 0, 1112, 1.619790862853951e-13
0, 0, 1113, 3.815100362361545e-13
0, 0, 1114, 1.161603907680331e-13
0, 0, 1115, 9.333473664080438e-14
0, 0, 1116, 1.126136198723905e-13
0, 0, 1117, 1.875489374263475e-13
0, 0, 1118, 4.368967820443832e-14
0, 0, 1119, 1.450677414565477e-13
0, 0, 1120, 1.159404061472358e-13
0, 0, 1121, 1.706365355003819e-13
0, 0, 1122, 1.237769516873252e-13
0, 0, 1123, 1.356189330758636e-13
0, 0, 1124, 6.298406891522279e-14
0, 0, 1125, 1.015385692193504e-13
0, 0, 1126, 3.008672412770086e-13
0, 0, 1127, 1.454405850311383e-13
0, 0, 1128, 2.90008062052774e-13
0, 0, 1129, 1.682256493395345e-13
0, 0, 1130, 1.640969295396786e-14
0, 0, 1131, 1.573763499075967e-13
0, 0, 1132, 3.518620670436151e-13
0, 0, 1133, 1.693368616986421e-13
0, 0, 1134, 3.876756229405365e-13
0, 0, 1135, 1.689819887750604e-13
0, 0, 1136, 1.093013348016023e-13
0, 0, 1137, 1.158079030892309e-13
0, 0, 1138, 2.122169492002265e-13
0, 0, 1139, 3.532409011564736e-13
0, 0, 1140, 2.698348543304224e-13
0, 0, 1141, 1.326042953827405e-13
0, 0, 1142, 1.807203068833821e-13
0, 0, 1143, 1.186591244099061e-13
0, 0, 1144, 3.030939214887507e-13
0, 0, 1145, 4.3430038211556e-13
0, 0, 1146, 1.19411642032774e-13
0, 0, 1147, 2.14555329340789e-13
0, 0, 1148, 1.630019632724994e-13
0, 0, 1149, 1.913462471152608e-13
0, 0, 1150, 2.116283358407842e-13
0, 0, 1151, 4.018897573673103e-13
0, 0, 1152, 2.494454024847687e-13
0, 0, 1153, 1.957445029633284e-13
0, 0, 1154, 2.613401032039442e-13
0, 0, 1155, 1.980771368323767e-13
0, 0, 1156, 2.645268986495308e-13
0, 0, 1157, 1.584360762160383e-13
0, 0, 1158, 4.935273652424688e-13
0, 0, 1159, 4.455935403643863e-13
0, 0, 1160, 2.040398286527051e-13
0, 0, 1161, 3.488081947843752e-13
0, 0, 1162, 3.191546690557018e-13
0, 0, 1163, 4.134395733754181e-13
0, 0, 1164, 5.467853817289758e-13
0, 0, 1165, 4.336008006637637e-13
0, 0, 1166, 2.205630019987484e-13
0, 0, 1167, 4.514641698677435e-13
0, 0, 1168, 3.212106687404404e-13
0, 0, 1169, 6.407515577150358e-13
0, 0, 1170, 4.442409710491563e-13
0, 0, 1171, 5.433478645310019e-13
0, 0, 1172, 3.176155627566957e-13
0, 0, 1173, 5.937573024396292e-13
0, 0, 1174, 6.609044908567618e-13
0, 0, 1175, 4.172344707144976e-13
0, 0, 1176, 4.345982124523418e-13
0, 0, 1177, 4.117420922440662e-13
0, 0, 1178, 5.081021866269742e-13
0, 0, 1179, 3.532502524002112e-13
0, 0, 1180, 6.313113009789872e-13
0, 0, 1181, 4.707461091942033e-13
0, 0, 1182, 5.077510135433061e-13
0, 0, 1183, 6.083191676081734e-13
0, 0, 1184, 3.478268020828956e-13
0, 0, 1185, 3.779674327426125e-13
0, 0, 1186, 4.958593756952678e-13
0, 0, 1187, 2.982774075475925e-13
0, 0, 1188, 9.240757031098168e-13
0, 0, 1189, 8.053721535158931e-13
0, 0, 1190, 3.213358940913624e-13
0, 0, 1191, 4.506830835176306e-13
0, 0, 1192, 8.852670658164585e-13
0, 0, 1193, 4.466166748495065e-13
0, 0, 1194, 5.312919700538321e-13
0, 0, 1195, 6.946217147481282e-13
0, 0, 1196, 4.7339660403517e-13
0, 0, 1197, 5.002325593680967e-13
0, 0, 1198, 7.756997084593098e-13
0, 0, 1199, 6.38493381430183e-13
0, 0, 1200, 6.252990746719034e-13
0, 0, 1201, 9.44628273172321e-13
0, 0, 1202, 6.75147492166378e-13
