# TOPAS Version: 3.2.p2
# Parameter File: /home/michael/Documents/Topas_Work/TOPAS/TG-195/Case4_Test1.txt
# Results for scorer EnergyCylinder
# Scored in component: TestCylinder
# R in 1 bin  of 16 cm
# Phi in 1 bin  of 360 deg
# Z in 3000 bins of 0.1 cm
# EnergyDeposit ( MeV ) : Sum   
0, 0, 0, 0
0, 0, 1, 0
0, 0, 2, 0
0, 0, 3, 0
0, 0, 4, 0
0, 0, 5, 0.028862239792943
0, 0, 6, 0
0, 0, 7, 0.003075224813073874
0, 0, 8, 0
0, 0, 9, 0.0003448606585152447
0, 0, 10, 0
0, 0, 11, 0
0, 0, 12, 0
0, 0, 13, 0
0, 0, 14, 0.004370668437331915
0, 0, 15, 0
0, 0, 16, 0
0, 0, 17, 0.003150655888020992
0, 0, 18, 0
0, 0, 19, 0.002455842681229115
0, 0, 20, 0.004473607987165451
0, 0, 21, 0
0, 0, 22, 0.006717284675687551
0, 0, 23, 0
0, 0, 24, 0
0, 0, 25, 0
0, 0, 26, 0
0, 0, 27, 0.0046318001113832
0, 0, 28, 0.04731243848800659
0, 0, 29, 0.00300061865709722
0, 0, 30, 0
0, 0, 31, 0
0, 0, 32, 0
0, 0, 33, 0
0, 0, 34, 0
0, 0, 35, 0
0, 0, 36, 0
0, 0, 37, 0
0, 0, 38, 0
0, 0, 39, 0
0, 0, 40, 0
0, 0, 41, 0
0, 0, 42, 0.001910529332235456
0, 0, 43, 0.001708500320091844
0, 0, 44, 0
0, 0, 45, 0
0, 0, 46, 0
0, 0, 47, 0
0, 0, 48, 0
0, 0, 49, 0.0001610877661732957
0, 0, 50, 0
0, 0, 51, 0
0, 0, 52, 0.00467513594776392
0, 0, 53, 0
0, 0, 54, 0
0, 0, 55, 0
0, 0, 56, 0
0, 0, 57, 0.0005582968587987125
0, 0, 58, 0
0, 0, 59, 0
0, 0, 60, 0
0, 0, 61, 0
0, 0, 62, 0
0, 0, 63, 0.005144202150404453
0, 0, 64, 0
0, 0, 65, 0
0, 0, 66, 0
0, 0, 67, 0
0, 0, 68, 0
0, 0, 69, 0
0, 0, 70, 0
0, 0, 71, 0
0, 0, 72, 0
0, 0, 73, 0
0, 0, 74, 0.005584376398473978
0, 0, 75, 0.003395619569346309
0, 0, 76, 0
0, 0, 77, 0
0, 0, 78, 0.02831920608878136
0, 0, 79, 0
0, 0, 80, 0
0, 0, 81, 0.001380695961415768
0, 0, 82, 0
0, 0, 83, 0
0, 0, 84, 0.004109097644686699
0, 0, 85, 0
0, 0, 86, 0.003748482093214989
0, 0, 87, 0.03050175495445728
0, 0, 88, 0
0, 0, 89, 0
0, 0, 90, 0.04436252638697624
0, 0, 91, 0.0007427424425259233
0, 0, 92, 0
0, 0, 93, 0.006337372120469809
0, 0, 94, 0.003306630300357938
0, 0, 95, 0.0008756844326853752
0, 0, 96, 0
0, 0, 97, 0
0, 0, 98, 0
0, 0, 99, 0
0, 0, 100, 0
0, 0, 101, 0
0, 0, 102, 0
0, 0, 103, 0.03046893514692783
0, 0, 104, 0
0, 0, 105, 0
0, 0, 106, 0
0, 0, 107, 0
0, 0, 108, 0.001886926591396332
0, 0, 109, 0
0, 0, 110, 0.0005869718152098358
0, 0, 111, 0
0, 0, 112, 0
0, 0, 113, 0
0, 0, 114, 0.000202251088921912
0, 0, 115, 0
0, 0, 116, 0.003466544672846794
0, 0, 117, 0
0, 0, 118, 0.004620485473424196
0, 0, 119, 0
0, 0, 120, 0
0, 0, 121, 0.003869072766974568
0, 0, 122, 0.03867557644844055
0, 0, 123, 0
0, 0, 124, 0
0, 0, 125, 0
0, 0, 126, 3.235604890505783e-05
0, 0, 127, 0.002516632666811347
0, 0, 128, 0
0, 0, 129, 0
0, 0, 130, 0
0, 0, 131, 0
0, 0, 132, 0
0, 0, 133, 0
0, 0, 134, 0
0, 0, 135, 0.02883733250200748
0, 0, 136, 0
0, 0, 137, 0
0, 0, 138, 0
0, 0, 139, 0
0, 0, 140, 0
0, 0, 141, 0.03753986954689026
0, 0, 142, 0.002457543974742293
0, 0, 143, 0
0, 0, 144, 0
0, 0, 145, 0
0, 0, 146, 0
0, 0, 147, 0
0, 0, 148, 0
0, 0, 149, 0
0, 0, 150, 0
0, 0, 151, 0.001714405254460871
0, 0, 152, 0
0, 0, 153, 0
0, 0, 154, 0
0, 0, 155, 0
0, 0, 156, 0
0, 0, 157, 0
0, 0, 158, 0
0, 0, 159, 0
0, 0, 160, 0.0001092823731596582
0, 0, 161, 0.007212821394205093
0, 0, 162, 0.001832396257668734
0, 0, 163, 0.003175409277901053
0, 0, 164, 0
0, 0, 165, 0
0, 0, 166, 0.005838649813085794
0, 0, 167, 7.919035124359652e-05
0, 0, 168, 0
0, 0, 169, 0.0009288814617320895
0, 0, 170, 0.04654096812009811
0, 0, 171, 0
0, 0, 172, 0.004321126732975245
0, 0, 173, 0
0, 0, 174, 0
0, 0, 175, 0.000769074831623584
0, 0, 176, 0.005477942992001772
0, 0, 177, 0
0, 0, 178, 0.02970429509878159
0, 0, 179, 0.04410606622695923
0, 0, 180, 0.006546663586050272
0, 0, 181, 0
0, 0, 182, 0.003011846682056785
0, 0, 183, 0
0, 0, 184, 0.000495231943204999
0, 0, 185, 0
0, 0, 186, 0.00185012596193701
0, 0, 187, 0
0, 0, 188, 0.02437706105411053
0, 0, 189, 0
0, 0, 190, 0
0, 0, 191, 0
0, 0, 192, 0.003622120479121804
0, 0, 193, 0.002923992462456226
0, 0, 194, 0
0, 0, 195, 0
0, 0, 196, 0
0, 0, 197, 0
0, 0, 198, 0
0, 0, 199, 0.003909924998879433
0, 0, 200, 0
0, 0, 201, 0
0, 0, 202, 0.001406998606398702
0, 0, 203, 0
0, 0, 204, 0.03887315094470978
0, 0, 205, 0
0, 0, 206, 0
0, 0, 207, 0
0, 0, 208, 0
0, 0, 209, 0.004327796399593353
0, 0, 210, 0
0, 0, 211, 0.0002595671103335917
0, 0, 212, 0.005903200712054968
0, 0, 213, 0
0, 0, 214, 0
0, 0, 215, 0
0, 0, 216, 0
0, 0, 217, 0
0, 0, 218, 0
0, 0, 219, 0.0009028552449308336
0, 0, 220, 0
0, 0, 221, 0
0, 0, 222, 0
0, 0, 223, 0
0, 0, 224, 0
0, 0, 225, 0.00316242128610611
0, 0, 226, 0
0, 0, 227, 0
0, 0, 228, 0.00380836776457727
0, 0, 229, 0.005148119758814573
0, 0, 230, 0
0, 0, 231, 0
0, 0, 232, 0
0, 0, 233, 0
0, 0, 234, 0.0002766069956123829
0, 0, 235, 0
0, 0, 236, 0
0, 0, 237, 0.002290383912622929
0, 0, 238, 0
0, 0, 239, 0.008142344653606415
0, 0, 240, 0.002099211327731609
0, 0, 241, 0
0, 0, 242, 0.007862434722483158
0, 0, 243, 0.001657724380493164
0, 0, 244, 0
0, 0, 245, 0
0, 0, 246, 0.0477878637611866
0, 0, 247, 0.004060509148985147
0, 0, 248, 0
0, 0, 249, 0
0, 0, 250, 0
0, 0, 251, 0.003876676550135016
0, 0, 252, 0.0003715262864716351
0, 0, 253, 0
0, 0, 254, 0
0, 0, 255, 0
0, 0, 256, 0.006642501335591078
0, 0, 257, 0
0, 0, 258, 0.04425260797142982
0, 0, 259, 0
0, 0, 260, 0
0, 0, 261, 0
0, 0, 262, 0
0, 0, 263, 0
0, 0, 264, 0
0, 0, 265, 0
0, 0, 266, 0.004159491043537855
0, 0, 267, 0
0, 0, 268, 0
0, 0, 269, 0
0, 0, 270, 0.04415465518832207
0, 0, 271, 0
0, 0, 272, 0
0, 0, 273, 0
0, 0, 274, 0.001763512031175196
0, 0, 275, 0
0, 0, 276, 0.04375531896948814
0, 0, 277, 0
0, 0, 278, 0
0, 0, 279, 0
0, 0, 280, 0.00018592260312289
0, 0, 281, 0
0, 0, 282, 0
0, 0, 283, 0
0, 0, 284, 0
0, 0, 285, 0.005676396191120148
0, 0, 286, 0.03699545562267303
0, 0, 287, 0
0, 0, 288, 0.001432424527592957
0, 0, 289, 0.003504666732624173
0, 0, 290, 0.005379545968025923
0, 0, 291, 0
0, 0, 292, 0
0, 0, 293, 0.001314264023676515
0, 0, 294, 0.03749897330999374
0, 0, 295, 0
0, 0, 296, 0.0001053090745699592
0, 0, 297, 0
0, 0, 298, 0.005452251993119717
0, 0, 299, 0.00388342747464776
0, 0, 300, 0
0, 0, 301, 0
0, 0, 302, 0.006420373450964689
0, 0, 303, 0
0, 0, 304, 0
0, 0, 305, 0
0, 0, 306, 0
0, 0, 307, 0.03988800942897797
0, 0, 308, 0.0002962907019536942
0, 0, 309, 0
0, 0, 310, 0.004671432543545961
0, 0, 311, 0
0, 0, 312, 0
0, 0, 313, 0
0, 0, 314, 0.0005867504514753819
0, 0, 315, 0
0, 0, 316, 0
0, 0, 317, 0.002881810069084167
0, 0, 318, 0
0, 0, 319, 0.002251777797937393
0, 0, 320, 0
0, 0, 321, 0.0361609198153019
0, 0, 322, 0
0, 0, 323, 0
0, 0, 324, 0
0, 0, 325, 0
0, 0, 326, 0
0, 0, 327, 0
0, 0, 328, 0
0, 0, 329, 0
0, 0, 330, 0.02919434010982513
0, 0, 331, 0
0, 0, 332, 0.003305923659354448
0, 0, 333, 0
0, 0, 334, 0
0, 0, 335, 0
0, 0, 336, 0
0, 0, 337, 0
0, 0, 338, 0
0, 0, 339, 0
0, 0, 340, 0
0, 0, 341, 0
0, 0, 342, 0
0, 0, 343, 0.005205773748457432
0, 0, 344, 0
0, 0, 345, 0
0, 0, 346, 0
0, 0, 347, 0
0, 0, 348, 0.03505289554595947
0, 0, 349, 0
0, 0, 350, 0
0, 0, 351, 0
0, 0, 352, 0
0, 0, 353, 0
0, 0, 354, 0
0, 0, 355, 0
0, 0, 356, 0.0007631081971339881
0, 0, 357, 0
0, 0, 358, 0.0008692279225215316
0, 0, 359, 0
0, 0, 360, 0
0, 0, 361, 0
0, 0, 362, 0.005551171023398638
0, 0, 363, 0.02853877283632755
0, 0, 364, 0
0, 0, 365, 0
0, 0, 366, 0
0, 0, 367, 0
0, 0, 368, 0
0, 0, 369, 0.002799503970891237
0, 0, 370, 0
0, 0, 371, 0
0, 0, 372, 0
0, 0, 373, 0.0002750018320512027
0, 0, 374, 0.002009495859965682
0, 0, 375, 0
0, 0, 376, 0
0, 0, 377, 0
0, 0, 378, 0
0, 0, 379, 0
0, 0, 380, 0
0, 0, 381, 0.004804512020200491
0, 0, 382, 0
0, 0, 383, 0
0, 0, 384, 0
0, 0, 385, 0
0, 0, 386, 0
0, 0, 387, 0
0, 0, 388, 0.04171574115753174
0, 0, 389, 0
0, 0, 390, 0
0, 0, 391, 0
0, 0, 392, 0
0, 0, 393, 0.03466909751296043
0, 0, 394, 0.001815732102841139
0, 0, 395, 0.004216172732412815
0, 0, 396, 0
0, 0, 397, 0.001719816005788743
0, 0, 398, 0.002811193931847811
0, 0, 399, 0
0, 0, 400, 0.0006139393663033843
0, 0, 401, 0
0, 0, 402, 0.002072029048576951
0, 0, 403, 0.0004831347614526749
0, 0, 404, 0
0, 0, 405, 0.001003841636702418
0, 0, 406, 0.003978415858000517
0, 0, 407, 0
0, 0, 408, 0
0, 0, 409, 0.003479038365185261
0, 0, 410, 0.02668836340308189
0, 0, 411, 0
0, 0, 412, 0.002096411306411028
0, 0, 413, 0
0, 0, 414, 0
0, 0, 415, 0
0, 0, 416, 0
0, 0, 417, 0
0, 0, 418, 0
0, 0, 419, 0.007503619883209467
0, 0, 420, 0
0, 0, 421, 0
0, 0, 422, 0.01174071244895458
0, 0, 423, 0.008568471297621727
0, 0, 424, 0
0, 0, 425, 0.001466384506784379
0, 0, 426, 0
0, 0, 427, 0.006503940559923649
0, 0, 428, 0.03327165171504021
0, 0, 429, 0.0003334200009703636
0, 0, 430, 0.004192850552499294
0, 0, 431, 0
0, 0, 432, 0.0007345170015469193
0, 0, 433, 0.0004047829133924097
0, 0, 434, 0.003899522824212909
0, 0, 435, 0.006505639757961035
0, 0, 436, 0.002146466867998242
0, 0, 437, 0
0, 0, 438, 0
0, 0, 439, 0.001010077190585434
0, 0, 440, 0.003207711968570948
0, 0, 441, 0
0, 0, 442, 0.0734039843082428
0, 0, 443, 0.008068399503827095
0, 0, 444, 0
0, 0, 445, 0
0, 0, 446, 0
0, 0, 447, 0.0002775366010610014
0, 0, 448, 0
0, 0, 449, 0
0, 0, 450, 0.003673597238957882
0, 0, 451, 0.004142995458096266
0, 0, 452, 0
0, 0, 453, 0.0002008538576774299
0, 0, 454, 0.004793167114257812
0, 0, 455, 0
0, 0, 456, 0
0, 0, 457, 0.00497016916051507
0, 0, 458, 0
0, 0, 459, 0.002117218682542443
0, 0, 460, 0.003417676780372858
0, 0, 461, 0
0, 0, 462, 0
0, 0, 463, 0.0003817866381723434
0, 0, 464, 0.03418657928705215
0, 0, 465, 0
0, 0, 466, 0
0, 0, 467, 0
0, 0, 468, 0
0, 0, 469, 0.03249840438365936
0, 0, 470, 0.001633291249163449
0, 0, 471, 0.002734396839514375
0, 0, 472, 0.02961014583706856
0, 0, 473, 0
0, 0, 474, 0
0, 0, 475, 0
0, 0, 476, 0.0005899114767089486
0, 0, 477, 0
0, 0, 478, 0
0, 0, 479, 0
0, 0, 480, 0.006281720940023661
0, 0, 481, 0.003347416874021292
0, 0, 482, 0.001825541607104242
0, 0, 483, 0
0, 0, 484, 0
0, 0, 485, 0.006647477392107248
0, 0, 486, 0
0, 0, 487, 0
0, 0, 488, 0
0, 0, 489, 0.0003844057209789753
0, 0, 490, 0.002095124218612909
0, 0, 491, 0.04132011532783508
0, 0, 492, 0
0, 0, 493, 0
0, 0, 494, 0
0, 0, 495, 0.006513859611004591
0, 0, 496, 0
0, 0, 497, 0.00297180563211441
0, 0, 498, 0.000510297017171979
0, 0, 499, 0.02934461645781994
0, 0, 500, 0.004629500675946474
0, 0, 501, 0.001166751026175916
0, 0, 502, 0
0, 0, 503, 0.01952331140637398
0, 0, 504, 0.007873578928411007
0, 0, 505, 0.0001646413002163172
0, 0, 506, 0.04131398722529411
0, 0, 507, 0
0, 0, 508, 0.003341397969052196
0, 0, 509, 0.03601918742060661
0, 0, 510, 0
0, 0, 511, 0.005786442663520575
0, 0, 512, 0.0001458075712434947
0, 0, 513, 0
0, 0, 514, 0.000769477104768157
0, 0, 515, 0
0, 0, 516, 0.006990788038820028
0, 0, 517, 0
0, 0, 518, 0
0, 0, 519, 0.003893057582899928
0, 0, 520, 0
0, 0, 521, 0.004993563517928123
0, 0, 522, 0
0, 0, 523, 0
0, 0, 524, 0.0008496980299241841
0, 0, 525, 0
0, 0, 526, 0
0, 0, 527, 0.008012645877897739
0, 0, 528, 0
0, 0, 529, 0
0, 0, 530, 0.004098374862223864
0, 0, 531, 0
0, 0, 532, 0.0002071311319014058
0, 0, 533, 0.0296731274574995
0, 0, 534, 0
0, 0, 535, 0
0, 0, 536, 0
0, 0, 537, 0
0, 0, 538, 0
0, 0, 539, 0
0, 0, 540, 0
0, 0, 541, 0
0, 0, 542, 0
0, 0, 543, 0.001258429139852524
0, 0, 544, 0
0, 0, 545, 0.03113680891692638
0, 0, 546, 0.04051825031638145
0, 0, 547, 0
0, 0, 548, 0
0, 0, 549, 0
0, 0, 550, 0
0, 0, 551, 0.03644455224275589
0, 0, 552, 0.001547579537145793
0, 0, 553, 0.003018451854586601
0, 0, 554, 0.04198800772428513
0, 0, 555, 0
0, 0, 556, 0
0, 0, 557, 0.03421064466238022
0, 0, 558, 0
0, 0, 559, 0
0, 0, 560, 0.008968198671936989
0, 0, 561, 0.001748557318933308
0, 0, 562, 0.04648206010460854
0, 0, 563, 0.0003832292277365923
0, 0, 564, 0.007381702773272991
0, 0, 565, 0
0, 0, 566, 0
0, 0, 567, 0.03228891640901566
0, 0, 568, 0
0, 0, 569, 0.03427975624799728
0, 0, 570, 0.001375452615320683
0, 0, 571, 0
0, 0, 572, 0.03887630254030228
0, 0, 573, 0
0, 0, 574, 0
0, 0, 575, 0
0, 0, 576, 0
0, 0, 577, 0.00179049395956099
0, 0, 578, 0
0, 0, 579, 0.001165139372460544
0, 0, 580, 0.03290474787354469
0, 0, 581, 0
0, 0, 582, 0
0, 0, 583, 0
0, 0, 584, 0.002299450105056167
0, 0, 585, 0
0, 0, 586, 0.001255546929314733
0, 0, 587, 0.0431518591940403
0, 0, 588, 0.001125623472034931
0, 0, 589, 0.03380007669329643
0, 0, 590, 0.03264792263507843
0, 0, 591, 0.00437795277684927
0, 0, 592, 0.003957716282457113
0, 0, 593, 0.0005217308644205332
0, 0, 594, 0
0, 0, 595, 0.005175331141799688
0, 0, 596, 0.002637087367475033
0, 0, 597, 0.003970324527472258
0, 0, 598, 0
0, 0, 599, 0
0, 0, 600, 0.04048271104693413
0, 0, 601, 0
0, 0, 602, 0
0, 0, 603, 0.003630414139479399
0, 0, 604, 0.02958068810403347
0, 0, 605, 0.0008361104992218316
0, 0, 606, 0
0, 0, 607, 0
0, 0, 608, 0
0, 0, 609, 0.06531952321529388
0, 0, 610, 0.003221562597900629
0, 0, 611, 0.04372033104300499
0, 0, 612, 0
0, 0, 613, 0
0, 0, 614, 0
0, 0, 615, 0
0, 0, 616, 0
0, 0, 617, 0
0, 0, 618, 0
0, 0, 619, 0.009631981141865253
0, 0, 620, 0.08397912234067917
0, 0, 621, 0.002947119530290365
0, 0, 622, 0.04334847256541252
0, 0, 623, 0.001013429835438728
0, 0, 624, 0
0, 0, 625, 0.005625295918434858
0, 0, 626, 0
0, 0, 627, 0.02945497445762157
0, 0, 628, 0.000886864960193634
0, 0, 629, 0.03493529558181763
0, 0, 630, 0
0, 0, 631, 0.04039718583226204
0, 0, 632, 0.0121909212321043
0, 0, 633, 0.002234465442597866
0, 0, 634, 0.03728911280632019
0, 0, 635, 0.002170713152736425
0, 0, 636, 0
0, 0, 637, 0
0, 0, 638, 0
0, 0, 639, 0.01327716186642647
0, 0, 640, 0
0, 0, 641, 0.07893505692481995
0, 0, 642, 0.003706006100401282
0, 0, 643, 0.002500553149729967
0, 0, 644, 0.004067280795425177
0, 0, 645, 0
0, 0, 646, 0.005720142740756273
0, 0, 647, 0
0, 0, 648, 0.000959017954301089
0, 0, 649, 0
0, 0, 650, 0
0, 0, 651, 0
0, 0, 652, 0
0, 0, 653, 0.04966212809085846
0, 0, 654, 0
0, 0, 655, 0.04246523603796959
0, 0, 656, 0.0007080063805915415
0, 0, 657, 0
0, 0, 658, 0
0, 0, 659, 0.001049263286404312
0, 0, 660, 0
0, 0, 661, 0.002609338145703077
0, 0, 662, 0
0, 0, 663, 0
0, 0, 664, 0.03907287493348122
0, 0, 665, 0.02795865572988987
0, 0, 666, 0.001366501091979444
0, 0, 667, 0
0, 0, 668, 0
0, 0, 669, 0
0, 0, 670, 0.0003749729658011347
0, 0, 671, 0
0, 0, 672, 0.001728535396978259
0, 0, 673, 0.05435854941606522
0, 0, 674, 0
0, 0, 675, 0
0, 0, 676, 0
0, 0, 677, 0.02842746861279011
0, 0, 678, 0
0, 0, 679, 0
0, 0, 680, 0
0, 0, 681, 0
0, 0, 682, 0
0, 0, 683, 0
0, 0, 684, 0
0, 0, 685, 0.03621146082878113
0, 0, 686, 0.004414830356836319
0, 0, 687, 0.002572552533820271
0, 0, 688, 0.02372294850647449
0, 0, 689, 0
0, 0, 690, 0.00166295503731817
0, 0, 691, 0.0004923694068565965
0, 0, 692, 0
0, 0, 693, 0.002940582577139139
0, 0, 694, 0.004603518638759851
0, 0, 695, 0.01978072337806225
0, 0, 696, 0.004379067104309797
0, 0, 697, 0.007463404908776283
0, 0, 698, 0
0, 0, 699, 0.00528253335505724
0, 0, 700, 0.0001434153818991035
0, 0, 701, 0.001280016964301467
0, 0, 702, 0.003274733200669289
0, 0, 703, 0.002371775917708874
0, 0, 704, 0.0006353913340717554
0, 0, 705, 0.04804298281669617
0, 0, 706, 0
0, 0, 707, 0.004469517152756453
0, 0, 708, 0.01499109994620085
0, 0, 709, 0.01229934766888618
0, 0, 710, 0.003369627520442009
0, 0, 711, 0.007957668043673038
0, 0, 712, 0.00054159015417099
0, 0, 713, 0.000100852812465746
0, 0, 714, 0.04053547233343124
0, 0, 715, 0.006829609163105488
0, 0, 716, 0.00966680608689785
0, 0, 717, 0.04388962686061859
0, 0, 718, 0.0005594803369604051
0, 0, 719, 0
0, 0, 720, 0.0008800820214673877
0, 0, 721, 0.06880783289670944
0, 0, 722, 0
0, 0, 723, 0
0, 0, 724, 0.001506738946773112
0, 0, 725, 0
0, 0, 726, 0.008776430040597916
0, 0, 727, 0.002836437895894051
0, 0, 728, 0.005371099803596735
0, 0, 729, 0.03513443470001221
0, 0, 730, 0
0, 0, 731, 0.008740589022636414
0, 0, 732, 0.06239932402968407
0, 0, 733, 0
0, 0, 734, 0
0, 0, 735, 0.007758722174912691
0, 0, 736, 0.009143966250121593
0, 0, 737, 0.006373519543558359
0, 0, 738, 0.003921751398593187
0, 0, 739, 0.006305425427854061
0, 0, 740, 0.002990949666127563
0, 0, 741, 0.03745746240019798
0, 0, 742, 0.001512682647444308
0, 0, 743, 0.004863081034272909
0, 0, 744, 0.03091671317815781
0, 0, 745, 0.003949782345443964
0, 0, 746, 0.008467989973723888
0, 0, 747, 0.002496594097465277
0, 0, 748, 0.005090096034109592
0, 0, 749, 0
0, 0, 750, 0
0, 0, 751, 0.005367334466427565
0, 0, 752, 0
0, 0, 753, 0.03451286628842354
0, 0, 754, 0.04226472601294518
0, 0, 755, 0
0, 0, 756, 0.0002650201204232872
0, 0, 757, 0.001813137205317616
0, 0, 758, 0.003245976753532887
0, 0, 759, 0.003096559550613165
0, 0, 760, 0
0, 0, 761, 0.001267582061700523
0, 0, 762, 0.03620957210659981
0, 0, 763, 0.03613734617829323
0, 0, 764, 0.03798601403832436
0, 0, 765, 0
0, 0, 766, 0.01265210472047329
0, 0, 767, 0
0, 0, 768, 0.01209093537181616
0, 0, 769, 0.01222993526607752
0, 0, 770, 7.554975309176371e-05
0, 0, 771, 0.008425186388194561
0, 0, 772, 0.03758737817406654
0, 0, 773, 0.002459514187648892
0, 0, 774, 0.0004200132680125535
0, 0, 775, 0.02114572562277317
0, 0, 776, 0.03927245363593102
0, 0, 777, 0.04156625270843506
0, 0, 778, 0.0007276335963979363
0, 0, 779, 0.03350377827882767
0, 0, 780, 0.004333680495619774
0, 0, 781, 0.008117342367768288
0, 0, 782, 0.001491397270001471
0, 0, 783, 0.003349588252604008
0, 0, 784, 0
0, 0, 785, 0
0, 0, 786, 0
0, 0, 787, 0.03326191008090973
0, 0, 788, 0.006387053523212671
0, 0, 789, 0.001075936364941299
0, 0, 790, 0.03006711788475513
0, 0, 791, 0
0, 0, 792, 0.0357743576169014
0, 0, 793, 0
0, 0, 794, 0.003144961083307862
0, 0, 795, 0.002776940353214741
0, 0, 796, 0.002395579125732183
0, 0, 797, 0.003640704555436969
0, 0, 798, 0.01017281878739595
0, 0, 799, 0.03529402241110802
0, 0, 800, 0.001850352389737964
0, 0, 801, 0.005692978389561176
0, 0, 802, 0.0004161296528764069
0, 0, 803, 0.02729563415050507
0, 0, 804, 0.000174433778738603
0, 0, 805, 0
0, 0, 806, 0
0, 0, 807, 0
0, 0, 808, 0.001697227358818054
0, 0, 809, 0.005655722692608833
0, 0, 810, 0.005426263436675072
0, 0, 811, 0
0, 0, 812, 0.000952618196606636
0, 0, 813, 0.0180777795612812
0, 0, 814, 0.04055574908852577
0, 0, 815, 0.0007402299670502543
0, 0, 816, 0.00625920481979847
0, 0, 817, 0.004425923805683851
0, 0, 818, 0
0, 0, 819, 0.0004955425392836332
0, 0, 820, 0
0, 0, 821, 0
0, 0, 822, 0.04112925007939339
0, 0, 823, 0.002281979424878955
0, 0, 824, 0.0003166722599416971
0, 0, 825, 0.109192281961441
0, 0, 826, 0.002395184244960546
0, 0, 827, 0.00667381938546896
0, 0, 828, 0.002303220564499497
0, 0, 829, 0.04960491880774498
0, 0, 830, 0.003753387369215488
0, 0, 831, 0.005286092404276133
0, 0, 832, 0.0007409859681501985
0, 0, 833, 0.05221511796116829
0, 0, 834, 0.0006233911262825131
0, 0, 835, 0.001230476074852049
0, 0, 836, 0.003413590369746089
0, 0, 837, 0.03354045003652573
0, 0, 838, 0
0, 0, 839, 0.004618216771632433
0, 0, 840, 0.007280157413333654
0, 0, 841, 0.0007597749354317784
0, 0, 842, 0.03560866415500641
0, 0, 843, 0.002049819566309452
0, 0, 844, 0.001688269549049437
0, 0, 845, 0.003828480141237378
0, 0, 846, 0
0, 0, 847, 0
0, 0, 848, 0
0, 0, 849, 0.02345788665115833
0, 0, 850, 0.003086751559749246
0, 0, 851, 0
0, 0, 852, 0.01288709416985512
0, 0, 853, 0
0, 0, 854, 0.007365327328443527
0, 0, 855, 0
0, 0, 856, 0.004829586949199438
0, 0, 857, 0
0, 0, 858, 0.004045541863888502
0, 0, 859, 0.03113135322928429
0, 0, 860, 0.07695291191339493
0, 0, 861, 0.002577761886641383
0, 0, 862, 0
0, 0, 863, 0.04243670031428337
0, 0, 864, 0.007528997492045164
0, 0, 865, 0
0, 0, 866, 0
0, 0, 867, 0.00316503643989563
0, 0, 868, 0.002387956716120243
0, 0, 869, 0
0, 0, 870, 0
0, 0, 871, 0
0, 0, 872, 0.005592758767306805
0, 0, 873, 0
0, 0, 874, 0.0009359983960166574
0, 0, 875, 0.008334554731845856
0, 0, 876, 0
0, 0, 877, 0.008751588873565197
0, 0, 878, 0
0, 0, 879, 0
0, 0, 880, 0
0, 0, 881, 0.004905211739242077
0, 0, 882, 0
0, 0, 883, 0
0, 0, 884, 0.04016175493597984
0, 0, 885, 0
0, 0, 886, 0
0, 0, 887, 0.0320807509124279
0, 0, 888, 0
0, 0, 889, 0.0008745865197852254
0, 0, 890, 0.002251968486234546
0, 0, 891, 0
0, 0, 892, 0.005182204768061638
0, 0, 893, 0.03106282278895378
0, 0, 894, 0
0, 0, 895, 0.001155533478595316
0, 0, 896, 0.03798792883753777
0, 0, 897, 0
0, 0, 898, 0.004859576933085918
0, 0, 899, 0.01172619313001633
0, 0, 900, 0.03597185760736465
0, 0, 901, 0.003351299557834864
0, 0, 902, 0.006823936477303505
0, 0, 903, 0.004535286221653223
0, 0, 904, 0
0, 0, 905, 0.001635060762055218
0, 0, 906, 0
0, 0, 907, 0.003074982203543186
0, 0, 908, 0.006265058647841215
0, 0, 909, 0
0, 0, 910, 0.007262845057994127
0, 0, 911, 0.007327181287109852
0, 0, 912, 0
0, 0, 913, 0.006056050304323435
0, 0, 914, 0.003044346813112497
0, 0, 915, 0.04067285358905792
0, 0, 916, 0.007789098657667637
0, 0, 917, 0
0, 0, 918, 0
0, 0, 919, 0
0, 0, 920, 0.002190507715567946
0, 0, 921, 0.0006925872876308858
0, 0, 922, 0.007551162503659725
0, 0, 923, 0
0, 0, 924, 0.005995972082018852
0, 0, 925, 0.009403473697602749
0, 0, 926, 0.0003723112167790532
0, 0, 927, 0
0, 0, 928, 0.0968044102191925
0, 0, 929, 0
0, 0, 930, 0
0, 0, 931, 0
0, 0, 932, 0.040877565741539
0, 0, 933, 0.05381502583622932
0, 0, 934, 0.0003149915428366512
0, 0, 935, 0
0, 0, 936, 0.002555526094511151
0, 0, 937, 0.006832257378846407
0, 0, 938, 0.0462515614926815
0, 0, 939, 0.01539724040776491
0, 0, 940, 0.003234356874600053
0, 0, 941, 0.1111573055386543
0, 0, 942, 0.01173041667789221
0, 0, 943, 0.04245810955762863
0, 0, 944, 0.0008169692009687424
0, 0, 945, 0.02384519390761852
0, 0, 946, 0.03915386646986008
0, 0, 947, 0.006068098358809948
0, 0, 948, 0.03590722754597664
0, 0, 949, 0.003256838768720627
0, 0, 950, 0
0, 0, 951, 0.04165115207433701
0, 0, 952, 0.05786322429776192
0, 0, 953, 0.004755628295242786
0, 0, 954, 0.004940235987305641
0, 0, 955, 0.03659309819340706
0, 0, 956, 0
0, 0, 957, 0
0, 0, 958, 0
0, 0, 959, 0.05309245735406876
0, 0, 960, 0.0978345200419426
0, 0, 961, 0.007373184897005558
0, 0, 962, 0.001212965114973485
0, 0, 963, 0.01067390386015177
0, 0, 964, 0
0, 0, 965, 0.04057125747203827
0, 0, 966, 0.002088910201564431
0, 0, 967, 0.002019147155806422
0, 0, 968, 0.008194909431040287
0, 0, 969, 0.03786409646272659
0, 0, 970, 0.01263791043311357
0, 0, 971, 0.03149406611919403
0, 0, 972, 0.002790842205286026
0, 0, 973, 0.05569084361195564
0, 0, 974, 0.04077310487627983
0, 0, 975, 0.004559576045721769
0, 0, 976, 0.005073679611086845
0, 0, 977, 0.004652327857911587
0, 0, 978, 0.0069314856082201
0, 0, 979, 0.0005902950069867074
0, 0, 980, 0.06208100169897079
0, 0, 981, 0.006739730946719646
0, 0, 982, 0
0, 0, 983, 0
0, 0, 984, 0.003051957348361611
0, 0, 985, 0.08008275181055069
0, 0, 986, 0
0, 0, 987, 0
0, 0, 988, 0.04533908143639565
0, 0, 989, 0
0, 0, 990, 0.03998666629195213
0, 0, 991, 0
0, 0, 992, 0.03824378922581673
0, 0, 993, 0
0, 0, 994, 0.06951111555099487
0, 0, 995, 0.03012644499540329
0, 0, 996, 0.01432195492088795
0, 0, 997, 0.04307336360216141
0, 0, 998, 0.05100206658244133
0, 0, 999, 0
0, 0, 1000, 0.01325302757322788
0, 0, 1001, 0.01527839340269566
0, 0, 1002, 0.01551178283989429
0, 0, 1003, 0.03959206119179726
0, 0, 1004, 0.04259173944592476
0, 0, 1005, 0.08007646352052689
0, 0, 1006, 0.04184741526842117
0, 0, 1007, 0.001517433440312743
0, 0, 1008, 0.005916759837418795
0, 0, 1009, 0.008268091827630997
0, 0, 1010, 0.01185989379882812
0, 0, 1011, 0.006939281709492207
0, 0, 1012, 0.008006574586033821
0, 0, 1013, 0.07266082614660263
0, 0, 1014, 0.07122316211462021
0, 0, 1015, 0.03994480893015862
0, 0, 1016, 0.08892471343278885
0, 0, 1017, 0.05152401700615883
0, 0, 1018, 0.03929061070084572
0, 0, 1019, 0.04240415245294571
0, 0, 1020, 0.009207041934132576
0, 0, 1021, 0.003520162543281913
0, 0, 1022, 0.04121686145663261
0, 0, 1023, 0.03601491451263428
0, 0, 1024, 0.0006043346947990358
0, 0, 1025, 0.004095816519111395
0, 0, 1026, 0.0009171302081085742
0, 0, 1027, 0.03829383105039597
0, 0, 1028, 0.01427086163312197
0, 0, 1029, 0.04732972383499146
0, 0, 1030, 0.07058712095022202
0, 0, 1031, 0.00454671960324049
0, 0, 1032, 0.01147319655865431
0, 0, 1033, 0.01457933709025383
0, 0, 1034, 0.0421973429620266
0, 0, 1035, 0.009798169136047363
0, 0, 1036, 0.02510441653430462
0, 0, 1037, 0.03705409541726112
0, 0, 1038, 0.001858482020907104
0, 0, 1039, 0.0002887535083573312
0, 0, 1040, 0.07058367133140564
0, 0, 1041, 0.01316873449832201
0, 0, 1042, 0.04190145805478096
0, 0, 1043, 0.04298756271600723
0, 0, 1044, 0.03675943240523338
0, 0, 1045, 0.007212924771010876
0, 0, 1046, 0.02136384882032871
0, 0, 1047, 0.05119588971138
0, 0, 1048, 0.08897005021572113
0, 0, 1049, 0.1007896959781647
0, 0, 1050, 0.0005317195900715888
0, 0, 1051, 0.003876175032928586
0, 0, 1052, 0.00545591302216053
0, 0, 1053, 0.0003652239684015512
0, 0, 1054, 0.0361776277422905
0, 0, 1055, 0.00320005789399147
0, 0, 1056, 0.002777253976091743
0, 0, 1057, 0.01233532931655645
0, 0, 1058, 0.07453722506761551
0, 0, 1059, 0.09570357948541641
0, 0, 1060, 0.06993230432271957
0, 0, 1061, 0.005364872980862856
0, 0, 1062, 0.03199780359864235
0, 0, 1063, 0.1025835201144218
0, 0, 1064, 0.06415276229381561
0, 0, 1065, 0.008681158535182476
0, 0, 1066, 0.01117914076894522
0, 0, 1067, 0.0008550127386115491
0, 0, 1068, 0.1843340396881104
0, 0, 1069, 0.05226054042577744
0, 0, 1070, 0.1253504902124405
0, 0, 1071, 0.009340005926787853
0, 0, 1072, 0.01838635094463825
0, 0, 1073, 0
0, 0, 1074, 0.01578132063150406
0, 0, 1075, 0.03680421411991119
0, 0, 1076, 0.03363345190882683
0, 0, 1077, 0.05573515221476555
0, 0, 1078, 0.1236405298113823
0, 0, 1079, 0.03620409220457077
0, 0, 1080, 0.05079365894198418
0, 0, 1081, 0.00369693199172616
0, 0, 1082, 0.0220325980335474
0, 0, 1083, 0.00534087372943759
0, 0, 1084, 0.08929169178009033
0, 0, 1085, 0.00185878318734467
0, 0, 1086, 0.01336945779621601
0, 0, 1087, 0.01084259524941444
0, 0, 1088, 0.08529719710350037
0, 0, 1089, 0.2073107659816742
0, 0, 1090, 0.140735849738121
0, 0, 1091, 0.0529167577624321
0, 0, 1092, 0.00342880142852664
0, 0, 1093, 0.004422981292009354
0, 0, 1094, 0.07592294365167618
0, 0, 1095, 0.05097220838069916
0, 0, 1096, 0.1389403939247131
0, 0, 1097, 0.08070819824934006
0, 0, 1098, 0.02330181933939457
0, 0, 1099, 0.03809932246804237
0, 0, 1100, 0.1168641075491905
0, 0, 1101, 0.05940629914402962
0, 0, 1102, 0.06689462810754776
0, 0, 1103, 0.100108727812767
0, 0, 1104, 0.03855333104729652
0, 0, 1105, 0.01173443347215652
0, 0, 1106, 0.05755102261900902
0, 0, 1107, 0.01965514197945595
0, 0, 1108, 0.06020134687423706
0, 0, 1109, 0.07983947545289993
0, 0, 1110, 0.07120396941900253
0, 0, 1111, 0.03462487831711769
0, 0, 1112, 0.0967576652765274
0, 0, 1113, 0.227893739938736
0, 0, 1114, 0.06938802450895309
0, 0, 1115, 0.055753193795681
0, 0, 1116, 0.06726936995983124
0, 0, 1117, 0.1120317280292511
0, 0, 1118, 0.02609788440167904
0, 0, 1119, 0.08665572851896286
0, 0, 1120, 0.06925661861896515
0, 0, 1121, 0.1019291654229164
0, 0, 1122, 0.07393775135278702
0, 0, 1123, 0.08101151138544083
0, 0, 1124, 0.0376233235001564
0, 0, 1125, 0.06065372377634048
0, 0, 1126, 0.1797220408916473
0, 0, 1127, 0.08687844127416611
0, 0, 1128, 0.1732353419065475
0, 0, 1129, 0.1004890352487564
0, 0, 1130, 0.009802275337278843
0, 0, 1131, 0.09400823712348938
0, 0, 1132, 0.2101836353540421
0, 0, 1133, 0.1011528074741364
0, 0, 1134, 0.2315767407417297
0, 0, 1135, 0.1009408235549927
0, 0, 1136, 0.06529078632593155
0, 0, 1137, 0.06917747110128403
0, 0, 1138, 0.1267670840024948
0, 0, 1139, 0.2110072821378708
0, 0, 1140, 0.1611849516630173
0, 0, 1141, 0.07921072840690613
0, 0, 1142, 0.1079526767134666
0, 0, 1143, 0.07088063657283783
0, 0, 1144, 0.1810521483421326
0, 0, 1145, 0.2594278752803802
0, 0, 1146, 0.07133014500141144
0, 0, 1147, 0.1281639188528061
0, 0, 1148, 0.09736867994070053
0, 0, 1149, 0.1143000423908234
0, 0, 1150, 0.1264154762029648
0, 0, 1151, 0.2400674968957901
0, 0, 1152, 0.1490053832530975
0, 0, 1153, 0.1169273257255554
0, 0, 1154, 0.1561106443405151
0, 0, 1155, 0.1183207184076309
0, 0, 1156, 0.1580142676830292
0, 0, 1157, 0.09464126080274582
0, 0, 1158, 0.2948069274425507
0, 0, 1159, 0.2661738097667694
0, 0, 1160, 0.1218825057148933
0, 0, 1161, 0.2083594053983688
0, 0, 1162, 0.1906459778547287
0, 0, 1163, 0.2469667494297028
0, 0, 1164, 0.3266204297542572
0, 0, 1165, 0.25900998711586
0, 0, 1166, 0.1317525655031204
0, 0, 1167, 0.2696806192398071
0, 0, 1168, 0.1918741166591644
0, 0, 1169, 0.3827508091926575
0, 0, 1170, 0.265365868806839
0, 0, 1171, 0.3245670199394226
0, 0, 1172, 0.1897266060113907
0, 0, 1173, 0.3546789586544037
0, 0, 1174, 0.3947890996932983
0, 0, 1175, 0.2492336183786392
0, 0, 1176, 0.2596057951450348
0, 0, 1177, 0.2459527552127838
0, 0, 1178, 0.3035131692886353
0, 0, 1179, 0.2110128551721573
0, 0, 1180, 0.3771117031574249
0, 0, 1181, 0.2811986207962036
0, 0, 1182, 0.3033033907413483
0, 0, 1183, 0.3633774220943451
0, 0, 1184, 0.2077731937170029
0, 0, 1185, 0.2257775813341141
0, 0, 1186, 0.2961999475955963
0, 0, 1187, 0.1781750172376633
0, 0, 1188, 0.5519935488700867
0, 0, 1189, 0.4810863733291626
0, 0, 1190, 0.1919489204883575
0, 0, 1191, 0.2692140340805054
0, 0, 1192, 0.5288113355636597
0, 0, 1193, 0.2667849659919739
0, 0, 1194, 0.3173654973506927
0, 0, 1195, 0.414929986000061
0, 0, 1196, 0.2827818691730499
0, 0, 1197, 0.2988122403621674
0, 0, 1198, 0.4633616209030151
0, 0, 1199, 0.3814018666744232
0, 0, 1200, 0.3735203146934509
0, 0, 1201, 0.564270555973053
0, 0, 1202, 0.40329709649086
0, 0, 1203, 0.5173810124397278
0, 0, 1204, 0.2172581851482391
0, 0, 1205, 0.5152996182441711
0, 0, 1206, 0.4586255550384521
0, 0, 1207, 0.5678244829177856
0, 0, 1208, 0.3619093000888824
0, 0, 1209, 0.5665422081947327
0, 0, 1210, 0.6272530555725098
0, 0, 1211, 0.5458635091781616
0, 0, 1212, 0.5197883248329163
0, 0, 1213, 0.4153022170066833
0, 0, 1214, 0.3517946600914001
0, 0, 1215, 0.5213795304298401
0, 0, 1216, 0.4736579954624176
0, 0, 1217, 0.6677534580230713
0, 0, 1218, 0.623593270778656
0, 0, 1219, 0.7401971220970154
0, 0, 1220, 0.7823719382286072
0, 0, 1221, 0.5004002451896667
0, 0, 1222, 0.5988280177116394
0, 0, 1223, 0.6975085139274597
0, 0, 1224, 0.6878169178962708
0, 0, 1225, 0.7313014268875122
0, 0, 1226, 0.638856828212738
0, 0, 1227, 0.7797208428382874
0, 0, 1228, 0.7097248435020447
0, 0, 1229, 0.8227810263633728
0, 0, 1230, 0.703857958316803
0, 0, 1231, 0.8237248659133911
0, 0, 1232, 0.7647514343261719
0, 0, 1233, 0.7325810790061951
0, 0, 1234, 0.8692823052406311
0, 0, 1235, 0.9919612407684326
0, 0, 1236, 0.7902328968048096
