# TOPAS Version: 3.3.p1
# Parameter File: Test.txt
# Results for scorer MLIC_Scorer
# Scored in component: MLIC
# X in 180 bins of 0.177778 cm
# Y in 1 bin  of 10 cm
# Z in 1 bin  of 10 cm
# EnergyDeposit ( MeV ) : Sum   
0, 0, 0, 0
1, 0, 0, 0
2, 0, 0, 0
3, 0, 0, 0
4, 0, 0, 0
5, 0, 0, 0
6, 0, 0, 0
7, 0, 0, 0
8, 0, 0, 0
9, 0, 0, 0
10, 0, 0, 0
11, 0, 0, 0.02808887138962746
12, 0, 0, 0
13, 0, 0, 0
14, 0, 0, 0
15, 0, 0, 0
16, 0, 0, 0.0003753524215426296
17, 0, 0, 0.002144092926755548
18, 0, 0, 0.002790569793432951
19, 0, 0, 0
20, 0, 0, 0
21, 0, 0, 0
22, 0, 0, 0
23, 0, 0, 0.002265037503093481
24, 0, 0, 0
25, 0, 0, 0
26, 0, 0, 0
27, 0, 0, 0
28, 0, 0, 0.04800771176815033
29, 0, 0, 0
30, 0, 0, 0
31, 0, 0, 0
32, 0, 0, 0
33, 0, 0, 0.08251059800386429
34, 0, 0, 14.14491367340088
35, 0, 0, 112.6659545898438
36, 0, 0, 349.1983947753906
37, 0, 0, 964.9130249023438
38, 0, 0, 2242.5
39, 0, 0, 3767.96044921875
40, 0, 0, 4639.201171875
41, 0, 0, 5018.17529296875
42, 0, 0, 4713.6865234375
43, 0, 0, 4236.2548828125
44, 0, 0, 3686.73291015625
45, 0, 0, 3341.788818359375
46, 0, 0, 3032.3896484375
47, 0, 0, 2819.21044921875
48, 0, 0, 2654.675048828125
49, 0, 0, 2516.05615234375
50, 0, 0, 2414.883544921875
51, 0, 0, 2302.053955078125
52, 0, 0, 2215.29638671875
53, 0, 0, 2146.829833984375
54, 0, 0, 2073.869873046875
55, 0, 0, 2018.8134765625
56, 0, 0, 1965.949829101562
57, 0, 0, 1913.257080078125
58, 0, 0, 1860.36279296875
59, 0, 0, 1818.205688476562
60, 0, 0, 1780.968139648438
61, 0, 0, 1747.339599609375
62, 0, 0, 1719.905517578125
63, 0, 0, 1676.850219726562
64, 0, 0, 1641.252685546875
65, 0, 0, 1626.909057617188
66, 0, 0, 1591.095947265625
67, 0, 0, 1565.774780273438
68, 0, 0, 1547.726196289062
69, 0, 0, 1526.802490234375
70, 0, 0, 1498.667114257812
71, 0, 0, 1479.922607421875
72, 0, 0, 1465.559204101562
73, 0, 0, 1438.919189453125
74, 0, 0, 1425.62890625
75, 0, 0, 1405.657836914062
76, 0, 0, 1385.671752929688
77, 0, 0, 1376.312622070312
78, 0, 0, 1361.834716796875
79, 0, 0, 1340.894165039062
80, 0, 0, 1325.379638671875
81, 0, 0, 1314.096313476562
82, 0, 0, 1300.892822265625
83, 0, 0, 1291.186401367188
84, 0, 0, 1277.49072265625
85, 0, 0, 1273.573974609375
86, 0, 0, 1251.806518554688
87, 0, 0, 1242.44677734375
88, 0, 0, 1234.626220703125
89, 0, 0, 1219.21923828125
90, 0, 0, 1209.035400390625
91, 0, 0, 1201.709716796875
92, 0, 0, 1191.87109375
93, 0, 0, 1176.264404296875
94, 0, 0, 1170.050537109375
95, 0, 0, 1162.539672851562
96, 0, 0, 1153.849609375
97, 0, 0, 1153.46240234375
98, 0, 0, 1142.419921875
99, 0, 0, 1136.180297851562
100, 0, 0, 1122.906860351562
101, 0, 0, 1114.688232421875
102, 0, 0, 1116.0615234375
103, 0, 0, 1096.10009765625
104, 0, 0, 1101.523559570312
105, 0, 0, 1084.58740234375
106, 0, 0, 1089.976440429688
107, 0, 0, 1066.597778320312
108, 0, 0, 1070.505249023438
109, 0, 0, 1066.242797851562
110, 0, 0, 1049.916015625
111, 0, 0, 1052.625366210938
112, 0, 0, 1048.984375
113, 0, 0, 1036.598388671875
114, 0, 0, 1039.920043945312
115, 0, 0, 1038.577514648438
116, 0, 0, 1019.476745605469
117, 0, 0, 1019.326232910156
118, 0, 0, 1004.494506835938
119, 0, 0, 1002.891906738281
120, 0, 0, 1006.002685546875
121, 0, 0, 996.810302734375
122, 0, 0, 1001.966003417969
123, 0, 0, 989.893310546875
124, 0, 0, 989.1875610351562
125, 0, 0, 985.1383056640625
126, 0, 0, 973.08447265625
127, 0, 0, 967.014892578125
128, 0, 0, 960.4928588867188
129, 0, 0, 964.1077270507812
130, 0, 0, 957.0441284179688
131, 0, 0, 950.01025390625
132, 0, 0, 952.9417114257812
133, 0, 0, 944.4791870117188
134, 0, 0, 945.395263671875
135, 0, 0, 940.0325927734375
136, 0, 0, 938.671142578125
137, 0, 0, 929.26220703125
138, 0, 0, 921.8239135742188
139, 0, 0, 923.7894287109375
140, 0, 0, 917.1878051757812
141, 0, 0, 902.3575439453125
142, 0, 0, 917.5313110351562
143, 0, 0, 898.882568359375
144, 0, 0, 914.43701171875
145, 0, 0, 905.49267578125
146, 0, 0, 900.9926147460938
147, 0, 0, 887.8627319335938
148, 0, 0, 888.5449829101562
149, 0, 0, 887.6702880859375
150, 0, 0, 894.6143798828125
151, 0, 0, 883.7046508789062
152, 0, 0, 885.6602172851562
153, 0, 0, 873.6678466796875
154, 0, 0, 864.0550537109375
155, 0, 0, 872.8561401367188
156, 0, 0, 858.6574096679688
157, 0, 0, 865.3529663085938
158, 0, 0, 857.4505615234375
159, 0, 0, 861.6417236328125
160, 0, 0, 862.3446655273438
161, 0, 0, 851.0123901367188
162, 0, 0, 849.0706176757812
163, 0, 0, 845.9462890625
164, 0, 0, 847.1697387695312
165, 0, 0, 837.67626953125
166, 0, 0, 840.0103149414062
167, 0, 0, 835.6094970703125
168, 0, 0, 838.1116943359375
169, 0, 0, 825.43896484375
170, 0, 0, 834.4918212890625
171, 0, 0, 822.5546875
172, 0, 0, 821.76123046875
173, 0, 0, 822.722900390625
174, 0, 0, 825.0518798828125
175, 0, 0, 814.0836791992188
176, 0, 0, 813.038330078125
177, 0, 0, 815.6526489257812
178, 0, 0, 810.074951171875
179, 0, 0, 805.7576293945312
