# TOPAS Version: 3.3.p1
# Parameter File: Test.txt
# Results for scorer MLIC_Scorer
# Scored in component: MLIC
# X in 180 bins of 0.177778 cm
# Y in 1 bin  of 10 cm
# Z in 1 bin  of 10 cm
# EnergyDeposit ( MeV ) : Sum   
0, 0, 0, 0
1, 0, 0, 0
2, 0, 0, 0
3, 0, 0, 0
4, 0, 0, 0
5, 0, 0, 0
6, 0, 0, 0
7, 0, 0, 0.01261076517403126
8, 0, 0, 0
9, 0, 0, 0
10, 0, 0, 0.01721358299255371
11, 0, 0, 0
12, 0, 0, 0
13, 0, 0, 0
14, 0, 0, 0
15, 0, 0, 0
16, 0, 0, 0
17, 0, 0, 0
18, 0, 0, 0
19, 0, 0, 0
20, 0, 0, 0
21, 0, 0, 0
22, 0, 0, 0
23, 0, 0, 0
24, 0, 0, 0
25, 0, 0, 0
26, 0, 0, 0
27, 0, 0, 0
28, 0, 0, 0
29, 0, 0, 0
30, 0, 0, 0
31, 0, 0, 0
32, 0, 0, 0
33, 0, 0, 0
34, 0, 0, 0
35, 0, 0, 0
36, 0, 0, 0
37, 0, 0, 0
38, 0, 0, 0
39, 0, 0, 0
40, 0, 0, 0.001957633532583714
41, 0, 0, 0.002830071374773979
42, 0, 0, 76.87496948242188
43, 0, 0, 214.3255767822266
44, 0, 0, 731.9114379882812
45, 0, 0, 1579.55126953125
46, 0, 0, 3093.6845703125
47, 0, 0, 4188.966796875
48, 0, 0, 5071.423828125
49, 0, 0, 4882.63916015625
50, 0, 0, 4345.9990234375
51, 0, 0, 3896.67529296875
52, 0, 0, 3504.099853515625
53, 0, 0, 3174.439453125
54, 0, 0, 2924.649658203125
55, 0, 0, 2728.93408203125
56, 0, 0, 2578.61376953125
57, 0, 0, 2452.43994140625
58, 0, 0, 2352.7080078125
59, 0, 0, 2259.765869140625
60, 0, 0, 2182.267333984375
61, 0, 0, 2102.586669921875
62, 0, 0, 2046.792724609375
63, 0, 0, 1985.439819335938
64, 0, 0, 1930.724731445312
65, 0, 0, 1889.189453125
66, 0, 0, 1838.368530273438
67, 0, 0, 1796.447387695312
68, 0, 0, 1759.30126953125
69, 0, 0, 1725.76416015625
70, 0, 0, 1696.643310546875
71, 0, 0, 1669.309204101562
72, 0, 0, 1630.398681640625
73, 0, 0, 1606.64501953125
74, 0, 0, 1576.523315429688
75, 0, 0, 1560.228393554688
76, 0, 0, 1527.838500976562
77, 0, 0, 1510.577880859375
78, 0, 0, 1487.80078125
79, 0, 0, 1472.852905273438
80, 0, 0, 1442.756958007812
81, 0, 0, 1426.666870117188
82, 0, 0, 1412.769775390625
83, 0, 0, 1395.516235351562
84, 0, 0, 1385.495727539062
85, 0, 0, 1369.51708984375
86, 0, 0, 1352.069091796875
87, 0, 0, 1328.647583007812
88, 0, 0, 1326.237060546875
89, 0, 0, 1308.771118164062
90, 0, 0, 1301.215942382812
91, 0, 0, 1289.258178710938
92, 0, 0, 1271.580688476562
93, 0, 0, 1259.450073242188
94, 0, 0, 1249.197875976562
95, 0, 0, 1239.1513671875
96, 0, 0, 1229.968872070312
97, 0, 0, 1219.729370117188
98, 0, 0, 1204.788818359375
99, 0, 0, 1195.968383789062
100, 0, 0, 1184.909423828125
101, 0, 0, 1173.833740234375
102, 0, 0, 1168.592041015625
103, 0, 0, 1158.989624023438
104, 0, 0, 1150.799194335938
105, 0, 0, 1140.798828125
106, 0, 0, 1146.092529296875
107, 0, 0, 1118.247802734375
108, 0, 0, 1117.630493164062
109, 0, 0, 1115.014404296875
110, 0, 0, 1103.230224609375
111, 0, 0, 1099.982177734375
112, 0, 0, 1091.7041015625
113, 0, 0, 1079.114501953125
114, 0, 0, 1084.94287109375
115, 0, 0, 1075.089111328125
116, 0, 0, 1066.286499023438
117, 0, 0, 1059.555053710938
118, 0, 0, 1059.746459960938
119, 0, 0, 1048.139526367188
120, 0, 0, 1036.581665039062
121, 0, 0, 1034.841552734375
122, 0, 0, 1037.23779296875
123, 0, 0, 1015.66064453125
124, 0, 0, 1014.627380371094
125, 0, 0, 1009.357666015625
126, 0, 0, 1005.591857910156
127, 0, 0, 1001.545654296875
128, 0, 0, 1000.220947265625
129, 0, 0, 993.03857421875
130, 0, 0, 990.459716796875
131, 0, 0, 985.8593139648438
132, 0, 0, 981.9061889648438
133, 0, 0, 978.7373657226562
134, 0, 0, 976.8289794921875
135, 0, 0, 968.2193603515625
136, 0, 0, 968.9241333007812
137, 0, 0, 966.792236328125
138, 0, 0, 962.5455322265625
139, 0, 0, 950.7977294921875
140, 0, 0, 946.4547119140625
141, 0, 0, 949.2349853515625
142, 0, 0, 942.956787109375
143, 0, 0, 933.6470947265625
144, 0, 0, 925.0093383789062
145, 0, 0, 932.0538330078125
146, 0, 0, 931.5619506835938
147, 0, 0, 924.1783447265625
148, 0, 0, 916.1013793945312
149, 0, 0, 913.5979614257812
150, 0, 0, 903.1122436523438
151, 0, 0, 906.923828125
152, 0, 0, 897.0452880859375
153, 0, 0, 901.925537109375
154, 0, 0, 892.6929321289062
155, 0, 0, 893.2067260742188
156, 0, 0, 896.5875244140625
157, 0, 0, 880.2745361328125
158, 0, 0, 876.7789916992188
159, 0, 0, 876.3159790039062
160, 0, 0, 880.0363159179688
161, 0, 0, 873.1249389648438
162, 0, 0, 871.3191528320312
163, 0, 0, 871.4063110351562
164, 0, 0, 859.7112426757812
165, 0, 0, 858.1258544921875
166, 0, 0, 858.1997680664062
167, 0, 0, 863.3736572265625
168, 0, 0, 862.697509765625
169, 0, 0, 852.0771484375
170, 0, 0, 849.5379638671875
171, 0, 0, 848.6458129882812
172, 0, 0, 850.193603515625
173, 0, 0, 841.4232177734375
174, 0, 0, 831.0811157226562
175, 0, 0, 843.4799194335938
176, 0, 0, 831.9361572265625
177, 0, 0, 833.5739135742188
178, 0, 0, 829.5038452148438
179, 0, 0, 825.59423828125
