# TOPAS Version: 3.3.p1
# Parameter File: Test.txt
# Results for scorer MLIC_Scorer
# Scored in component: MLIC
# X in 165 bins of 0.2 cm
# Y in 1 bin  of 10 cm
# Z in 1 bin  of 10 cm
# EnergyDeposit ( MeV ) : Sum   
0, 0, 0, 0
1, 0, 0, 0
2, 0, 0, 0
3, 0, 0, 0
4, 0, 0, 0
5, 0, 0, 0
6, 0, 0, 0
7, 0, 0, 0
8, 0, 0, 0
9, 0, 0, 0
10, 0, 0, 0
11, 0, 0, 0
12, 0, 0, 0
13, 0, 0, 0
14, 0, 0, 0
15, 0, 0, 0
16, 0, 0, 0
17, 0, 0, 0
18, 0, 0, 0
19, 0, 0, 0
20, 0, 0, 0
21, 0, 0, 0
22, 0, 0, 0
23, 0, 0, 0
24, 0, 0, 0.04132271558046341
25, 0, 0, 0
26, 0, 0, 0.0044938032515347
27, 0, 0, 12.91391468048096
28, 0, 0, 21.0629768371582
29, 0, 0, 155.1603240966797
30, 0, 0, 571.2880859375
31, 0, 0, 1506.559814453125
32, 0, 0, 3014.600341796875
33, 0, 0, 4411.6796875
34, 0, 0, 5477.84716796875
35, 0, 0, 5367.078125
36, 0, 0, 4883.67236328125
37, 0, 0, 4211.53564453125
38, 0, 0, 3770.033935546875
39, 0, 0, 3387.54345703125
40, 0, 0, 3120.615234375
41, 0, 0, 2931.151611328125
42, 0, 0, 2762.07177734375
43, 0, 0, 2628.24365234375
44, 0, 0, 2518.65478515625
45, 0, 0, 2419.716552734375
46, 0, 0, 2332.4775390625
47, 0, 0, 2255.083984375
48, 0, 0, 2179.18798828125
49, 0, 0, 2128.449462890625
50, 0, 0, 2074.4521484375
51, 0, 0, 2029.735107421875
52, 0, 0, 1969.348266601562
53, 0, 0, 1933.012451171875
54, 0, 0, 1884.503173828125
55, 0, 0, 1851.312866210938
56, 0, 0, 1819.759765625
57, 0, 0, 1786.593872070312
58, 0, 0, 1744.739624023438
59, 0, 0, 1719.175659179688
60, 0, 0, 1698.853393554688
61, 0, 0, 1666.863891601562
62, 0, 0, 1642.283813476562
63, 0, 0, 1622.127197265625
64, 0, 0, 1600.814086914062
65, 0, 0, 1577.82861328125
66, 0, 0, 1554.322998046875
67, 0, 0, 1539.485595703125
68, 0, 0, 1517.337036132812
69, 0, 0, 1497.150512695312
70, 0, 0, 1487.3896484375
71, 0, 0, 1466.899658203125
72, 0, 0, 1440.257690429688
73, 0, 0, 1424.661376953125
74, 0, 0, 1413.2802734375
75, 0, 0, 1397.461181640625
76, 0, 0, 1384.89892578125
77, 0, 0, 1377.345947265625
78, 0, 0, 1369.863525390625
79, 0, 0, 1343.678466796875
80, 0, 0, 1337.90966796875
81, 0, 0, 1335.411254882812
82, 0, 0, 1312.943359375
83, 0, 0, 1303.914794921875
84, 0, 0, 1296.890014648438
85, 0, 0, 1286.688232421875
86, 0, 0, 1270.942138671875
87, 0, 0, 1266.646362304688
88, 0, 0, 1250.0693359375
89, 0, 0, 1235.750854492188
90, 0, 0, 1244.922973632812
91, 0, 0, 1223.744140625
92, 0, 0, 1218.021606445312
93, 0, 0, 1212.2001953125
94, 0, 0, 1212.682861328125
95, 0, 0, 1193.069702148438
96, 0, 0, 1192.563354492188
97, 0, 0, 1176.126586914062
98, 0, 0, 1163.515014648438
99, 0, 0, 1163.407592773438
100, 0, 0, 1156.279907226562
101, 0, 0, 1148.06005859375
102, 0, 0, 1145.566528320312
103, 0, 0, 1134.192260742188
104, 0, 0, 1131.1240234375
105, 0, 0, 1129.982788085938
106, 0, 0, 1115.016967773438
107, 0, 0, 1119.27587890625
108, 0, 0, 1106.701049804688
109, 0, 0, 1102.716430664062
110, 0, 0, 1091.949829101562
111, 0, 0, 1095.006225585938
112, 0, 0, 1085.13671875
113, 0, 0, 1073.017578125
114, 0, 0, 1074.866821289062
115, 0, 0, 1071.493041992188
116, 0, 0, 1065.131103515625
117, 0, 0, 1060.234130859375
118, 0, 0, 1054.94384765625
119, 0, 0, 1046.36474609375
120, 0, 0, 1044.735229492188
121, 0, 0, 1037.48291015625
122, 0, 0, 1033.976684570312
123, 0, 0, 1020.755249023438
124, 0, 0, 1027.953979492188
125, 0, 0, 1016.758666992188
126, 0, 0, 1020.78466796875
127, 0, 0, 1017.788452148438
128, 0, 0, 1007.374816894531
129, 0, 0, 999.3290405273438
130, 0, 0, 998.9584350585938
131, 0, 0, 1006.53125
132, 0, 0, 994.9476928710938
133, 0, 0, 991.8494262695312
134, 0, 0, 985.5140380859375
135, 0, 0, 980.3128051757812
136, 0, 0, 976.4810791015625
137, 0, 0, 974.70361328125
138, 0, 0, 973.2047729492188
139, 0, 0, 966.5612182617188
140, 0, 0, 957.6395263671875
141, 0, 0, 954.3101196289062
142, 0, 0, 959.6517944335938
143, 0, 0, 959.6359252929688
144, 0, 0, 953.4486694335938
145, 0, 0, 945.3298950195312
146, 0, 0, 940.608642578125
147, 0, 0, 936.9098510742188
148, 0, 0, 935.3491821289062
149, 0, 0, 941.2503051757812
150, 0, 0, 930.3865966796875
151, 0, 0, 926.5719604492188
152, 0, 0, 923.0201416015625
153, 0, 0, 914.4481811523438
154, 0, 0, 926.8099365234375
155, 0, 0, 922.3472290039062
156, 0, 0, 905.681396484375
157, 0, 0, 918.2821044921875
158, 0, 0, 909.3181762695312
159, 0, 0, 909.9976806640625
160, 0, 0, 894.4622802734375
161, 0, 0, 880.392578125
162, 0, 0, 897.4755859375
163, 0, 0, 882.5374755859375
164, 0, 0, 896.58935546875
