# TOPAS Version: 3.3.p1
# Parameter File: Test.txt
# Results for scorer MLIC_Scorer
# Scored in component: MLIC
# X in 180 bins of 0.183333 cm
# Y in 1 bin  of 10 cm
# Z in 1 bin  of 10 cm
# EnergyDeposit ( MeV ) : Sum   
0, 0, 0, 0
1, 0, 0, 0
2, 0, 0, 0
3, 0, 0, 0
4, 0, 0, 0
5, 0, 0, 0
6, 0, 0, 0
7, 0, 0, 0
8, 0, 0, 0
9, 0, 0, 0
10, 0, 0, 0
11, 0, 0, 0
12, 0, 0, 0
13, 0, 0, 0
14, 0, 0, 0
15, 0, 0, 0
16, 0, 0, 0
17, 0, 0, 0
18, 0, 0, 0
19, 0, 0, 0
20, 0, 0, 0
21, 0, 0, 0
22, 0, 0, 0
23, 0, 0, 0
24, 0, 0, 0
25, 0, 0, 0
26, 0, 0, 0
27, 0, 0, 0
28, 0, 0, 0
29, 0, 0, 0
30, 0, 0, 0
31, 0, 0, 0
32, 0, 0, 0
33, 0, 0, 0
34, 0, 0, 0
35, 0, 0, 0
36, 0, 0, 0
37, 0, 0, 0
38, 0, 0, 0
39, 0, 0, 0
40, 0, 0, 0.00105742271989584
41, 0, 0, 0
42, 0, 0, 0
43, 0, 0, 0
44, 0, 0, 0
45, 0, 0, 0
46, 0, 0, 0
47, 0, 0, 0.01515363994985819
48, 0, 0, 0
49, 0, 0, 0
50, 0, 0, 0
51, 0, 0, 0
52, 0, 0, 0
53, 0, 0, 0
54, 0, 0, 0
55, 0, 0, 0
56, 0, 0, 0
57, 0, 0, 0
58, 0, 0, 21.3267650604248
59, 0, 0, 84.78315734863281
60, 0, 0, 402.0430297851562
61, 0, 0, 1005.252197265625
62, 0, 0, 2316.361083984375
63, 0, 0, 3721.30078125
64, 0, 0, 4788.38916015625
65, 0, 0, 5140.705078125
66, 0, 0, 4846.646484375
67, 0, 0, 4335.50634765625
68, 0, 0, 3767.816162109375
69, 0, 0, 3364.725830078125
70, 0, 0, 3063.25634765625
71, 0, 0, 2860.028564453125
72, 0, 0, 2693.30615234375
73, 0, 0, 2562.21826171875
74, 0, 0, 2444.045654296875
75, 0, 0, 2337.443603515625
76, 0, 0, 2257.83447265625
77, 0, 0, 2172.304443359375
78, 0, 0, 2115.68310546875
79, 0, 0, 2051.11865234375
80, 0, 0, 1997.4560546875
81, 0, 0, 1940.78466796875
82, 0, 0, 1893.57568359375
83, 0, 0, 1852.357177734375
84, 0, 0, 1814.192504882812
85, 0, 0, 1780.153686523438
86, 0, 0, 1733.062255859375
87, 0, 0, 1705.161865234375
88, 0, 0, 1674.103271484375
89, 0, 0, 1651.639404296875
90, 0, 0, 1623.765869140625
91, 0, 0, 1592.636474609375
92, 0, 0, 1574.640747070312
93, 0, 0, 1551.70751953125
94, 0, 0, 1530.099975585938
95, 0, 0, 1505.762573242188
96, 0, 0, 1482.428833007812
97, 0, 0, 1466.398803710938
98, 0, 0, 1449.9736328125
99, 0, 0, 1426.594970703125
100, 0, 0, 1406.276733398438
101, 0, 0, 1404.411499023438
102, 0, 0, 1386.855834960938
103, 0, 0, 1372.427001953125
104, 0, 0, 1346.183471679688
105, 0, 0, 1341.375122070312
106, 0, 0, 1340.427978515625
107, 0, 0, 1309.074462890625
108, 0, 0, 1311.57275390625
109, 0, 0, 1292.623046875
110, 0, 0, 1274.807983398438
111, 0, 0, 1264.421508789062
112, 0, 0, 1249.819213867188
113, 0, 0, 1243.811767578125
114, 0, 0, 1230.969482421875
115, 0, 0, 1215.494995117188
116, 0, 0, 1214.221313476562
117, 0, 0, 1200.556396484375
118, 0, 0, 1187.99658203125
119, 0, 0, 1190.626342773438
120, 0, 0, 1183.634033203125
121, 0, 0, 1177.918212890625
122, 0, 0, 1163.590698242188
123, 0, 0, 1152.68359375
124, 0, 0, 1137.040649414062
125, 0, 0, 1134.095825195312
126, 0, 0, 1125.528442382812
127, 0, 0, 1123.332641601562
128, 0, 0, 1114.9658203125
129, 0, 0, 1110.486450195312
130, 0, 0, 1100.60302734375
131, 0, 0, 1098.226928710938
132, 0, 0, 1094.748046875
133, 0, 0, 1080.8740234375
134, 0, 0, 1076.78955078125
135, 0, 0, 1072.48046875
136, 0, 0, 1067.4169921875
137, 0, 0, 1052.541870117188
138, 0, 0, 1047.702026367188
139, 0, 0, 1050.094482421875
140, 0, 0, 1040.66259765625
141, 0, 0, 1040.332641601562
142, 0, 0, 1030.822387695312
143, 0, 0, 1022.36083984375
144, 0, 0, 1032.257690429688
145, 0, 0, 1014.958251953125
146, 0, 0, 1009.962463378906
147, 0, 0, 1006.7001953125
148, 0, 0, 1004.502014160156
149, 0, 0, 1001.407592773438
150, 0, 0, 988.850830078125
151, 0, 0, 989.976318359375
152, 0, 0, 985.12646484375
153, 0, 0, 976.0896606445312
154, 0, 0, 976.8101196289062
155, 0, 0, 964.778564453125
156, 0, 0, 969.3319091796875
157, 0, 0, 958.4799194335938
158, 0, 0, 954.91357421875
159, 0, 0, 953.3248291015625
160, 0, 0, 954.7843627929688
161, 0, 0, 943.8837890625
162, 0, 0, 941.8422241210938
163, 0, 0, 940.4552612304688
164, 0, 0, 932.040283203125
165, 0, 0, 928.891845703125
166, 0, 0, 926.6365356445312
167, 0, 0, 918.3142700195312
168, 0, 0, 929.458251953125
169, 0, 0, 921.0048828125
170, 0, 0, 914.9349975585938
171, 0, 0, 910.17822265625
172, 0, 0, 904.01123046875
173, 0, 0, 903.3602905273438
174, 0, 0, 894.641357421875
175, 0, 0, 905.17578125
176, 0, 0, 894.6585693359375
177, 0, 0, 890.6345825195312
178, 0, 0, 892.1336669921875
179, 0, 0, 889.098388671875
