# TOPAS Version: 3.3.p1
# Parameter File: Test.txt
# Results for scorer MLIC_Scorer
# Scored in component: MLIC
# X in 180 bins of 0.177778 cm
# Y in 1 bin  of 10 cm
# Z in 1 bin  of 10 cm
# EnergyDeposit ( MeV ) : Sum   
0, 0, 0, 0
1, 0, 0, 0
2, 0, 0, 0
3, 0, 0, 0
4, 0, 0, 0
5, 0, 0, 0
6, 0, 0, 0
7, 0, 0, 0
8, 0, 0, 0
9, 0, 0, 0
10, 0, 0, 0
11, 0, 0, 0
12, 0, 0, 0
13, 0, 0, 0
14, 0, 0, 0
15, 0, 0, 0
16, 0, 0, 0
17, 0, 0, 0
18, 0, 0, 0
19, 0, 0, 0
20, 0, 0, 0
21, 0, 0, 0
22, 0, 0, 0
23, 0, 0, 0
24, 0, 0, 0
25, 0, 0, 0
26, 0, 0, 0
27, 0, 0, 0
28, 0, 0, 0
29, 0, 0, 0
30, 0, 0, 0
31, 0, 0, 0
32, 0, 0, 0
33, 0, 0, 0
34, 0, 0, 0
35, 0, 0, 0
36, 0, 0, 0
37, 0, 0, 0
38, 0, 0, 0
39, 0, 0, 0
40, 0, 0, 0
41, 0, 0, 0
42, 0, 0, 0
43, 0, 0, 0
44, 0, 0, 0
45, 0, 0, 0
46, 0, 0, 0
47, 0, 0, 0
48, 0, 0, 0
49, 0, 0, 0
50, 0, 0, 0
51, 0, 0, 0
52, 0, 0, 0
53, 0, 0, 0
54, 0, 0, 0
55, 0, 0, 0
56, 0, 0, 0
57, 0, 0, 0
58, 0, 0, 0
59, 0, 0, 0
60, 0, 0, 0
61, 0, 0, 0
62, 0, 0, 0
63, 0, 0, 0
64, 0, 0, 0
65, 0, 0, 0
66, 0, 0, 0
67, 0, 0, 0
68, 0, 0, 0
69, 0, 0, 0
70, 0, 0, 0
71, 0, 0, 0
72, 0, 0, 0
73, 0, 0, 0
74, 0, 0, 0
75, 0, 0, 0
76, 0, 0, 0
77, 0, 0, 0
78, 0, 0, 0
79, 0, 0, 0
80, 0, 0, 0
81, 0, 0, 0
82, 0, 0, 0
83, 0, 0, 0
84, 0, 0, 0
85, 0, 0, 0
86, 0, 0, 0
87, 0, 0, 0
88, 0, 0, 0
89, 0, 0, 0
90, 0, 0, 0.003586941864341497
91, 0, 0, 0
92, 0, 0, 0
93, 0, 0, 0
94, 0, 0, 0
95, 0, 0, 0
96, 0, 0, 0
97, 0, 0, 0
98, 0, 0, 0
99, 0, 0, 0
100, 0, 0, 0
101, 0, 0, 8.069394111633301
102, 0, 0, 12.31270408630371
103, 0, 0, 21.9324951171875
104, 0, 0, 157.1688232421875
105, 0, 0, 499.3501281738281
106, 0, 0, 1180.772583007812
107, 0, 0, 2460.221923828125
108, 0, 0, 3975.021240234375
109, 0, 0, 4777.72412109375
110, 0, 0, 5100.7548828125
111, 0, 0, 4692.69970703125
112, 0, 0, 4166.7333984375
113, 0, 0, 3577.569580078125
114, 0, 0, 3237.559814453125
115, 0, 0, 2974.31005859375
116, 0, 0, 2775.638916015625
117, 0, 0, 2624.017822265625
118, 0, 0, 2489.681640625
119, 0, 0, 2384.505126953125
120, 0, 0, 2279.19677734375
121, 0, 0, 2199.419189453125
122, 0, 0, 2129.252685546875
123, 0, 0, 2064.08349609375
124, 0, 0, 2002.578735351562
125, 0, 0, 1941.598999023438
126, 0, 0, 1895.3779296875
127, 0, 0, 1854.365844726562
128, 0, 0, 1807.46728515625
129, 0, 0, 1770.592407226562
130, 0, 0, 1732.842163085938
131, 0, 0, 1707.376586914062
132, 0, 0, 1671.365234375
133, 0, 0, 1643.221801757812
134, 0, 0, 1612.410888671875
135, 0, 0, 1594.0869140625
136, 0, 0, 1565.113403320312
137, 0, 0, 1538.18896484375
138, 0, 0, 1516.182250976562
139, 0, 0, 1490.693115234375
140, 0, 0, 1475.8818359375
141, 0, 0, 1458.229248046875
142, 0, 0, 1438.637573242188
143, 0, 0, 1421.61279296875
144, 0, 0, 1399.246459960938
145, 0, 0, 1385.179443359375
146, 0, 0, 1372.762451171875
147, 0, 0, 1358.401245117188
148, 0, 0, 1342.84130859375
149, 0, 0, 1325.161865234375
150, 0, 0, 1312.117309570312
151, 0, 0, 1296.538696289062
152, 0, 0, 1287.679809570312
153, 0, 0, 1270.06787109375
154, 0, 0, 1265.717407226562
155, 0, 0, 1253.24267578125
156, 0, 0, 1245.871215820312
157, 0, 0, 1232.20068359375
158, 0, 0, 1219.616577148438
159, 0, 0, 1210.700439453125
160, 0, 0, 1205.153930664062
161, 0, 0, 1183.144897460938
162, 0, 0, 1182.838989257812
163, 0, 0, 1164.615966796875
164, 0, 0, 1155.84423828125
165, 0, 0, 1153.729125976562
166, 0, 0, 1151.978759765625
167, 0, 0, 1135.660278320312
168, 0, 0, 1126.788940429688
169, 0, 0, 1118.48779296875
170, 0, 0, 1121.161254882812
171, 0, 0, 1106.798217773438
172, 0, 0, 1111.489135742188
173, 0, 0, 1102.747802734375
174, 0, 0, 1091.692993164062
175, 0, 0, 1081.551879882812
176, 0, 0, 1078.448608398438
177, 0, 0, 1071.678344726562
178, 0, 0, 1059.20068359375
179, 0, 0, 1048.40869140625
