# TOPAS Version: 3.3.p1
# Parameter File: Test.txt
# Results for scorer MLIC_Scorer
# Scored in component: MLIC
# X in 180 bins of 0.183333 cm
# Y in 1 bin  of 10 cm
# Z in 1 bin  of 10 cm
# EnergyDeposit ( MeV ) : Sum   
0, 0, 0, 0
1, 0, 0, 0
2, 0, 0, 0
3, 0, 0, 0
4, 0, 0, 0
5, 0, 0, 0
6, 0, 0, 0
7, 0, 0, 0
8, 0, 0, 0
9, 0, 0, 0
10, 0, 0, 0
11, 0, 0, 0
12, 0, 0, 0
13, 0, 0, 0
14, 0, 0, 0
15, 0, 0, 0
16, 0, 0, 0.0009140217443928123
17, 0, 0, 0.00543777272105217
18, 0, 0, 0
19, 0, 0, 0
20, 0, 0, 0
21, 0, 0, 6.088517189025879
22, 0, 0, 91.81067657470703
23, 0, 0, 399.5348510742188
24, 0, 0, 1054.504272460938
25, 0, 0, 2207.6044921875
26, 0, 0, 3954.134521484375
27, 0, 0, 5110.94873046875
28, 0, 0, 5223.33056640625
29, 0, 0, 4814.46826171875
30, 0, 0, 4247.3427734375
31, 0, 0, 3700.154541015625
32, 0, 0, 3310.135986328125
33, 0, 0, 3041.009033203125
34, 0, 0, 2849.106201171875
35, 0, 0, 2674.330322265625
36, 0, 0, 2539.255126953125
37, 0, 0, 2427.996337890625
38, 0, 0, 2335.0595703125
39, 0, 0, 2247.63427734375
40, 0, 0, 2171.1875
41, 0, 0, 2112.179931640625
42, 0, 0, 2037.978637695312
43, 0, 0, 1987.303588867188
44, 0, 0, 1936.031494140625
45, 0, 0, 1892.213256835938
46, 0, 0, 1849.774780273438
47, 0, 0, 1806.4228515625
48, 0, 0, 1764.681396484375
49, 0, 0, 1739.003051757812
50, 0, 0, 1708.790649414062
51, 0, 0, 1667.830200195312
52, 0, 0, 1645.886352539062
53, 0, 0, 1611.105224609375
54, 0, 0, 1591.911499023438
55, 0, 0, 1566.115112304688
56, 0, 0, 1549.820678710938
57, 0, 0, 1518.938720703125
58, 0, 0, 1503.6494140625
59, 0, 0, 1479.3671875
60, 0, 0, 1463.020629882812
61, 0, 0, 1445.116088867188
62, 0, 0, 1428.073120117188
63, 0, 0, 1416.39697265625
64, 0, 0, 1399.417724609375
65, 0, 0, 1379.155395507812
66, 0, 0, 1360.626586914062
67, 0, 0, 1353.912841796875
68, 0, 0, 1330.5009765625
69, 0, 0, 1322.67724609375
70, 0, 0, 1314.740478515625
71, 0, 0, 1303.908081054688
72, 0, 0, 1290.475463867188
73, 0, 0, 1274.562622070312
74, 0, 0, 1264.472290039062
75, 0, 0, 1253.54052734375
76, 0, 0, 1248.43408203125
77, 0, 0, 1229.200073242188
78, 0, 0, 1217.036743164062
79, 0, 0, 1216.0087890625
80, 0, 0, 1201.218383789062
81, 0, 0, 1197.357055664062
82, 0, 0, 1186.267822265625
83, 0, 0, 1179.063720703125
84, 0, 0, 1160.524047851562
85, 0, 0, 1162.87109375
86, 0, 0, 1144.54638671875
87, 0, 0, 1149.802734375
88, 0, 0, 1141.168701171875
89, 0, 0, 1134.707641601562
90, 0, 0, 1122.420654296875
91, 0, 0, 1114.7646484375
92, 0, 0, 1105.6572265625
93, 0, 0, 1100.343505859375
94, 0, 0, 1094.23681640625
95, 0, 0, 1090.818481445312
96, 0, 0, 1082.421508789062
97, 0, 0, 1074.517578125
98, 0, 0, 1071.4716796875
99, 0, 0, 1065.675903320312
100, 0, 0, 1054.844116210938
101, 0, 0, 1056.494750976562
102, 0, 0, 1056.510375976562
103, 0, 0, 1040.2373046875
104, 0, 0, 1033.913940429688
105, 0, 0, 1029.66748046875
106, 0, 0, 1027.285278320312
107, 0, 0, 1023.858032226562
108, 0, 0, 1020.857238769531
109, 0, 0, 1015.470153808594
110, 0, 0, 1008.997741699219
111, 0, 0, 998.4904174804688
112, 0, 0, 993.2784423828125
113, 0, 0, 987.3802490234375
114, 0, 0, 987.5905151367188
115, 0, 0, 984.6004028320312
116, 0, 0, 974.4649658203125
117, 0, 0, 976.6199340820312
118, 0, 0, 968.6529541015625
119, 0, 0, 967.01904296875
120, 0, 0, 963.916259765625
121, 0, 0, 971.0868530273438
122, 0, 0, 953.7862548828125
123, 0, 0, 942.4329223632812
124, 0, 0, 943.9448852539062
125, 0, 0, 945.0966186523438
126, 0, 0, 938.0648193359375
127, 0, 0, 935.8211669921875
128, 0, 0, 934.8660888671875
129, 0, 0, 926.85986328125
130, 0, 0, 915.5474243164062
131, 0, 0, 924.7822265625
132, 0, 0, 916.9963989257812
133, 0, 0, 915.2626953125
134, 0, 0, 911.715576171875
135, 0, 0, 910.2586059570312
136, 0, 0, 903.7529296875
137, 0, 0, 904.825439453125
138, 0, 0, 895.9194946289062
139, 0, 0, 893.8477783203125
140, 0, 0, 889.3539428710938
141, 0, 0, 885.453857421875
142, 0, 0, 881.0779418945312
143, 0, 0, 884.5286254882812
144, 0, 0, 877.9811401367188
145, 0, 0, 878.2802124023438
146, 0, 0, 878.1864624023438
147, 0, 0, 865.543701171875
148, 0, 0, 868.3907470703125
149, 0, 0, 864.8909912109375
150, 0, 0, 871.34033203125
151, 0, 0, 866.3213500976562
152, 0, 0, 860.2257080078125
153, 0, 0, 859.3982543945312
154, 0, 0, 852.7479248046875
155, 0, 0, 846.6945190429688
156, 0, 0, 843.2236938476562
157, 0, 0, 838.7833251953125
158, 0, 0, 847.9869995117188
159, 0, 0, 833.5562744140625
160, 0, 0, 845.82373046875
161, 0, 0, 834.131591796875
162, 0, 0, 830.7964477539062
163, 0, 0, 831.6557006835938
164, 0, 0, 832.6912841796875
165, 0, 0, 825.4744873046875
166, 0, 0, 827.0108032226562
167, 0, 0, 826.6669311523438
168, 0, 0, 817.6923828125
169, 0, 0, 823.404296875
170, 0, 0, 821.5250244140625
171, 0, 0, 805.8726196289062
172, 0, 0, 811.2970581054688
173, 0, 0, 812.5444946289062
174, 0, 0, 807.0294799804688
175, 0, 0, 807.9976806640625
176, 0, 0, 803.4484252929688
177, 0, 0, 803.8033447265625
178, 0, 0, 796.6337890625
179, 0, 0, 793.7959594726562
