# TOPAS Version: 3.3.p1
# Parameter File: Test.txt
# Results for scorer MLIC_Scorer
# Scored in component: MLIC
# X in 165 bins of 0.2 cm
# Y in 1 bin  of 10 cm
# Z in 1 bin  of 10 cm
# EnergyDeposit ( MeV ) : Sum   
0, 0, 0, 0
1, 0, 0, 0
2, 0, 0, 0
3, 0, 0, 0
4, 0, 0, 0
5, 0, 0, 0
6, 0, 0, 0
7, 0, 0, 0
8, 0, 0, 0
9, 0, 0, 0
10, 0, 0, 0
11, 0, 0, 0
12, 0, 0, 0
13, 0, 0, 0
14, 0, 0, 0
15, 0, 0, 0
16, 0, 0, 0
17, 0, 0, 0
18, 0, 0, 0
19, 0, 0, 0
20, 0, 0, 0
21, 0, 0, 0
22, 0, 0, 0
23, 0, 0, 0
24, 0, 0, 0
25, 0, 0, 0
26, 0, 0, 0
27, 0, 0, 0.001848974847234786
28, 0, 0, 0.0005005626589991152
29, 0, 0, 0
30, 0, 0, 7.306650161743164
31, 0, 0, 25.05705451965332
32, 0, 0, 110.4771270751953
33, 0, 0, 476.4881286621094
34, 0, 0, 1327.9111328125
35, 0, 0, 2747.5302734375
36, 0, 0, 4357.60791015625
37, 0, 0, 5503.765625
38, 0, 0, 5483.76416015625
39, 0, 0, 4989.587890625
40, 0, 0, 4297.93603515625
41, 0, 0, 3781.534423828125
42, 0, 0, 3405.621337890625
43, 0, 0, 3135.0634765625
44, 0, 0, 2941.7041015625
45, 0, 0, 2770.350830078125
46, 0, 0, 2642.291015625
47, 0, 0, 2519.867919921875
48, 0, 0, 2431.6162109375
49, 0, 0, 2346.200927734375
50, 0, 0, 2262.96142578125
51, 0, 0, 2192.889404296875
52, 0, 0, 2134.938232421875
53, 0, 0, 2076.30810546875
54, 0, 0, 2021.925903320312
55, 0, 0, 1971.908813476562
56, 0, 0, 1934.233154296875
57, 0, 0, 1887.646728515625
58, 0, 0, 1853.498413085938
59, 0, 0, 1819.013427734375
60, 0, 0, 1787.375854492188
61, 0, 0, 1750.789428710938
62, 0, 0, 1725.224975585938
63, 0, 0, 1686.630615234375
64, 0, 0, 1672.231689453125
65, 0, 0, 1636.61474609375
66, 0, 0, 1621.0986328125
67, 0, 0, 1592.395751953125
68, 0, 0, 1575.446533203125
69, 0, 0, 1545.863159179688
70, 0, 0, 1533.510009765625
71, 0, 0, 1520.023803710938
72, 0, 0, 1507.475708007812
73, 0, 0, 1476.783447265625
74, 0, 0, 1459.70947265625
75, 0, 0, 1445.825561523438
76, 0, 0, 1435.938354492188
77, 0, 0, 1408.40478515625
78, 0, 0, 1399.98046875
79, 0, 0, 1392.021484375
80, 0, 0, 1379.375732421875
81, 0, 0, 1355.636352539062
82, 0, 0, 1351.155639648438
83, 0, 0, 1335.775390625
84, 0, 0, 1325.461181640625
85, 0, 0, 1322.482543945312
86, 0, 0, 1303.442749023438
87, 0, 0, 1297.933715820312
88, 0, 0, 1291.433837890625
89, 0, 0, 1271.162353515625
90, 0, 0, 1260.287353515625
91, 0, 0, 1260.731079101562
92, 0, 0, 1239.49951171875
93, 0, 0, 1239.239135742188
94, 0, 0, 1223.897827148438
95, 0, 0, 1220.69482421875
96, 0, 0, 1214.346557617188
97, 0, 0, 1200.056884765625
98, 0, 0, 1194.7216796875
99, 0, 0, 1189.684326171875
100, 0, 0, 1185.506591796875
101, 0, 0, 1168.709350585938
102, 0, 0, 1167.900512695312
103, 0, 0, 1163.816162109375
104, 0, 0, 1151.072631835938
105, 0, 0, 1143.497924804688
106, 0, 0, 1133.046020507812
107, 0, 0, 1134.22119140625
108, 0, 0, 1120.257690429688
109, 0, 0, 1127.846313476562
110, 0, 0, 1120.630249023438
111, 0, 0, 1105.8037109375
112, 0, 0, 1100.363403320312
113, 0, 0, 1093.236572265625
114, 0, 0, 1084.42236328125
115, 0, 0, 1089.757568359375
116, 0, 0, 1084.1572265625
117, 0, 0, 1072.974609375
118, 0, 0, 1062.229858398438
119, 0, 0, 1068.309814453125
120, 0, 0, 1064.30517578125
121, 0, 0, 1057.928588867188
122, 0, 0, 1054.329223632812
123, 0, 0, 1046.114501953125
124, 0, 0, 1043.628540039062
125, 0, 0, 1033.675659179688
126, 0, 0, 1034.8359375
127, 0, 0, 1028.14990234375
128, 0, 0, 1023.216430664062
129, 0, 0, 1016.244567871094
130, 0, 0, 1007.43017578125
131, 0, 0, 1013.289001464844
132, 0, 0, 997.121826171875
133, 0, 0, 1007.779907226562
134, 0, 0, 1004.591125488281
135, 0, 0, 987.2494506835938
136, 0, 0, 991.5700073242188
137, 0, 0, 989.1961059570312
138, 0, 0, 982.2579345703125
139, 0, 0, 972.7159423828125
140, 0, 0, 970.49560546875
141, 0, 0, 978.765625
142, 0, 0, 966.8456420898438
143, 0, 0, 957.6568603515625
144, 0, 0, 962.2196655273438
145, 0, 0, 971.7979125976562
146, 0, 0, 954.0474853515625
147, 0, 0, 947.4132080078125
148, 0, 0, 946.6475830078125
149, 0, 0, 946.3960571289062
150, 0, 0, 941.2863159179688
151, 0, 0, 939.015380859375
152, 0, 0, 932.2900390625
153, 0, 0, 928.78076171875
154, 0, 0, 924.6133422851562
155, 0, 0, 927.3441162109375
156, 0, 0, 924.8172607421875
157, 0, 0, 921.93212890625
158, 0, 0, 929.9190063476562
159, 0, 0, 913.3756713867188
160, 0, 0, 911.842041015625
161, 0, 0, 916.2371826171875
162, 0, 0, 907.2440795898438
163, 0, 0, 904.4107666015625
164, 0, 0, 907.6178588867188
