# TOPAS Version: 3.3.p1
# Parameter File: Test.txt
# Results for scorer MLIC_Scorer
# Scored in component: MLIC
# X in 180 bins of 0.177778 cm
# Y in 1 bin  of 10 cm
# Z in 1 bin  of 10 cm
# EnergyDeposit ( MeV ) : Sum   
0, 0, 0, 0
1, 0, 0, 0
2, 0, 0, 0
3, 0, 0, 0
4, 0, 0, 0
5, 0, 0, 0
6, 0, 0, 0
7, 0, 0, 0
8, 0, 0, 33.14762496948242
9, 0, 0, 144.6511077880859
10, 0, 0, 486.4543151855469
11, 0, 0, 1363.37890625
12, 0, 0, 2596.449951171875
13, 0, 0, 3796.63818359375
14, 0, 0, 4641.77294921875
15, 0, 0, 5114.79541015625
16, 0, 0, 4627.43408203125
17, 0, 0, 4105.78271484375
18, 0, 0, 3609.72607421875
19, 0, 0, 3253.43212890625
20, 0, 0, 2983.2392578125
21, 0, 0, 2773.04931640625
22, 0, 0, 2619.8291015625
23, 0, 0, 2488.12646484375
24, 0, 0, 2380.64794921875
25, 0, 0, 2287.088623046875
26, 0, 0, 2196.8388671875
27, 0, 0, 2130.755615234375
28, 0, 0, 2055.358642578125
29, 0, 0, 2004.226928710938
30, 0, 0, 1945.6875
31, 0, 0, 1898.586303710938
32, 0, 0, 1849.461547851562
33, 0, 0, 1815.844970703125
34, 0, 0, 1774.146118164062
35, 0, 0, 1735.794677734375
36, 0, 0, 1702.020874023438
37, 0, 0, 1678.9794921875
38, 0, 0, 1639.46630859375
39, 0, 0, 1619.598999023438
40, 0, 0, 1586.677612304688
41, 0, 0, 1560.230590820312
42, 0, 0, 1542.084838867188
43, 0, 0, 1520.580322265625
44, 0, 0, 1496.76611328125
45, 0, 0, 1464.34228515625
46, 0, 0, 1457.689697265625
47, 0, 0, 1440.3857421875
48, 0, 0, 1416.72607421875
49, 0, 0, 1406.233642578125
50, 0, 0, 1390.960205078125
51, 0, 0, 1373.167358398438
52, 0, 0, 1353.016723632812
53, 0, 0, 1337.440795898438
54, 0, 0, 1331.548706054688
55, 0, 0, 1314.613037109375
56, 0, 0, 1295.766723632812
57, 0, 0, 1290.6337890625
58, 0, 0, 1274.022338867188
59, 0, 0, 1264.562377929688
60, 0, 0, 1255.095825195312
61, 0, 0, 1241.034545898438
62, 0, 0, 1232.080444335938
63, 0, 0, 1212.396606445312
64, 0, 0, 1210.305786132812
65, 0, 0, 1204.327514648438
66, 0, 0, 1195.762329101562
67, 0, 0, 1184.95703125
68, 0, 0, 1173.18310546875
69, 0, 0, 1167.797729492188
70, 0, 0, 1155.526733398438
71, 0, 0, 1142.35205078125
72, 0, 0, 1138.036254882812
73, 0, 0, 1123.253051757812
74, 0, 0, 1124.145629882812
75, 0, 0, 1111.658935546875
76, 0, 0, 1110.763549804688
77, 0, 0, 1104.273315429688
78, 0, 0, 1097.789428710938
79, 0, 0, 1086.732421875
80, 0, 0, 1080.09765625
81, 0, 0, 1069.842041015625
82, 0, 0, 1066.256225585938
83, 0, 0, 1056.312255859375
84, 0, 0, 1057.977905273438
85, 0, 0, 1057.942504882812
86, 0, 0, 1045.488403320312
87, 0, 0, 1039.868896484375
88, 0, 0, 1032.713256835938
89, 0, 0, 1023.025817871094
90, 0, 0, 1026.587280273438
91, 0, 0, 1016.910278320312
92, 0, 0, 1010.684509277344
93, 0, 0, 1008.129943847656
94, 0, 0, 1001.467163085938
95, 0, 0, 992.1939697265625
96, 0, 0, 992.8870239257812
97, 0, 0, 992.475341796875
98, 0, 0, 989.5018920898438
99, 0, 0, 971.3595581054688
100, 0, 0, 968.8485717773438
101, 0, 0, 963.8713989257812
102, 0, 0, 967.6914672851562
103, 0, 0, 962.8331909179688
104, 0, 0, 949.9149780273438
105, 0, 0, 953.634521484375
106, 0, 0, 949.7036743164062
107, 0, 0, 944.3431396484375
108, 0, 0, 938.8057250976562
109, 0, 0, 939.9656372070312
110, 0, 0, 935.1424560546875
111, 0, 0, 927.4954833984375
112, 0, 0, 931.783935546875
113, 0, 0, 918.2955932617188
114, 0, 0, 916.5099487304688
115, 0, 0, 915.9666748046875
116, 0, 0, 906.3575439453125
117, 0, 0, 909.4517822265625
118, 0, 0, 901.3731079101562
119, 0, 0, 901.19140625
120, 0, 0, 894.1951904296875
121, 0, 0, 899.1307983398438
122, 0, 0, 887.5081176757812
123, 0, 0, 888.9031372070312
124, 0, 0, 877.9363403320312
125, 0, 0, 882.6355590820312
126, 0, 0, 876.1062622070312
127, 0, 0, 875.7911987304688
128, 0, 0, 872.1442260742188
129, 0, 0, 868.2025146484375
130, 0, 0, 861.99951171875
131, 0, 0, 865.1970825195312
132, 0, 0, 863.2129516601562
133, 0, 0, 857.016845703125
134, 0, 0, 857.6212768554688
135, 0, 0, 852.9180297851562
136, 0, 0, 847.9850463867188
137, 0, 0, 849.0599365234375
138, 0, 0, 838.856689453125
139, 0, 0, 841.4904174804688
140, 0, 0, 840.62890625
141, 0, 0, 846.2256469726562
142, 0, 0, 837.6851196289062
143, 0, 0, 834.4846801757812
144, 0, 0, 833.9024658203125
145, 0, 0, 833.0858154296875
146, 0, 0, 821.1989135742188
147, 0, 0, 824.6793212890625
148, 0, 0, 817.9746704101562
149, 0, 0, 814.7376708984375
150, 0, 0, 816.310791015625
151, 0, 0, 811.8048706054688
152, 0, 0, 816.5713500976562
153, 0, 0, 808.0394897460938
154, 0, 0, 809.5777587890625
155, 0, 0, 799.8540649414062
156, 0, 0, 800.8773193359375
157, 0, 0, 801.7166137695312
158, 0, 0, 801.403076171875
159, 0, 0, 802.5657958984375
160, 0, 0, 792.5740356445312
161, 0, 0, 791.8955688476562
162, 0, 0, 789.0214233398438
163, 0, 0, 787.4528198242188
164, 0, 0, 787.6241455078125
165, 0, 0, 781.895751953125
166, 0, 0, 778.6463012695312
167, 0, 0, 773.7072143554688
168, 0, 0, 779.1145629882812
169, 0, 0, 783.33837890625
170, 0, 0, 775.0964965820312
171, 0, 0, 778.9346923828125
172, 0, 0, 771.9828491210938
173, 0, 0, 774.181640625
174, 0, 0, 768.6041870117188
175, 0, 0, 757.9243774414062
176, 0, 0, 762.4168701171875
177, 0, 0, 764.8312377929688
178, 0, 0, 764.4872436523438
179, 0, 0, 756.5110473632812
