# TOPAS Version: 3.3.p1
# Parameter File: Test.txt
# Results for scorer MLIC_Scorer
# Scored in component: MLIC
# X in 165 bins of 0.2 cm
# Y in 1 bin  of 10 cm
# Z in 1 bin  of 10 cm
# EnergyDeposit ( MeV ) : Sum   
0, 0, 0, 0
1, 0, 0, 0
2, 0, 0, 0
3, 0, 0, 0
4, 0, 0, 0
5, 0, 0, 0
6, 0, 0, 0
7, 0, 0, 0
8, 0, 0, 0
9, 0, 0, 0
10, 0, 0, 0
11, 0, 0, 0
12, 0, 0, 0
13, 0, 0, 0
14, 0, 0, 0
15, 0, 0, 0
16, 0, 0, 0
17, 0, 0, 0
18, 0, 0, 0
19, 0, 0, 0
20, 0, 0, 0
21, 0, 0, 0
22, 0, 0, 0
23, 0, 0, 0
24, 0, 0, 0
25, 0, 0, 0
26, 0, 0, 0
27, 0, 0, 0
28, 0, 0, 0
29, 0, 0, 0
30, 0, 0, 0
31, 0, 0, 0
32, 0, 0, 0
33, 0, 0, 0
34, 0, 0, 0
35, 0, 0, 0
36, 0, 0, 0
37, 0, 0, 0.01122637651860714
38, 0, 0, 0.01814493909478188
39, 0, 0, 0
40, 0, 0, 0
41, 0, 0, 0
42, 0, 0, 0
43, 0, 0, 0
44, 0, 0, 0
45, 0, 0, 0
46, 0, 0, 0
47, 0, 0, 0
48, 0, 0, 0
49, 0, 0, 0.006087569519877434
50, 0, 0, 0
51, 0, 0, 0
52, 0, 0, 0
53, 0, 0, 0
54, 0, 0, 156.6865539550781
55, 0, 0, 473.8735656738281
56, 0, 0, 1345.707641601562
57, 0, 0, 2864.789306640625
58, 0, 0, 4606.609375
59, 0, 0, 5236.15966796875
60, 0, 0, 5414.98828125
61, 0, 0, 4958.61962890625
62, 0, 0, 4294.9453125
63, 0, 0, 3767.55615234375
64, 0, 0, 3404.8564453125
65, 0, 0, 3139.587646484375
66, 0, 0, 2931.821533203125
67, 0, 0, 2772.9990234375
68, 0, 0, 2644.4423828125
69, 0, 0, 2519.3916015625
70, 0, 0, 2421.5419921875
71, 0, 0, 2338.238525390625
72, 0, 0, 2261.67236328125
73, 0, 0, 2192.0107421875
74, 0, 0, 2130.098388671875
75, 0, 0, 2070.62451171875
76, 0, 0, 2028.792602539062
77, 0, 0, 1969.10302734375
78, 0, 0, 1931.392211914062
79, 0, 0, 1895.1630859375
80, 0, 0, 1849.45947265625
81, 0, 0, 1816.626831054688
82, 0, 0, 1780.265258789062
83, 0, 0, 1746.373168945312
84, 0, 0, 1724.815673828125
85, 0, 0, 1685.686157226562
86, 0, 0, 1674.121704101562
87, 0, 0, 1637.156494140625
88, 0, 0, 1614.54931640625
89, 0, 0, 1591.506469726562
90, 0, 0, 1574.829345703125
91, 0, 0, 1546.551635742188
92, 0, 0, 1527.32958984375
93, 0, 0, 1517.84814453125
94, 0, 0, 1500.715087890625
95, 0, 0, 1478.668701171875
96, 0, 0, 1462.360717773438
97, 0, 0, 1452.269897460938
98, 0, 0, 1438.41455078125
99, 0, 0, 1422.471557617188
100, 0, 0, 1409.427124023438
101, 0, 0, 1394.346923828125
102, 0, 0, 1368.222412109375
103, 0, 0, 1366.397094726562
104, 0, 0, 1346.045166015625
105, 0, 0, 1335.904907226562
106, 0, 0, 1328.771728515625
107, 0, 0, 1317.757568359375
108, 0, 0, 1304.229370117188
109, 0, 0, 1298.19189453125
110, 0, 0, 1287.912109375
111, 0, 0, 1278.026245117188
112, 0, 0, 1261.89990234375
113, 0, 0, 1258.374389648438
114, 0, 0, 1241.389282226562
115, 0, 0, 1247.36083984375
116, 0, 0, 1234.7109375
117, 0, 0, 1220.00634765625
118, 0, 0, 1209.614624023438
119, 0, 0, 1201.004516601562
120, 0, 0, 1203.364990234375
121, 0, 0, 1190.37451171875
122, 0, 0, 1192.69873046875
123, 0, 0, 1173.5498046875
124, 0, 0, 1158.613891601562
125, 0, 0, 1156.22314453125
126, 0, 0, 1152.477172851562
127, 0, 0, 1139.769287109375
128, 0, 0, 1131.114990234375
129, 0, 0, 1137.675537109375
130, 0, 0, 1127.830688476562
131, 0, 0, 1128.496215820312
132, 0, 0, 1118.74755859375
133, 0, 0, 1105.54443359375
134, 0, 0, 1098.14013671875
135, 0, 0, 1095.706420898438
136, 0, 0, 1090.147827148438
137, 0, 0, 1089.4638671875
138, 0, 0, 1076.005859375
139, 0, 0, 1071.843994140625
140, 0, 0, 1070.144897460938
141, 0, 0, 1061.76416015625
142, 0, 0, 1052.011840820312
143, 0, 0, 1058.493286132812
144, 0, 0, 1042.120849609375
145, 0, 0, 1042.30615234375
146, 0, 0, 1041.211669921875
147, 0, 0, 1033.310546875
148, 0, 0, 1028.454467773438
149, 0, 0, 1022.261108398438
150, 0, 0, 1016.030700683594
151, 0, 0, 1023.024230957031
152, 0, 0, 1021.143432617188
153, 0, 0, 1008.143371582031
154, 0, 0, 1011.124755859375
155, 0, 0, 998.697021484375
156, 0, 0, 998.61865234375
157, 0, 0, 995.6138916015625
158, 0, 0, 991.9832763671875
159, 0, 0, 988.03564453125
160, 0, 0, 976.6002807617188
161, 0, 0, 985.7802734375
162, 0, 0, 978.3543090820312
163, 0, 0, 978.3856811523438
164, 0, 0, 970.0614624023438
