# TOPAS Version: 3.3.p1
# Parameter File: Test.txt
# Results for scorer MLIC_Scorer
# Scored in component: MLIC
# X in 180 bins of 0.177778 cm
# Y in 1 bin  of 10 cm
# Z in 1 bin  of 10 cm
# EnergyDeposit ( MeV ) : Sum   
0, 0, 0, 0
1, 0, 0, 0
2, 0, 0, 0
3, 0, 0, 0
4, 0, 0, 0
5, 0, 0, 0
6, 0, 0, 0
7, 0, 0, 0
8, 0, 0, 0
9, 0, 0, 0
10, 0, 0, 0
11, 0, 0, 0
12, 0, 0, 0
13, 0, 0, 0
14, 0, 0, 0
15, 0, 0, 0
16, 0, 0, 0
17, 0, 0, 0
18, 0, 0, 0
19, 0, 0, 0
20, 0, 0, 0.007560915313661098
21, 0, 0, 0
22, 0, 0, 0.005757461301982403
23, 0, 0, 0
24, 0, 0, 0.004105290398001671
25, 0, 0, 0
26, 0, 0, 0
27, 0, 0, 0
28, 0, 0, 0
29, 0, 0, 7.77103853225708
30, 0, 0, 77.01761627197266
31, 0, 0, 338.0670776367188
32, 0, 0, 951.2013549804688
33, 0, 0, 2053.96142578125
34, 0, 0, 3382.6494140625
35, 0, 0, 4710.78515625
36, 0, 0, 5154.7255859375
37, 0, 0, 4864.1328125
38, 0, 0, 4319.54736328125
39, 0, 0, 3713.0263671875
40, 0, 0, 3332.935302734375
41, 0, 0, 3047.737060546875
42, 0, 0, 2830.412353515625
43, 0, 0, 2663.138427734375
44, 0, 0, 2521.699951171875
45, 0, 0, 2410.34033203125
46, 0, 0, 2316.483154296875
47, 0, 0, 2221.275390625
48, 0, 0, 2143.435546875
49, 0, 0, 2081.847412109375
50, 0, 0, 2017.247924804688
51, 0, 0, 1957.70361328125
52, 0, 0, 1914.538940429688
53, 0, 0, 1864.413940429688
54, 0, 0, 1822.125122070312
55, 0, 0, 1787.611938476562
56, 0, 0, 1751.346557617188
57, 0, 0, 1712.13720703125
58, 0, 0, 1677.083251953125
59, 0, 0, 1650.962768554688
60, 0, 0, 1613.552978515625
61, 0, 0, 1598.310180664062
62, 0, 0, 1571.488647460938
63, 0, 0, 1542.028076171875
64, 0, 0, 1525.369750976562
65, 0, 0, 1501.745849609375
66, 0, 0, 1482.978637695312
67, 0, 0, 1457.387939453125
68, 0, 0, 1440.232543945312
69, 0, 0, 1426.5068359375
70, 0, 0, 1413.051391601562
71, 0, 0, 1390.460571289062
72, 0, 0, 1369.013916015625
73, 0, 0, 1358.945434570312
74, 0, 0, 1346.297241210938
75, 0, 0, 1326.101196289062
76, 0, 0, 1321.992797851562
77, 0, 0, 1302.302612304688
78, 0, 0, 1291.665405273438
79, 0, 0, 1281.740234375
80, 0, 0, 1265.735595703125
81, 0, 0, 1252.140869140625
82, 0, 0, 1249.8896484375
83, 0, 0, 1228.191040039062
84, 0, 0, 1226.16259765625
85, 0, 0, 1212.434814453125
86, 0, 0, 1195.796997070312
87, 0, 0, 1190.333740234375
88, 0, 0, 1182.970703125
89, 0, 0, 1177.16015625
90, 0, 0, 1165.403930664062
91, 0, 0, 1153.365356445312
92, 0, 0, 1152.853881835938
93, 0, 0, 1142.796142578125
94, 0, 0, 1142.172119140625
95, 0, 0, 1125.064453125
96, 0, 0, 1127.1689453125
97, 0, 0, 1114.198120117188
98, 0, 0, 1100.5751953125
99, 0, 0, 1098.817260742188
100, 0, 0, 1086.001342773438
101, 0, 0, 1076.70654296875
102, 0, 0, 1073.142578125
103, 0, 0, 1067.304931640625
104, 0, 0, 1071.198608398438
105, 0, 0, 1060.389282226562
106, 0, 0, 1047.137573242188
107, 0, 0, 1045.790649414062
108, 0, 0, 1036.356811523438
109, 0, 0, 1040.8515625
110, 0, 0, 1027.904296875
111, 0, 0, 1021.61181640625
112, 0, 0, 1020.558776855469
113, 0, 0, 1014.927673339844
114, 0, 0, 1015.97705078125
115, 0, 0, 1001.587463378906
116, 0, 0, 995.2461547851562
117, 0, 0, 991.5530395507812
118, 0, 0, 985.1385498046875
119, 0, 0, 981.0740966796875
120, 0, 0, 981.6171875
121, 0, 0, 982.3124389648438
122, 0, 0, 971.8805541992188
123, 0, 0, 963.929931640625
124, 0, 0, 955.9119873046875
125, 0, 0, 954.1929321289062
126, 0, 0, 956.3156127929688
127, 0, 0, 945.4246215820312
128, 0, 0, 951.5204467773438
129, 0, 0, 939.8087158203125
130, 0, 0, 941.2798461914062
131, 0, 0, 931.3680419921875
132, 0, 0, 929.4155883789062
133, 0, 0, 927.7822265625
134, 0, 0, 916.5276489257812
135, 0, 0, 917.9441528320312
136, 0, 0, 910.8213500976562
137, 0, 0, 913.8897094726562
138, 0, 0, 909.3388671875
139, 0, 0, 903.6751098632812
140, 0, 0, 901.7373657226562
141, 0, 0, 905.284423828125
142, 0, 0, 899.3837890625
143, 0, 0, 886.1412353515625
144, 0, 0, 890.8814086914062
145, 0, 0, 886.5962524414062
146, 0, 0, 884.100341796875
147, 0, 0, 880.3446655273438
148, 0, 0, 877.9883422851562
149, 0, 0, 883.4608764648438
150, 0, 0, 874.2642211914062
151, 0, 0, 867.7210693359375
152, 0, 0, 865.751708984375
153, 0, 0, 859.712890625
154, 0, 0, 856.1453247070312
155, 0, 0, 855.67626953125
156, 0, 0, 847.3333129882812
157, 0, 0, 846.8274536132812
158, 0, 0, 843.7926635742188
159, 0, 0, 852.2383422851562
160, 0, 0, 832.8663940429688
161, 0, 0, 836.2545776367188
162, 0, 0, 831.5950927734375
163, 0, 0, 836.1720581054688
164, 0, 0, 831.1292724609375
165, 0, 0, 825.8121948242188
166, 0, 0, 828.3515625
167, 0, 0, 830.2749633789062
168, 0, 0, 821.1630249023438
169, 0, 0, 823.6090698242188
170, 0, 0, 825.7564086914062
171, 0, 0, 825.6200561523438
172, 0, 0, 821.602783203125
173, 0, 0, 827.9617309570312
174, 0, 0, 817.0048828125
175, 0, 0, 806.7894897460938
176, 0, 0, 807.5921630859375
177, 0, 0, 809.576416015625
178, 0, 0, 806.1614990234375
179, 0, 0, 800.3695068359375
