# TOPAS Version: 3.3.p1
# Parameter File: Test.txt
# Results for scorer MLIC_Scorer
# Scored in component: MLIC
# X in 180 bins of 0.177778 cm
# Y in 1 bin  of 10 cm
# Z in 1 bin  of 10 cm
# EnergyDeposit ( MeV ) : Sum   
0, 0, 0, 0
1, 0, 0, 0
2, 0, 0, 0
3, 0, 0, 0
4, 0, 0, 0
5, 0, 0, 0
6, 0, 0, 0
7, 0, 0, 0
8, 0, 0, 0
9, 0, 0, 0
10, 0, 0, 0
11, 0, 0, 0
12, 0, 0, 0
13, 0, 0, 0
14, 0, 0, 0
15, 0, 0, 0
16, 0, 0, 0
17, 0, 0, 0
18, 0, 0, 0
19, 0, 0, 0
20, 0, 0, 0
21, 0, 0, 0
22, 0, 0, 0
23, 0, 0, 0
24, 0, 0, 0
25, 0, 0, 0.0007377926958724856
26, 0, 0, 0
27, 0, 0, 0
28, 0, 0, 0
29, 0, 0, 0
30, 0, 0, 0
31, 0, 0, 0
32, 0, 0, 0
33, 0, 0, 0
34, 0, 0, 0
35, 0, 0, 0
36, 0, 0, 0
37, 0, 0, 0
38, 0, 0, 0
39, 0, 0, 8.202570915222168
40, 0, 0, 20.33436584472656
41, 0, 0, 92.92760467529297
42, 0, 0, 230.6904449462891
43, 0, 0, 774.0262451171875
44, 0, 0, 1965.558837890625
45, 0, 0, 3276.47314453125
46, 0, 0, 4600.271484375
47, 0, 0, 5055.14697265625
48, 0, 0, 4773.11767578125
49, 0, 0, 4276.0771484375
50, 0, 0, 3840.76025390625
51, 0, 0, 3404.843017578125
52, 0, 0, 3104.09521484375
53, 0, 0, 2876.296142578125
54, 0, 0, 2697.26318359375
55, 0, 0, 2553.588623046875
56, 0, 0, 2427.801025390625
57, 0, 0, 2328.921875
58, 0, 0, 2242.802978515625
59, 0, 0, 2158.20361328125
60, 0, 0, 2097.126953125
61, 0, 0, 2033.79638671875
62, 0, 0, 1974.877807617188
63, 0, 0, 1922.173828125
64, 0, 0, 1865.910522460938
65, 0, 0, 1833.118896484375
66, 0, 0, 1793.776000976562
67, 0, 0, 1754.100830078125
68, 0, 0, 1710.43896484375
69, 0, 0, 1679.122680664062
70, 0, 0, 1657.042358398438
71, 0, 0, 1627.168212890625
72, 0, 0, 1605.091552734375
73, 0, 0, 1572.721313476562
74, 0, 0, 1549.107299804688
75, 0, 0, 1528.062866210938
76, 0, 0, 1500.65234375
77, 0, 0, 1481.429565429688
78, 0, 0, 1459.837280273438
79, 0, 0, 1449.682006835938
80, 0, 0, 1424.663818359375
81, 0, 0, 1411.311157226562
82, 0, 0, 1390.788696289062
83, 0, 0, 1372.92236328125
84, 0, 0, 1360.282348632812
85, 0, 0, 1349.672119140625
86, 0, 0, 1329.907104492188
87, 0, 0, 1314.57958984375
88, 0, 0, 1306.683715820312
89, 0, 0, 1298.8017578125
90, 0, 0, 1276.816650390625
91, 0, 0, 1271.3525390625
92, 0, 0, 1256.973999023438
93, 0, 0, 1245.745849609375
94, 0, 0, 1240.036254882812
95, 0, 0, 1220.063232421875
96, 0, 0, 1212.343139648438
97, 0, 0, 1202.643188476562
98, 0, 0, 1194.60205078125
99, 0, 0, 1184.865600585938
100, 0, 0, 1164.89794921875
101, 0, 0, 1164.617553710938
102, 0, 0, 1156.2861328125
103, 0, 0, 1151.577880859375
104, 0, 0, 1145.059936523438
105, 0, 0, 1131.355224609375
106, 0, 0, 1123.932373046875
107, 0, 0, 1113.240112304688
108, 0, 0, 1109.364013671875
109, 0, 0, 1099.1572265625
110, 0, 0, 1099.407470703125
111, 0, 0, 1095.821655273438
112, 0, 0, 1082.310302734375
113, 0, 0, 1082.034545898438
114, 0, 0, 1073.0712890625
115, 0, 0, 1070.158081054688
116, 0, 0, 1062.301879882812
117, 0, 0, 1046.393798828125
118, 0, 0, 1047.0302734375
119, 0, 0, 1043.864868164062
120, 0, 0, 1038.801025390625
121, 0, 0, 1032.027465820312
122, 0, 0, 1024.872680664062
123, 0, 0, 1020.436157226562
124, 0, 0, 1012.459899902344
125, 0, 0, 1011.217224121094
126, 0, 0, 1006.052368164062
127, 0, 0, 997.4675903320312
128, 0, 0, 990.6603393554688
129, 0, 0, 1004.225952148438
130, 0, 0, 987.8089599609375
131, 0, 0, 977.803466796875
132, 0, 0, 978.2290649414062
133, 0, 0, 971.8472900390625
134, 0, 0, 974.6403198242188
135, 0, 0, 961.78369140625
136, 0, 0, 961.781982421875
137, 0, 0, 947.8422241210938
138, 0, 0, 953.0194702148438
139, 0, 0, 947.16748046875
140, 0, 0, 940.9373168945312
141, 0, 0, 942.3082885742188
142, 0, 0, 930.7339477539062
143, 0, 0, 931.2692260742188
144, 0, 0, 924.0994873046875
145, 0, 0, 924.59423828125
146, 0, 0, 917.4049072265625
147, 0, 0, 917.7575073242188
148, 0, 0, 911.0385131835938
149, 0, 0, 903.1091918945312
150, 0, 0, 899.120361328125
151, 0, 0, 901.6006469726562
152, 0, 0, 897.283203125
153, 0, 0, 893.7783203125
154, 0, 0, 892.3473510742188
155, 0, 0, 888.6558837890625
156, 0, 0, 888.9515991210938
157, 0, 0, 889.1527099609375
158, 0, 0, 883.9798583984375
159, 0, 0, 880.9126586914062
160, 0, 0, 879.7554321289062
161, 0, 0, 867.2210083007812
162, 0, 0, 873.41650390625
163, 0, 0, 866.9364624023438
164, 0, 0, 864.2594604492188
165, 0, 0, 853.4232788085938
166, 0, 0, 854.7711181640625
167, 0, 0, 854.2816772460938
168, 0, 0, 852.1498413085938
169, 0, 0, 846.421630859375
170, 0, 0, 851.6221923828125
171, 0, 0, 842.333251953125
172, 0, 0, 841.1276245117188
173, 0, 0, 837.8842163085938
174, 0, 0, 826.51318359375
175, 0, 0, 836.8563232421875
176, 0, 0, 829.6409912109375
177, 0, 0, 829.963623046875
178, 0, 0, 831.151123046875
179, 0, 0, 814.0444946289062
