# TOPAS Version: 3.3.p1
# Parameter File: Test.txt
# Results for scorer MLIC_Scorer
# Scored in component: MLIC
# X in 180 bins of 0.183333 cm
# Y in 1 bin  of 10 cm
# Z in 1 bin  of 10 cm
# EnergyDeposit ( MeV ) : Sum   
0, 0, 0, 0
1, 0, 0, 0
2, 0, 0, 0
3, 0, 0, 0
4, 0, 0, 0
5, 0, 0, 0
6, 0, 0, 0
7, 0, 0, 0
8, 0, 0, 0
9, 0, 0, 0
10, 0, 0, 0
11, 0, 0, 0
12, 0, 0, 0
13, 0, 0, 0
14, 0, 0, 0
15, 0, 0, 0
16, 0, 0, 0
17, 0, 0, 0
18, 0, 0, 0
19, 0, 0, 0
20, 0, 0, 0
21, 0, 0, 0
22, 0, 0, 0
23, 0, 0, 0
24, 0, 0, 0
25, 0, 0, 0
26, 0, 0, 0
27, 0, 0, 0
28, 0, 0, 0
29, 0, 0, 0
30, 0, 0, 0
31, 0, 0, 0
32, 0, 0, 0
33, 0, 0, 0
34, 0, 0, 0
35, 0, 0, 0
36, 0, 0, 0
37, 0, 0, 0
38, 0, 0, 0
39, 0, 0, 0
40, 0, 0, 0
41, 0, 0, 0
42, 0, 0, 0
43, 0, 0, 0
44, 0, 0, 0
45, 0, 0, 0
46, 0, 0, 0
47, 0, 0, 0
48, 0, 0, 0
49, 0, 0, 0
50, 0, 0, 0
51, 0, 0, 0
52, 0, 0, 0
53, 0, 0, 0
54, 0, 0, 0
55, 0, 0, 0
56, 0, 0, 0
57, 0, 0, 0
58, 0, 0, 0
59, 0, 0, 0
60, 0, 0, 0
61, 0, 0, 0
62, 0, 0, 0
63, 0, 0, 0
64, 0, 0, 0
65, 0, 0, 0
66, 0, 0, 0
67, 0, 0, 0
68, 0, 0, 0
69, 0, 0, 0
70, 0, 0, 0
71, 0, 0, 0
72, 0, 0, 0
73, 0, 0, 0
74, 0, 0, 0
75, 0, 0, 0
76, 0, 0, 0.03307618200778961
77, 0, 0, 0
78, 0, 0, 0
79, 0, 0, 0
80, 0, 0, 0
81, 0, 0, 0
82, 0, 0, 0
83, 0, 0, 0
84, 0, 0, 0
85, 0, 0, 0
86, 0, 0, 0
87, 0, 0, 0
88, 0, 0, 0
89, 0, 0, 0
90, 0, 0, 0
91, 0, 0, 0
92, 0, 0, 0
93, 0, 0, 0
94, 0, 0, 0.03623143956065178
95, 0, 0, 0
96, 0, 0, 0
97, 0, 0, 0
98, 0, 0, 0
99, 0, 0, 0
100, 0, 0, 0
101, 0, 0, 0
102, 0, 0, 0.02208014763891697
103, 0, 0, 11.67046451568604
104, 0, 0, 93.056396484375
105, 0, 0, 508.7554016113281
106, 0, 0, 1310.657348632812
107, 0, 0, 2517.526123046875
108, 0, 0, 4069.3525390625
109, 0, 0, 5073.95166015625
110, 0, 0, 5188.0859375
111, 0, 0, 4789.416015625
112, 0, 0, 4126.078125
113, 0, 0, 3620.65283203125
114, 0, 0, 3269.806640625
115, 0, 0, 3007.81689453125
116, 0, 0, 2813.14501953125
117, 0, 0, 2657.246337890625
118, 0, 0, 2528.734130859375
119, 0, 0, 2411.53466796875
120, 0, 0, 2318.706298828125
121, 0, 0, 2239.892578125
122, 0, 0, 2156.943115234375
123, 0, 0, 2096.91748046875
124, 0, 0, 2038.906127929688
125, 0, 0, 1979.4619140625
126, 0, 0, 1927.338134765625
127, 0, 0, 1882.266479492188
128, 0, 0, 1836.900390625
129, 0, 0, 1803.339111328125
130, 0, 0, 1768.2158203125
131, 0, 0, 1734.865356445312
132, 0, 0, 1701.3671875
133, 0, 0, 1664.411499023438
134, 0, 0, 1641.626953125
135, 0, 0, 1614.62646484375
136, 0, 0, 1590.71044921875
137, 0, 0, 1559.769897460938
138, 0, 0, 1548.87939453125
139, 0, 0, 1525.936157226562
140, 0, 0, 1508.849487304688
141, 0, 0, 1477.400390625
142, 0, 0, 1464.954956054688
143, 0, 0, 1442.89208984375
144, 0, 0, 1415.01513671875
145, 0, 0, 1411.172241210938
146, 0, 0, 1396.350952148438
147, 0, 0, 1378.133666992188
148, 0, 0, 1361.970458984375
149, 0, 0, 1351.979736328125
150, 0, 0, 1328.999267578125
151, 0, 0, 1314.295166015625
152, 0, 0, 1299.51904296875
153, 0, 0, 1291.884155273438
154, 0, 0, 1287.453247070312
155, 0, 0, 1277.010986328125
156, 0, 0, 1262.248779296875
157, 0, 0, 1244.53173828125
158, 0, 0, 1238.84375
159, 0, 0, 1227.597534179688
160, 0, 0, 1214.713623046875
161, 0, 0, 1212.000610351562
162, 0, 0, 1204.471435546875
163, 0, 0, 1199.795288085938
164, 0, 0, 1183.502319335938
165, 0, 0, 1172.00830078125
166, 0, 0, 1174.45849609375
167, 0, 0, 1155.54736328125
168, 0, 0, 1157.059204101562
169, 0, 0, 1144.093994140625
170, 0, 0, 1142.075927734375
171, 0, 0, 1133.747314453125
172, 0, 0, 1123.068725585938
173, 0, 0, 1116.93115234375
174, 0, 0, 1105.610473632812
175, 0, 0, 1105.90576171875
176, 0, 0, 1096.945434570312
177, 0, 0, 1090.1728515625
178, 0, 0, 1076.965698242188
179, 0, 0, 1079.916381835938
