# TOPAS Version: 3.3.p1
# Parameter File: Test.txt
# Results for scorer MLIC_Scorer
# Scored in component: MLIC
# X in 180 bins of 0.183333 cm
# Y in 1 bin  of 10 cm
# Z in 1 bin  of 10 cm
# EnergyDeposit ( MeV ) : Sum   
0, 0, 0, 0
1, 0, 0, 0
2, 0, 0, 0
3, 0, 0, 0
4, 0, 0, 0
5, 0, 0, 0
6, 0, 0, 0
7, 0, 0, 0
8, 0, 0, 0
9, 0, 0, 0
10, 0, 0, 0
11, 0, 0, 0
12, 0, 0, 0
13, 0, 0, 0
14, 0, 0, 0
15, 0, 0, 0
16, 0, 0, 0
17, 0, 0, 0
18, 0, 0, 0
19, 0, 0, 0
20, 0, 0, 0
21, 0, 0, 0
22, 0, 0, 0
23, 0, 0, 0
24, 0, 0, 0
25, 0, 0, 0
26, 0, 0, 0
27, 0, 0, 0
28, 0, 0, 0
29, 0, 0, 0
30, 0, 0, 0
31, 0, 0, 0
32, 0, 0, 0
33, 0, 0, 0
34, 0, 0, 0
35, 0, 0, 0
36, 0, 0, 0
37, 0, 0, 0
38, 0, 0, 0
39, 0, 0, 0
40, 0, 0, 0
41, 0, 0, 0
42, 0, 0, 0
43, 0, 0, 0
44, 0, 0, 0
45, 0, 0, 0
46, 0, 0, 0
47, 0, 0, 0
48, 0, 0, 0
49, 0, 0, 0
50, 0, 0, 0
51, 0, 0, 0
52, 0, 0, 0
53, 0, 0, 0
54, 0, 0, 0
55, 0, 0, 0
56, 0, 0, 0
57, 0, 0, 0
58, 0, 0, 0
59, 0, 0, 0
60, 0, 0, 0
61, 0, 0, 0
62, 0, 0, 0
63, 0, 0, 0
64, 0, 0, 0
65, 0, 0, 0
66, 0, 0, 0
67, 0, 0, 0
68, 0, 0, 0
69, 0, 0, 0
70, 0, 0, 0
71, 0, 0, 0
72, 0, 0, 0
73, 0, 0, 0
74, 0, 0, 0
75, 0, 0, 0
76, 0, 0, 0
77, 0, 0, 0
78, 0, 0, 0
79, 0, 0, 0
80, 0, 0, 0
81, 0, 0, 0
82, 0, 0, 0
83, 0, 0, 0
84, 0, 0, 0
85, 0, 0, 0
86, 0, 0, 0
87, 0, 0, 0
88, 0, 0, 0
89, 0, 0, 0
90, 0, 0, 0
91, 0, 0, 0
92, 0, 0, 0
93, 0, 0, 0
94, 0, 0, 0
95, 0, 0, 0
96, 0, 0, 0
97, 0, 0, 0
98, 0, 0, 0
99, 0, 0, 0
100, 0, 0, 0
101, 0, 0, 0
102, 0, 0, 0
103, 0, 0, 0
104, 0, 0, 0
105, 0, 0, 0
106, 0, 0, 0
107, 0, 0, 0
108, 0, 0, 0
109, 0, 0, 0
110, 0, 0, 0
111, 0, 0, 0
112, 0, 0, 0
113, 0, 0, 0
114, 0, 0, 0
115, 0, 0, 0
116, 0, 0, 0
117, 0, 0, 0
118, 0, 0, 0
119, 0, 0, 0.003040787065401673
120, 0, 0, 0
121, 0, 0, 0.004534174222499132
122, 0, 0, 0
123, 0, 0, 0
124, 0, 0, 0
125, 0, 0, 0
126, 0, 0, 0.03348496183753014
127, 0, 0, 0
128, 0, 0, 0
129, 0, 0, 0
130, 0, 0, 0
131, 0, 0, 0
132, 0, 0, 0
133, 0, 0, 0
134, 0, 0, 0
135, 0, 0, 0.003118092659860849
136, 0, 0, 0
137, 0, 0, 0
138, 0, 0, 18.99352264404297
139, 0, 0, 132.2906188964844
140, 0, 0, 441.0273742675781
141, 0, 0, 1320.718872070312
142, 0, 0, 2897.1044921875
143, 0, 0, 4346.11767578125
144, 0, 0, 4920.73583984375
145, 0, 0, 5174.79345703125
146, 0, 0, 4681.919921875
147, 0, 0, 4096.26904296875
148, 0, 0, 3606.658447265625
149, 0, 0, 3245.932373046875
150, 0, 0, 2993.268798828125
151, 0, 0, 2808.7041015625
152, 0, 0, 2646.79541015625
153, 0, 0, 2519.241455078125
154, 0, 0, 2404.856201171875
155, 0, 0, 2307.310302734375
156, 0, 0, 2222.314208984375
157, 0, 0, 2148.547607421875
158, 0, 0, 2089.919189453125
159, 0, 0, 2035.093872070312
160, 0, 0, 1971.868408203125
161, 0, 0, 1927.016723632812
162, 0, 0, 1883.447631835938
163, 0, 0, 1840.169799804688
164, 0, 0, 1801.311767578125
165, 0, 0, 1761.564697265625
166, 0, 0, 1731.719970703125
167, 0, 0, 1696.69580078125
168, 0, 0, 1665.210083007812
169, 0, 0, 1627.942260742188
170, 0, 0, 1613.719482421875
171, 0, 0, 1587.59423828125
172, 0, 0, 1563.158203125
173, 0, 0, 1540.002563476562
174, 0, 0, 1519.711181640625
175, 0, 0, 1488.025512695312
176, 0, 0, 1479.209350585938
177, 0, 0, 1455.837158203125
178, 0, 0, 1443.418334960938
179, 0, 0, 1429.51171875
