# TOPAS Version: 3.3.p1
# Parameter File: Test.txt
# Results for scorer MLIC_Scorer
# Scored in component: MLIC
# X in 180 bins of 0.177778 cm
# Y in 1 bin  of 10 cm
# Z in 1 bin  of 10 cm
# EnergyDeposit ( MeV ) : Sum   
0, 0, 0, 0
1, 0, 0, 0
2, 0, 0, 0
3, 0, 0, 0
4, 0, 0, 0
5, 0, 0, 0
6, 0, 0, 0
7, 0, 0, 0
8, 0, 0, 0
9, 0, 0, 0
10, 0, 0, 0
11, 0, 0, 0
12, 0, 0, 0
13, 0, 0, 0
14, 0, 0, 0
15, 0, 0, 0
16, 0, 0, 0
17, 0, 0, 0
18, 0, 0, 0
19, 0, 0, 0
20, 0, 0, 0
21, 0, 0, 0
22, 0, 0, 0
23, 0, 0, 0
24, 0, 0, 0.02712292224168777
25, 0, 0, 0.02474606037139893
26, 0, 0, 0
27, 0, 0, 0.0386759527027607
28, 0, 0, 26.99324798583984
29, 0, 0, 186.5082702636719
30, 0, 0, 483.3765563964844
31, 0, 0, 1373.984619140625
32, 0, 0, 2635.68994140625
33, 0, 0, 3931.47021484375
34, 0, 0, 4849.23974609375
35, 0, 0, 5008.916015625
36, 0, 0, 4541.8525390625
37, 0, 0, 4041.782470703125
38, 0, 0, 3589.069091796875
39, 0, 0, 3261.78564453125
40, 0, 0, 2990.20654296875
41, 0, 0, 2775.455078125
42, 0, 0, 2610.96533203125
43, 0, 0, 2496.76171875
44, 0, 0, 2378.917236328125
45, 0, 0, 2279.151611328125
46, 0, 0, 2194.14208984375
47, 0, 0, 2118.308837890625
48, 0, 0, 2058.62158203125
49, 0, 0, 1999.365844726562
50, 0, 0, 1945.7822265625
51, 0, 0, 1900.470825195312
52, 0, 0, 1853.472778320312
53, 0, 0, 1811.591796875
54, 0, 0, 1778.481567382812
55, 0, 0, 1729.126342773438
56, 0, 0, 1702.543823242188
57, 0, 0, 1671.395874023438
58, 0, 0, 1636.123046875
59, 0, 0, 1615.530029296875
60, 0, 0, 1582.178588867188
61, 0, 0, 1556.421142578125
62, 0, 0, 1541.980224609375
63, 0, 0, 1520.31201171875
64, 0, 0, 1490.621826171875
65, 0, 0, 1469.975830078125
66, 0, 0, 1457.261596679688
67, 0, 0, 1431.921630859375
68, 0, 0, 1419.372192382812
69, 0, 0, 1398.385986328125
70, 0, 0, 1388.162841796875
71, 0, 0, 1366.764892578125
72, 0, 0, 1353.788330078125
73, 0, 0, 1341.051635742188
74, 0, 0, 1331.420166015625
75, 0, 0, 1309.55859375
76, 0, 0, 1299.714233398438
77, 0, 0, 1284.449584960938
78, 0, 0, 1276.427001953125
79, 0, 0, 1262.953735351562
80, 0, 0, 1244.7158203125
81, 0, 0, 1243.1181640625
82, 0, 0, 1225.965209960938
83, 0, 0, 1213.89599609375
84, 0, 0, 1209.708740234375
85, 0, 0, 1197.597412109375
86, 0, 0, 1181.395751953125
87, 0, 0, 1182.397827148438
88, 0, 0, 1167.92529296875
89, 0, 0, 1159.627685546875
90, 0, 0, 1158.520751953125
91, 0, 0, 1151.558349609375
92, 0, 0, 1128.727661132812
93, 0, 0, 1133.465087890625
94, 0, 0, 1119.145751953125
95, 0, 0, 1109.896606445312
96, 0, 0, 1106.588134765625
97, 0, 0, 1104.517822265625
98, 0, 0, 1098.224853515625
99, 0, 0, 1089.967895507812
100, 0, 0, 1075.651123046875
101, 0, 0, 1072.754760742188
102, 0, 0, 1064.924194335938
103, 0, 0, 1061.350708007812
104, 0, 0, 1057.041259765625
105, 0, 0, 1053.8583984375
106, 0, 0, 1046.498657226562
107, 0, 0, 1041.203857421875
108, 0, 0, 1042.707153320312
109, 0, 0, 1027.296264648438
110, 0, 0, 1022.908996582031
111, 0, 0, 1014.166259765625
112, 0, 0, 1012.957580566406
113, 0, 0, 1003.390686035156
114, 0, 0, 1002.892456054688
115, 0, 0, 997.703369140625
116, 0, 0, 989.6289672851562
117, 0, 0, 989.4734497070312
118, 0, 0, 984.0415649414062
119, 0, 0, 976.3449096679688
120, 0, 0, 970.9501342773438
121, 0, 0, 971.2017211914062
122, 0, 0, 965.0458374023438
123, 0, 0, 969.6683349609375
124, 0, 0, 953.89111328125
125, 0, 0, 954.1505737304688
126, 0, 0, 948.7384643554688
127, 0, 0, 946.1869506835938
128, 0, 0, 939.4120483398438
129, 0, 0, 941.26220703125
130, 0, 0, 932.7828369140625
131, 0, 0, 934.2099609375
132, 0, 0, 927.5803833007812
133, 0, 0, 923.5938110351562
134, 0, 0, 920.78955078125
135, 0, 0, 912.3864135742188
136, 0, 0, 905.221435546875
137, 0, 0, 901.6392211914062
138, 0, 0, 907.9002075195312
139, 0, 0, 901.3151245117188
140, 0, 0, 884.9481811523438
141, 0, 0, 883.6609497070312
142, 0, 0, 889.3865356445312
143, 0, 0, 886.0265502929688
144, 0, 0, 884.8699340820312
145, 0, 0, 881.4885864257812
146, 0, 0, 874.098388671875
147, 0, 0, 872.8812255859375
148, 0, 0, 877.7057495117188
149, 0, 0, 863.7392578125
150, 0, 0, 862.3662719726562
151, 0, 0, 864.4464111328125
152, 0, 0, 867.9749145507812
153, 0, 0, 869.6643676757812
154, 0, 0, 853.2377319335938
155, 0, 0, 852.0933227539062
156, 0, 0, 850.0505981445312
157, 0, 0, 846.769287109375
158, 0, 0, 846.3861083984375
159, 0, 0, 848.8444213867188
160, 0, 0, 843.2598876953125
161, 0, 0, 836.2594604492188
162, 0, 0, 831.9517211914062
163, 0, 0, 832.6708374023438
164, 0, 0, 831.8515625
165, 0, 0, 822.00634765625
166, 0, 0, 819.7447509765625
167, 0, 0, 820.2070922851562
168, 0, 0, 817.5130004882812
169, 0, 0, 816.6122436523438
170, 0, 0, 814.1897583007812
171, 0, 0, 823.0628051757812
172, 0, 0, 811.7532958984375
173, 0, 0, 819.3507080078125
174, 0, 0, 808.0906982421875
175, 0, 0, 804.1429443359375
176, 0, 0, 794.7394409179688
177, 0, 0, 797.1344604492188
178, 0, 0, 796.9221801757812
179, 0, 0, 804.0423583984375
