# TOPAS Version: 3.3.p1
# Parameter File: Test.txt
# Results for scorer MLIC_Scorer
# Scored in component: MLIC
# X in 180 bins of 0.177778 cm
# Y in 1 bin  of 10 cm
# Z in 1 bin  of 10 cm
# EnergyDeposit ( MeV ) : Sum   
0, 0, 0, 0
1, 0, 0, 0
2, 0, 0, 0
3, 0, 0, 0
4, 0, 0, 0
5, 0, 0, 0
6, 0, 0, 0
7, 0, 0, 0
8, 0, 0, 0
9, 0, 0, 0
10, 0, 0, 0
11, 0, 0, 0
12, 0, 0, 0
13, 0, 0, 0
14, 0, 0, 0
15, 0, 0, 0
16, 0, 0, 0
17, 0, 0, 0.03276645764708519
18, 0, 0, 0
19, 0, 0, 0
20, 0, 0, 0.003019595751538873
21, 0, 0, 0
22, 0, 0, 0
23, 0, 0, 0
24, 0, 0, 0
25, 0, 0, 0
26, 0, 0, 0
27, 0, 0, 0
28, 0, 0, 0
29, 0, 0, 0.001589160296134651
30, 0, 0, 0
31, 0, 0, 6.823090076446533
32, 0, 0, 30.15110206604004
33, 0, 0, 149.4552612304688
34, 0, 0, 614.9199829101562
35, 0, 0, 1504.590942382812
36, 0, 0, 2900.566162109375
37, 0, 0, 4285.3994140625
38, 0, 0, 4892.48193359375
39, 0, 0, 4971.18408203125
40, 0, 0, 4477.52001953125
41, 0, 0, 3961.3740234375
42, 0, 0, 3525.997314453125
43, 0, 0, 3178.747802734375
44, 0, 0, 2937.645751953125
45, 0, 0, 2754.579345703125
46, 0, 0, 2590.96728515625
47, 0, 0, 2464.52685546875
48, 0, 0, 2360.272216796875
49, 0, 0, 2271.035400390625
50, 0, 0, 2186.95166015625
51, 0, 0, 2111.019287109375
52, 0, 0, 2058.999267578125
53, 0, 0, 1992.508422851562
54, 0, 0, 1939.064208984375
55, 0, 0, 1893.825927734375
56, 0, 0, 1837.03759765625
57, 0, 0, 1801.114501953125
58, 0, 0, 1765.501586914062
59, 0, 0, 1722.754638671875
60, 0, 0, 1698.607055664062
61, 0, 0, 1667.447631835938
62, 0, 0, 1639.001342773438
63, 0, 0, 1612.527465820312
64, 0, 0, 1589.182739257812
65, 0, 0, 1556.151611328125
66, 0, 0, 1533.031005859375
67, 0, 0, 1512.221435546875
68, 0, 0, 1491.628540039062
69, 0, 0, 1466.829711914062
70, 0, 0, 1448.589111328125
71, 0, 0, 1433.408447265625
72, 0, 0, 1415.661254882812
73, 0, 0, 1401.125244140625
74, 0, 0, 1378.145141601562
75, 0, 0, 1373.318237304688
76, 0, 0, 1350.641235351562
77, 0, 0, 1341.871704101562
78, 0, 0, 1328.349243164062
79, 0, 0, 1302.321044921875
80, 0, 0, 1294.79931640625
81, 0, 0, 1278.974609375
82, 0, 0, 1268.421752929688
83, 0, 0, 1264.292846679688
84, 0, 0, 1252.093383789062
85, 0, 0, 1239.996459960938
86, 0, 0, 1232.389770507812
87, 0, 0, 1217.478149414062
88, 0, 0, 1205.988037109375
89, 0, 0, 1197.5849609375
90, 0, 0, 1191.75244140625
91, 0, 0, 1179.009155273438
92, 0, 0, 1174.031372070312
93, 0, 0, 1157.66796875
94, 0, 0, 1152.266357421875
95, 0, 0, 1137.413696289062
96, 0, 0, 1135.824829101562
97, 0, 0, 1123.3701171875
98, 0, 0, 1115.929443359375
99, 0, 0, 1110.784423828125
100, 0, 0, 1103.123291015625
101, 0, 0, 1103.046875
102, 0, 0, 1089.876708984375
103, 0, 0, 1089.698608398438
104, 0, 0, 1083.1806640625
105, 0, 0, 1070.284912109375
106, 0, 0, 1062.30908203125
107, 0, 0, 1062.047729492188
108, 0, 0, 1055.492919921875
109, 0, 0, 1052.869750976562
110, 0, 0, 1042.389526367188
111, 0, 0, 1042.241088867188
112, 0, 0, 1031.59814453125
113, 0, 0, 1021.514892578125
114, 0, 0, 1010.94189453125
115, 0, 0, 1016.985778808594
116, 0, 0, 1007.746215820312
117, 0, 0, 1016.111694335938
118, 0, 0, 994.4912109375
119, 0, 0, 995.9157104492188
120, 0, 0, 999.3033447265625
121, 0, 0, 983.0905151367188
122, 0, 0, 982.573974609375
123, 0, 0, 975.9640502929688
124, 0, 0, 980.2171630859375
125, 0, 0, 964.755859375
126, 0, 0, 964.4334716796875
127, 0, 0, 954.9962768554688
128, 0, 0, 954.1070556640625
129, 0, 0, 949.6873168945312
130, 0, 0, 951.9779663085938
131, 0, 0, 945.60595703125
132, 0, 0, 935.0235595703125
133, 0, 0, 932.124755859375
134, 0, 0, 930.893310546875
135, 0, 0, 929.1209716796875
136, 0, 0, 917.1259155273438
137, 0, 0, 917.2894287109375
138, 0, 0, 921.4171752929688
139, 0, 0, 907.157958984375
140, 0, 0, 919.1047973632812
141, 0, 0, 907.9022216796875
142, 0, 0, 900.1407470703125
143, 0, 0, 901.2780151367188
144, 0, 0, 895.8766479492188
145, 0, 0, 881.9505615234375
146, 0, 0, 898.279541015625
147, 0, 0, 888.9942016601562
148, 0, 0, 879.0340576171875
149, 0, 0, 881.21875
150, 0, 0, 877.81640625
151, 0, 0, 870.4075927734375
152, 0, 0, 877.3984985351562
153, 0, 0, 864.1339111328125
154, 0, 0, 864.7648315429688
155, 0, 0, 859.2627563476562
156, 0, 0, 856.0896606445312
157, 0, 0, 857.2938232421875
158, 0, 0, 848.260009765625
159, 0, 0, 852.5221557617188
160, 0, 0, 850.8834838867188
161, 0, 0, 844.3278198242188
162, 0, 0, 843.637939453125
163, 0, 0, 837.0638427734375
164, 0, 0, 840.1822509765625
165, 0, 0, 836.2786254882812
166, 0, 0, 836.6271362304688
167, 0, 0, 826.0087280273438
168, 0, 0, 827.7021484375
169, 0, 0, 821.3255004882812
170, 0, 0, 829.6614379882812
171, 0, 0, 821.0550537109375
172, 0, 0, 820.3948974609375
173, 0, 0, 816.448974609375
174, 0, 0, 817.9710083007812
175, 0, 0, 816.72314453125
176, 0, 0, 815.51171875
177, 0, 0, 819.0457763671875
178, 0, 0, 810.9269409179688
179, 0, 0, 810.0160522460938
