# TOPAS Version: 3.3.p1
# Parameter File: Test.txt
# Results for scorer MLIC_Scorer
# Scored in component: MLIC
# X in 180 bins of 0.177778 cm
# Y in 1 bin  of 10 cm
# Z in 1 bin  of 10 cm
# EnergyDeposit ( MeV ) : Sum   
0, 0, 0, 0
1, 0, 0, 0
2, 0, 0, 0
3, 0, 0, 0
4, 0, 0, 0
5, 0, 0, 0
6, 0, 0, 0
7, 0, 0, 0
8, 0, 0, 0
9, 0, 0, 0
10, 0, 0, 0
11, 0, 0, 0
12, 0, 0, 0
13, 0, 0, 0
14, 0, 0, 0
15, 0, 0, 0
16, 0, 0, 0
17, 0, 0, 0
18, 0, 0, 0
19, 0, 0, 0
20, 0, 0, 0
21, 0, 0, 0
22, 0, 0, 0
23, 0, 0, 0
24, 0, 0, 0
25, 0, 0, 0
26, 0, 0, 0
27, 0, 0, 0
28, 0, 0, 0
29, 0, 0, 0
30, 0, 0, 0
31, 0, 0, 0.03135408833622932
32, 0, 0, 0
33, 0, 0, 0
34, 0, 0, 0
35, 0, 0, 0
36, 0, 0, 0
37, 0, 0, 0
38, 0, 0, 0.01154907513409853
39, 0, 0, 0
40, 0, 0, 0.008674798533320427
41, 0, 0, 0.0001624015858396888
42, 0, 0, 0
43, 0, 0, 0
44, 0, 0, 0
45, 0, 0, 0
46, 0, 0, 0
47, 0, 0, 0
48, 0, 0, 0
49, 0, 0, 0
50, 0, 0, 0
51, 0, 0, 0
52, 0, 0, 0
53, 0, 0, 0
54, 0, 0, 0
55, 0, 0, 0
56, 0, 0, 0
57, 0, 0, 0
58, 0, 0, 0
59, 0, 0, 0
60, 0, 0, 0
61, 0, 0, 0
62, 0, 0, 0
63, 0, 0, 0
64, 0, 0, 0
65, 0, 0, 0
66, 0, 0, 0
67, 0, 0, 0
68, 0, 0, 0
69, 0, 0, 0
70, 0, 0, 0
71, 0, 0, 0
72, 0, 0, 0.005535899195820093
73, 0, 0, 0
74, 0, 0, 0
75, 0, 0, 0
76, 0, 0, 0
77, 0, 0, 0
78, 0, 0, 0
79, 0, 0, 0
80, 0, 0, 0
81, 0, 0, 0
82, 0, 0, 0
83, 0, 0, 0
84, 0, 0, 0
85, 0, 0, 0
86, 0, 0, 0
87, 0, 0, 0
88, 0, 0, 0
89, 0, 0, 0
90, 0, 0, 0
91, 0, 0, 0
92, 0, 0, 0
93, 0, 0, 0
94, 0, 0, 0
95, 0, 0, 0
96, 0, 0, 0
97, 0, 0, 0
98, 0, 0, 0
99, 0, 0, 0
100, 0, 0, 0.005844984669238329
101, 0, 0, 0.001722669112496078
102, 0, 0, 0
103, 0, 0, 0
104, 0, 0, 0
105, 0, 0, 0
106, 0, 0, 0
107, 0, 0, 0
108, 0, 0, 0
109, 0, 0, 0
110, 0, 0, 0
111, 0, 0, 0
112, 0, 0, 0
113, 0, 0, 0
114, 0, 0, 0
115, 0, 0, 0
116, 0, 0, 0
117, 0, 0, 0
118, 0, 0, 0
119, 0, 0, 0
120, 0, 0, 0
121, 0, 0, 0
122, 0, 0, 0.001416188548319042
123, 0, 0, 0.002225871663540602
124, 0, 0, 0
125, 0, 0, 0
126, 0, 0, 0
127, 0, 0, 0
128, 0, 0, 0
129, 0, 0, 0
130, 0, 0, 0.03627856448292732
131, 0, 0, 0
132, 0, 0, 12.49996852874756
133, 0, 0, 101.2459945678711
134, 0, 0, 495.8833923339844
135, 0, 0, 1421.576416015625
136, 0, 0, 3147.8359375
137, 0, 0, 4340.47021484375
138, 0, 0, 4972.1357421875
139, 0, 0, 4852.93359375
140, 0, 0, 4486.7685546875
141, 0, 0, 4002.749267578125
142, 0, 0, 3502.57958984375
143, 0, 0, 3168.067626953125
144, 0, 0, 2940.73876953125
145, 0, 0, 2741.402099609375
146, 0, 0, 2585.48486328125
147, 0, 0, 2462.396484375
148, 0, 0, 2360.076171875
149, 0, 0, 2264.849853515625
150, 0, 0, 2188.0107421875
151, 0, 0, 2116.020263671875
152, 0, 0, 2044.550415039062
153, 0, 0, 1993.14697265625
154, 0, 0, 1944.092895507812
155, 0, 0, 1889.015014648438
156, 0, 0, 1843.307006835938
157, 0, 0, 1801.635009765625
158, 0, 0, 1764.91845703125
159, 0, 0, 1727.115478515625
160, 0, 0, 1694.990844726562
161, 0, 0, 1666.562622070312
162, 0, 0, 1639.247192382812
163, 0, 0, 1608.292114257812
164, 0, 0, 1586.358154296875
165, 0, 0, 1553.673583984375
166, 0, 0, 1530.68701171875
167, 0, 0, 1512.256713867188
168, 0, 0, 1485.043334960938
169, 0, 0, 1467.435302734375
170, 0, 0, 1455.232299804688
171, 0, 0, 1436.88720703125
172, 0, 0, 1418.201171875
173, 0, 0, 1394.718994140625
174, 0, 0, 1377.505249023438
175, 0, 0, 1363.520629882812
176, 0, 0, 1352.732177734375
177, 0, 0, 1339.241333007812
178, 0, 0, 1326.589111328125
179, 0, 0, 1300.091552734375
