# TOPAS Version: 3.3.p1
# Parameter File: Test.txt
# Results for scorer MLIC_Scorer
# Scored in component: MLIC
# X in 180 bins of 0.177778 cm
# Y in 1 bin  of 10 cm
# Z in 1 bin  of 10 cm
# EnergyDeposit ( MeV ) : Sum   
0, 0, 0, 0
1, 0, 0, 0
2, 0, 0, 0
3, 0, 0, 0
4, 0, 0, 0
5, 0, 0, 0
6, 0, 0, 0
7, 0, 0, 0
8, 0, 0, 0
9, 0, 0, 0
10, 0, 0, 0
11, 0, 0, 0
12, 0, 0, 0
13, 0, 0, 0
14, 0, 0, 0
15, 0, 0, 0
16, 0, 0, 0
17, 0, 0, 0.006058904342353344
18, 0, 0, 0
19, 0, 0, 0
20, 0, 0, 4.070415019989014
21, 0, 0, 31.64275169372559
22, 0, 0, 324.3502502441406
23, 0, 0, 916.520263671875
24, 0, 0, 1814.76220703125
25, 0, 0, 3190.618896484375
26, 0, 0, 4644.3125
27, 0, 0, 5133.6005859375
28, 0, 0, 4890.55712890625
29, 0, 0, 4313.3544921875
30, 0, 0, 3752.399658203125
31, 0, 0, 3401.974365234375
32, 0, 0, 3085.673095703125
33, 0, 0, 2857.59521484375
34, 0, 0, 2686.944580078125
35, 0, 0, 2541.990966796875
36, 0, 0, 2431.716796875
37, 0, 0, 2329.49462890625
38, 0, 0, 2234.53857421875
39, 0, 0, 2151.641845703125
40, 0, 0, 2083.76220703125
41, 0, 0, 2034.608642578125
42, 0, 0, 1984.307495117188
43, 0, 0, 1922.80712890625
44, 0, 0, 1872.006103515625
45, 0, 0, 1831.635009765625
46, 0, 0, 1790.018432617188
47, 0, 0, 1756.005859375
48, 0, 0, 1718.695190429688
49, 0, 0, 1689.259643554688
50, 0, 0, 1659.756103515625
51, 0, 0, 1626.000366210938
52, 0, 0, 1602.228271484375
53, 0, 0, 1574.171997070312
54, 0, 0, 1541.412719726562
55, 0, 0, 1527.790283203125
56, 0, 0, 1516.8359375
57, 0, 0, 1499.04150390625
58, 0, 0, 1456.701171875
59, 0, 0, 1443.031372070312
60, 0, 0, 1418.17236328125
61, 0, 0, 1411.473876953125
62, 0, 0, 1396.123046875
63, 0, 0, 1381.25244140625
64, 0, 0, 1357.218383789062
65, 0, 0, 1353.190185546875
66, 0, 0, 1329.473022460938
67, 0, 0, 1322.822509765625
68, 0, 0, 1300.245361328125
69, 0, 0, 1293.264892578125
70, 0, 0, 1280.239990234375
71, 0, 0, 1273.326538085938
72, 0, 0, 1261.39111328125
73, 0, 0, 1236.375122070312
74, 0, 0, 1233.808959960938
75, 0, 0, 1227.462890625
76, 0, 0, 1216.400512695312
77, 0, 0, 1201.018310546875
78, 0, 0, 1196.897216796875
79, 0, 0, 1181.306518554688
80, 0, 0, 1167.052978515625
81, 0, 0, 1161.411254882812
82, 0, 0, 1153.218627929688
83, 0, 0, 1147.098754882812
84, 0, 0, 1142.607299804688
85, 0, 0, 1130.389892578125
86, 0, 0, 1124.661865234375
87, 0, 0, 1121.198852539062
88, 0, 0, 1122.315307617188
89, 0, 0, 1102.048217773438
90, 0, 0, 1095.206298828125
91, 0, 0, 1084.541870117188
92, 0, 0, 1081.006958007812
93, 0, 0, 1077.686645507812
94, 0, 0, 1072.063354492188
95, 0, 0, 1064.532104492188
96, 0, 0, 1060.84716796875
97, 0, 0, 1049.943969726562
98, 0, 0, 1047.968872070312
99, 0, 0, 1046.035034179688
100, 0, 0, 1038.2724609375
101, 0, 0, 1037.240112304688
102, 0, 0, 1022.539733886719
103, 0, 0, 1019.603210449219
104, 0, 0, 1012.633483886719
105, 0, 0, 1000.018188476562
106, 0, 0, 995.69189453125
107, 0, 0, 998.1090698242188
108, 0, 0, 994.9586791992188
109, 0, 0, 987.9913940429688
110, 0, 0, 987.790771484375
111, 0, 0, 972.1885375976562
112, 0, 0, 975.8277587890625
113, 0, 0, 969.8135375976562
114, 0, 0, 968.5702514648438
115, 0, 0, 963.5216674804688
116, 0, 0, 964.5264282226562
117, 0, 0, 957.8953857421875
118, 0, 0, 950.1593017578125
119, 0, 0, 947.7860107421875
120, 0, 0, 936.5528564453125
121, 0, 0, 933.591796875
122, 0, 0, 937.0433349609375
123, 0, 0, 930.1041870117188
124, 0, 0, 927.5810546875
125, 0, 0, 927.140380859375
126, 0, 0, 924.3872680664062
127, 0, 0, 910.880859375
128, 0, 0, 906.64111328125
129, 0, 0, 908.611328125
130, 0, 0, 910.1995239257812
131, 0, 0, 896.3556518554688
132, 0, 0, 895.8156127929688
133, 0, 0, 898.6590576171875
134, 0, 0, 892.1827392578125
135, 0, 0, 889.062255859375
136, 0, 0, 891.9208984375
137, 0, 0, 882.2666625976562
138, 0, 0, 880.4319458007812
139, 0, 0, 875.7603149414062
140, 0, 0, 878.1275634765625
141, 0, 0, 872.2433471679688
142, 0, 0, 870.4697875976562
143, 0, 0, 862.4945068359375
144, 0, 0, 856.0311889648438
145, 0, 0, 862.8394775390625
146, 0, 0, 858.101318359375
147, 0, 0, 849.47802734375
148, 0, 0, 858.6157836914062
149, 0, 0, 850.4210815429688
150, 0, 0, 847.5901489257812
151, 0, 0, 839.201171875
152, 0, 0, 843.5867919921875
153, 0, 0, 833.1690063476562
154, 0, 0, 832.399658203125
155, 0, 0, 823.6421508789062
156, 0, 0, 826.4541015625
157, 0, 0, 831.3703002929688
158, 0, 0, 824.885498046875
159, 0, 0, 818.935791015625
160, 0, 0, 820.6504516601562
161, 0, 0, 826.90380859375
162, 0, 0, 819.0531616210938
163, 0, 0, 814.6950073242188
164, 0, 0, 815.2191162109375
165, 0, 0, 818.7421264648438
166, 0, 0, 810.8223266601562
167, 0, 0, 805.2824096679688
168, 0, 0, 801.2515258789062
169, 0, 0, 802.3152465820312
170, 0, 0, 791.1592407226562
171, 0, 0, 797.8138427734375
172, 0, 0, 796.9979248046875
173, 0, 0, 792.02880859375
174, 0, 0, 788.1049194335938
175, 0, 0, 794.9586791992188
176, 0, 0, 786.1903076171875
177, 0, 0, 782.6380615234375
178, 0, 0, 778.3798217773438
179, 0, 0, 779.968994140625
