# TOPAS Version: 3.3.p1
# Parameter File: Test.txt
# Results for scorer MLIC_Scorer
# Scored in component: MLIC
# X in 180 bins of 0.177778 cm
# Y in 1 bin  of 10 cm
# Z in 1 bin  of 10 cm
# EnergyDeposit ( MeV ) : Sum   
0, 0, 0, 0
1, 0, 0, 0
2, 0, 0, 0
3, 0, 0, 0
4, 0, 0, 0
5, 0, 0, 0
6, 0, 0, 0
7, 0, 0, 0
8, 0, 0, 0
9, 0, 0, 0
10, 0, 0, 0
11, 0, 0, 0
12, 0, 0, 0
13, 0, 0, 0
14, 0, 0, 0
15, 0, 0, 0
16, 0, 0, 0
17, 0, 0, 0
18, 0, 0, 0
19, 0, 0, 0
20, 0, 0, 0
21, 0, 0, 0
22, 0, 0, 0
23, 0, 0, 0
24, 0, 0, 0
25, 0, 0, 0
26, 0, 0, 0
27, 0, 0, 0
28, 0, 0, 0
29, 0, 0, 0
30, 0, 0, 0
31, 0, 0, 0
32, 0, 0, 0
33, 0, 0, 0
34, 0, 0, 0
35, 0, 0, 0
36, 0, 0, 0
37, 0, 0, 0
38, 0, 0, 0
39, 0, 0, 0
40, 0, 0, 0
41, 0, 0, 0
42, 0, 0, 0
43, 0, 0, 0
44, 0, 0, 0
45, 0, 0, 0
46, 0, 0, 0
47, 0, 0, 0
48, 0, 0, 0
49, 0, 0, 0
50, 0, 0, 0
51, 0, 0, 0
52, 0, 0, 0
53, 0, 0, 0
54, 0, 0, 0
55, 0, 0, 0
56, 0, 0, 0
57, 0, 0, 0
58, 0, 0, 0
59, 0, 0, 0
60, 0, 0, 0
61, 0, 0, 0
62, 0, 0, 0
63, 0, 0, 0
64, 0, 0, 0
65, 0, 0, 0.03437616676092148
66, 0, 0, 0.0008508490864187479
67, 0, 0, 0
68, 0, 0, 0
69, 0, 0, 0
70, 0, 0, 0
71, 0, 0, 0
72, 0, 0, 0
73, 0, 0, 0
74, 0, 0, 0
75, 0, 0, 0
76, 0, 0, 0
77, 0, 0, 0
78, 0, 0, 0
79, 0, 0, 0
80, 0, 0, 7.258893489837646
81, 0, 0, 83.98600006103516
82, 0, 0, 308.6318969726562
83, 0, 0, 947.6644897460938
84, 0, 0, 2014.566650390625
85, 0, 0, 3355.3984375
86, 0, 0, 4535.09423828125
87, 0, 0, 5104.85107421875
88, 0, 0, 4833.6640625
89, 0, 0, 4292.603515625
90, 0, 0, 3761.857421875
91, 0, 0, 3365.41943359375
92, 0, 0, 3081.7939453125
93, 0, 0, 2849.4873046875
94, 0, 0, 2682.695556640625
95, 0, 0, 2542.951171875
96, 0, 0, 2420.935302734375
97, 0, 0, 2326.656982421875
98, 0, 0, 2235.177490234375
99, 0, 0, 2160.169677734375
100, 0, 0, 2085.486083984375
101, 0, 0, 2021.709594726562
102, 0, 0, 1967.68115234375
103, 0, 0, 1920.216796875
104, 0, 0, 1875.708251953125
105, 0, 0, 1823.550415039062
106, 0, 0, 1790.617065429688
107, 0, 0, 1747.786743164062
108, 0, 0, 1721.96533203125
109, 0, 0, 1676.391235351562
110, 0, 0, 1651.167114257812
111, 0, 0, 1626.272094726562
112, 0, 0, 1596.266723632812
113, 0, 0, 1568.10009765625
114, 0, 0, 1547.529052734375
115, 0, 0, 1526.575805664062
116, 0, 0, 1507.704467773438
117, 0, 0, 1478.875122070312
118, 0, 0, 1456.21826171875
119, 0, 0, 1445.813720703125
120, 0, 0, 1429.04931640625
121, 0, 0, 1413.002563476562
122, 0, 0, 1393.140380859375
123, 0, 0, 1376.283081054688
124, 0, 0, 1361.113159179688
125, 0, 0, 1346.305908203125
126, 0, 0, 1333.568359375
127, 0, 0, 1320.67724609375
128, 0, 0, 1307.78857421875
129, 0, 0, 1292.254272460938
130, 0, 0, 1280.672485351562
131, 0, 0, 1264.418334960938
132, 0, 0, 1251.290283203125
133, 0, 0, 1233.617309570312
134, 0, 0, 1229.175537109375
135, 0, 0, 1228.660522460938
136, 0, 0, 1211.527221679688
137, 0, 0, 1198.653442382812
138, 0, 0, 1193.6416015625
139, 0, 0, 1182.230712890625
140, 0, 0, 1177.235107421875
141, 0, 0, 1154.20654296875
142, 0, 0, 1162.363037109375
143, 0, 0, 1149.08740234375
144, 0, 0, 1141.116088867188
145, 0, 0, 1133.359741210938
146, 0, 0, 1122.444702148438
147, 0, 0, 1123.58984375
148, 0, 0, 1109.438598632812
149, 0, 0, 1097.815673828125
150, 0, 0, 1088.24072265625
151, 0, 0, 1093.317993164062
152, 0, 0, 1073.847045898438
153, 0, 0, 1076.663696289062
154, 0, 0, 1077.121826171875
155, 0, 0, 1065.370239257812
156, 0, 0, 1055.419311523438
157, 0, 0, 1056.174072265625
158, 0, 0, 1051.387817382812
159, 0, 0, 1041.132934570312
160, 0, 0, 1040.549438476562
161, 0, 0, 1031.320190429688
162, 0, 0, 1028.398315429688
163, 0, 0, 1016.009033203125
164, 0, 0, 1016.211608886719
165, 0, 0, 1008.493957519531
166, 0, 0, 1000.105773925781
167, 0, 0, 997.1073608398438
168, 0, 0, 997.2451782226562
169, 0, 0, 989.515380859375
170, 0, 0, 979.2294311523438
171, 0, 0, 979.5681762695312
172, 0, 0, 966.325927734375
173, 0, 0, 966.9693603515625
174, 0, 0, 962.645751953125
175, 0, 0, 966.2403564453125
176, 0, 0, 958.1868286132812
177, 0, 0, 956.630126953125
178, 0, 0, 945.0785522460938
179, 0, 0, 939.0152587890625
