# TOPAS Version: 3.3.p1
# Parameter File: Test.txt
# Results for scorer MLIC_Scorer
# Scored in component: MLIC
# X in 180 bins of 0.177778 cm
# Y in 1 bin  of 10 cm
# Z in 1 bin  of 10 cm
# EnergyDeposit ( MeV ) : Sum   
0, 0, 0, 0
1, 0, 0, 0
2, 0, 0, 0
3, 0, 0, 0
4, 0, 0, 0
5, 0, 0, 0
6, 0, 0, 0
7, 0, 0, 0
8, 0, 0, 0
9, 0, 0, 0
10, 0, 0, 0
11, 0, 0, 0
12, 0, 0, 42.65501022338867
13, 0, 0, 175.5855255126953
14, 0, 0, 616.3236083984375
15, 0, 0, 1587.2373046875
16, 0, 0, 2938.514404296875
17, 0, 0, 4262.8984375
18, 0, 0, 5063
19, 0, 0, 4947.6220703125
20, 0, 0, 4480.6533203125
21, 0, 0, 3938.45068359375
22, 0, 0, 3483.082275390625
23, 0, 0, 3168.609375
24, 0, 0, 2919.548095703125
25, 0, 0, 2735.965576171875
26, 0, 0, 2580.612060546875
27, 0, 0, 2461.79541015625
28, 0, 0, 2348.474853515625
29, 0, 0, 2262.4453125
30, 0, 0, 2179.711669921875
31, 0, 0, 2117.1767578125
32, 0, 0, 2042.882202148438
33, 0, 0, 1989.394165039062
34, 0, 0, 1933.300048828125
35, 0, 0, 1883.403442382812
36, 0, 0, 1838.515747070312
37, 0, 0, 1797.041015625
38, 0, 0, 1758.854858398438
39, 0, 0, 1723.10107421875
40, 0, 0, 1693.281005859375
41, 0, 0, 1662.8701171875
42, 0, 0, 1633.08349609375
43, 0, 0, 1609.204711914062
44, 0, 0, 1582.351318359375
45, 0, 0, 1557.182983398438
46, 0, 0, 1533.301513671875
47, 0, 0, 1508.86865234375
48, 0, 0, 1491.432250976562
49, 0, 0, 1471.741455078125
50, 0, 0, 1457.66748046875
51, 0, 0, 1438.882446289062
52, 0, 0, 1419.150756835938
53, 0, 0, 1393.728637695312
54, 0, 0, 1380.370483398438
55, 0, 0, 1369.643432617188
56, 0, 0, 1352.211547851562
57, 0, 0, 1340.665649414062
58, 0, 0, 1318.858642578125
59, 0, 0, 1310.2099609375
60, 0, 0, 1300.677124023438
61, 0, 0, 1282.348266601562
62, 0, 0, 1268.183227539062
63, 0, 0, 1251.774780273438
64, 0, 0, 1249.491943359375
65, 0, 0, 1234.528076171875
66, 0, 0, 1234.907836914062
67, 0, 0, 1219.781005859375
68, 0, 0, 1211.566162109375
69, 0, 0, 1196.451049804688
70, 0, 0, 1187.583618164062
71, 0, 0, 1173.751708984375
72, 0, 0, 1172.05224609375
73, 0, 0, 1159.272338867188
74, 0, 0, 1147.264770507812
75, 0, 0, 1141.483032226562
76, 0, 0, 1138.321044921875
77, 0, 0, 1124.581787109375
78, 0, 0, 1124.658813476562
79, 0, 0, 1111.796264648438
80, 0, 0, 1099.465454101562
81, 0, 0, 1100.10205078125
82, 0, 0, 1094.995727539062
83, 0, 0, 1089.840209960938
84, 0, 0, 1073.185180664062
85, 0, 0, 1067.827880859375
86, 0, 0, 1069.220458984375
87, 0, 0, 1063.80908203125
88, 0, 0, 1053.259155273438
89, 0, 0, 1058.415161132812
90, 0, 0, 1042.959106445312
91, 0, 0, 1047.5224609375
92, 0, 0, 1031.455810546875
93, 0, 0, 1023.828308105469
94, 0, 0, 1022.71435546875
95, 0, 0, 1016.470520019531
96, 0, 0, 1012.216857910156
97, 0, 0, 1003.313415527344
98, 0, 0, 998.5810546875
99, 0, 0, 996.13232421875
100, 0, 0, 986.8582763671875
101, 0, 0, 989.7296752929688
102, 0, 0, 973.3027954101562
103, 0, 0, 974.7498779296875
104, 0, 0, 970.6260986328125
105, 0, 0, 971.1245727539062
106, 0, 0, 963.4725341796875
107, 0, 0, 961.5869750976562
108, 0, 0, 950.4909057617188
109, 0, 0, 944.6267700195312
110, 0, 0, 948.3932495117188
111, 0, 0, 938.1630859375
112, 0, 0, 945.1203002929688
113, 0, 0, 939.19091796875
114, 0, 0, 934.3792114257812
115, 0, 0, 928.5935668945312
116, 0, 0, 922.6344604492188
117, 0, 0, 923.0170288085938
118, 0, 0, 918.3943481445312
119, 0, 0, 917.37255859375
120, 0, 0, 905.1338500976562
121, 0, 0, 900.4273071289062
122, 0, 0, 894.8201293945312
123, 0, 0, 896.3064575195312
124, 0, 0, 894.3779296875
125, 0, 0, 898.46826171875
126, 0, 0, 891.762451171875
127, 0, 0, 890.762451171875
128, 0, 0, 871.2139892578125
129, 0, 0, 882.467529296875
130, 0, 0, 869.9312744140625
131, 0, 0, 870.0466918945312
132, 0, 0, 865.1038818359375
133, 0, 0, 866.295166015625
134, 0, 0, 868.743896484375
135, 0, 0, 859.9962768554688
136, 0, 0, 860.9225463867188
137, 0, 0, 854.3987426757812
138, 0, 0, 855.4885864257812
139, 0, 0, 862.53564453125
140, 0, 0, 846.2894287109375
141, 0, 0, 842.4186401367188
142, 0, 0, 837.7813110351562
143, 0, 0, 842.5406494140625
144, 0, 0, 835.216796875
145, 0, 0, 829.0419921875
146, 0, 0, 839.0882568359375
147, 0, 0, 828.5492553710938
148, 0, 0, 826.6246948242188
149, 0, 0, 827.4989624023438
150, 0, 0, 824.195556640625
151, 0, 0, 816.211669921875
152, 0, 0, 816.2815551757812
153, 0, 0, 820.5888061523438
154, 0, 0, 824.1614379882812
155, 0, 0, 814.5993041992188
156, 0, 0, 813.4225463867188
157, 0, 0, 812.6989135742188
158, 0, 0, 810.949462890625
159, 0, 0, 800.49755859375
160, 0, 0, 803.2959594726562
161, 0, 0, 796.9407348632812
162, 0, 0, 799.0863647460938
163, 0, 0, 795.7625122070312
164, 0, 0, 790.4003295898438
165, 0, 0, 792.8311767578125
166, 0, 0, 793.2811279296875
167, 0, 0, 789.7492065429688
168, 0, 0, 787.5562744140625
169, 0, 0, 780.1256713867188
170, 0, 0, 778.3475952148438
171, 0, 0, 780.88720703125
172, 0, 0, 783.9456787109375
173, 0, 0, 774.6214599609375
174, 0, 0, 770.5374145507812
175, 0, 0, 773.6460571289062
176, 0, 0, 766.1085815429688
177, 0, 0, 766.9743041992188
178, 0, 0, 762.1420288085938
179, 0, 0, 766.268798828125
