# TOPAS Version: 3.3.p1
# Parameter File: Test.txt
# Results for scorer MLIC_Scorer
# Scored in component: MLIC
# X in 180 bins of 0.183333 cm
# Y in 1 bin  of 10 cm
# Z in 1 bin  of 10 cm
# EnergyDeposit ( MeV ) : Sum   
0, 0, 0, 0
1, 0, 0, 0
2, 0, 0, 0
3, 0, 0, 0
4, 0, 0, 0
5, 0, 0, 0
6, 0, 0, 0
7, 0, 0, 0
8, 0, 0, 0
9, 0, 0, 0
10, 0, 0, 0
11, 0, 0, 0
12, 0, 0, 0
13, 0, 0, 0
14, 0, 0, 0
15, 0, 0, 0
16, 0, 0, 0
17, 0, 0, 0
18, 0, 0, 0
19, 0, 0, 0
20, 0, 0, 0
21, 0, 0, 0
22, 0, 0, 0
23, 0, 0, 0
24, 0, 0, 0
25, 0, 0, 0
26, 0, 0, 0
27, 0, 0, 0
28, 0, 0, 0
29, 0, 0, 0
30, 0, 0, 0
31, 0, 0, 0
32, 0, 0, 0
33, 0, 0, 0
34, 0, 0, 0
35, 0, 0, 0
36, 0, 0, 0
37, 0, 0, 0
38, 0, 0, 0
39, 0, 0, 0
40, 0, 0, 0
41, 0, 0, 0
42, 0, 0, 0
43, 0, 0, 0
44, 0, 0, 0
45, 0, 0, 0
46, 0, 0, 0
47, 0, 0, 0
48, 0, 0, 0
49, 0, 0, 0
50, 0, 0, 0
51, 0, 0, 0
52, 0, 0, 0
53, 0, 0, 0
54, 0, 0, 0
55, 0, 0, 0
56, 0, 0, 0
57, 0, 0, 0
58, 0, 0, 0
59, 0, 0, 0
60, 0, 0, 0
61, 0, 0, 0
62, 0, 0, 0
63, 0, 0, 0
64, 0, 0, 0
65, 0, 0, 0
66, 0, 0, 0
67, 0, 0, 0
68, 0, 0, 0
69, 0, 0, 0
70, 0, 0, 0
71, 0, 0, 0
72, 0, 0, 0
73, 0, 0, 0
74, 0, 0, 0
75, 0, 0, 0
76, 0, 0, 0
77, 0, 0, 0
78, 0, 0, 0
79, 0, 0, 0
80, 0, 0, 0
81, 0, 0, 0
82, 0, 0, 0
83, 0, 0, 0
84, 0, 0, 0
85, 0, 0, 0
86, 0, 0, 0
87, 0, 0, 0
88, 0, 0, 0
89, 0, 0, 0
90, 0, 0, 0
91, 0, 0, 0
92, 0, 0, 0
93, 0, 0, 0
94, 0, 0, 0
95, 0, 0, 0
96, 0, 0, 0
97, 0, 0, 0
98, 0, 0, 0
99, 0, 0, 0
100, 0, 0, 0
101, 0, 0, 0
102, 0, 0, 0
103, 0, 0, 0
104, 0, 0, 0
105, 0, 0, 10.52140998840332
106, 0, 0, 36.69221115112305
107, 0, 0, 93.25526428222656
108, 0, 0, 345.597412109375
109, 0, 0, 917.1089477539062
110, 0, 0, 2049.316650390625
111, 0, 0, 3566.18798828125
112, 0, 0, 4739.0830078125
113, 0, 0, 5179.1181640625
114, 0, 0, 4937.80615234375
115, 0, 0, 4355.7958984375
116, 0, 0, 3801.7421875
117, 0, 0, 3391.283203125
118, 0, 0, 3107.209228515625
119, 0, 0, 2882.886962890625
120, 0, 0, 2710.542236328125
121, 0, 0, 2568.48779296875
122, 0, 0, 2454.099365234375
123, 0, 0, 2357.927734375
124, 0, 0, 2269.86962890625
125, 0, 0, 2188.5869140625
126, 0, 0, 2113.947509765625
127, 0, 0, 2054.88623046875
128, 0, 0, 2005.9462890625
129, 0, 0, 1951.25634765625
130, 0, 0, 1900.83740234375
131, 0, 0, 1853.225341796875
132, 0, 0, 1817.71337890625
133, 0, 0, 1780.122924804688
134, 0, 0, 1738.70654296875
135, 0, 0, 1713.279296875
136, 0, 0, 1677.2998046875
137, 0, 0, 1655.824096679688
138, 0, 0, 1630.759643554688
139, 0, 0, 1595.609252929688
140, 0, 0, 1567.915771484375
141, 0, 0, 1554.825805664062
142, 0, 0, 1522.18017578125
143, 0, 0, 1503.528076171875
144, 0, 0, 1480.697387695312
145, 0, 0, 1469.693115234375
146, 0, 0, 1441.789184570312
147, 0, 0, 1427.220703125
148, 0, 0, 1417.893798828125
149, 0, 0, 1395.97412109375
150, 0, 0, 1378.228393554688
151, 0, 0, 1370.015991210938
152, 0, 0, 1354.558471679688
153, 0, 0, 1348.841186523438
154, 0, 0, 1327.612182617188
155, 0, 0, 1313.750244140625
156, 0, 0, 1304.166381835938
157, 0, 0, 1292.252807617188
158, 0, 0, 1272.565551757812
159, 0, 0, 1269.9365234375
160, 0, 0, 1266.239624023438
161, 0, 0, 1249.828491210938
162, 0, 0, 1238.086669921875
163, 0, 0, 1216.700439453125
164, 0, 0, 1212.581787109375
165, 0, 0, 1198.982055664062
166, 0, 0, 1200.277954101562
167, 0, 0, 1181.205810546875
168, 0, 0, 1183.857055664062
169, 0, 0, 1164.347778320312
170, 0, 0, 1163.289672851562
171, 0, 0, 1149.432861328125
172, 0, 0, 1151.345825195312
173, 0, 0, 1141.211547851562
174, 0, 0, 1134.503662109375
175, 0, 0, 1126.748168945312
176, 0, 0, 1118.914184570312
177, 0, 0, 1110.382568359375
178, 0, 0, 1096.325073242188
179, 0, 0, 1095.390380859375
