# TOPAS Version: 3.3.p1
# Parameter File: Test.txt
# Results for scorer MLIC_Scorer
# Scored in component: MLIC
# X in 180 bins of 0.177778 cm
# Y in 1 bin  of 10 cm
# Z in 1 bin  of 10 cm
# EnergyDeposit ( MeV ) : Sum   
0, 0, 0, 0
1, 0, 0, 0
2, 0, 0, 0
3, 0, 0, 0
4, 0, 0, 0
5, 0, 0, 0
6, 0, 0, 0
7, 0, 0, 0
8, 0, 0, 0
9, 0, 0, 0
10, 0, 0, 0
11, 0, 0, 0
12, 0, 0, 0
13, 0, 0, 0
14, 0, 0, 0
15, 0, 0, 0
16, 0, 0, 0
17, 0, 0, 0.001843993435613811
18, 0, 0, 0.0230045709758997
19, 0, 0, 0
20, 0, 0, 0
21, 0, 0, 0
22, 0, 0, 0
23, 0, 0, 0
24, 0, 0, 0
25, 0, 0, 24.39019203186035
26, 0, 0, 75.44234466552734
27, 0, 0, 266.0871887207031
28, 0, 0, 933.8095092773438
29, 0, 0, 1925.0791015625
30, 0, 0, 3236.935546875
31, 0, 0, 4398.31884765625
32, 0, 0, 4993.01513671875
33, 0, 0, 4857.49267578125
34, 0, 0, 4384.2236328125
35, 0, 0, 3826.228759765625
36, 0, 0, 3398.743408203125
37, 0, 0, 3091.938720703125
38, 0, 0, 2860.847412109375
39, 0, 0, 2690.208740234375
40, 0, 0, 2548.224365234375
41, 0, 0, 2431.0517578125
42, 0, 0, 2329.41455078125
43, 0, 0, 2241.517333984375
44, 0, 0, 2159.033203125
45, 0, 0, 2087.952392578125
46, 0, 0, 2033.865600585938
47, 0, 0, 1972.168334960938
48, 0, 0, 1920.489501953125
49, 0, 0, 1875.098876953125
50, 0, 0, 1835.740234375
51, 0, 0, 1786.83642578125
52, 0, 0, 1756.01806640625
53, 0, 0, 1724.616455078125
54, 0, 0, 1687.252563476562
55, 0, 0, 1654.86474609375
56, 0, 0, 1631.763305664062
57, 0, 0, 1596.107421875
58, 0, 0, 1578.661010742188
59, 0, 0, 1552.732421875
60, 0, 0, 1525.748291015625
61, 0, 0, 1506.942993164062
62, 0, 0, 1484.807250976562
63, 0, 0, 1463.606689453125
64, 0, 0, 1438.726928710938
65, 0, 0, 1423.446899414062
66, 0, 0, 1406.897216796875
67, 0, 0, 1395.499389648438
68, 0, 0, 1374.884155273438
69, 0, 0, 1357.557861328125
70, 0, 0, 1345.785034179688
71, 0, 0, 1332.699951171875
72, 0, 0, 1316.5654296875
73, 0, 0, 1308.2890625
74, 0, 0, 1296
75, 0, 0, 1284.293090820312
76, 0, 0, 1262.286865234375
77, 0, 0, 1257.616455078125
78, 0, 0, 1247.052734375
79, 0, 0, 1234.890625
80, 0, 0, 1226.262939453125
81, 0, 0, 1213.633666992188
82, 0, 0, 1202.33056640625
83, 0, 0, 1206.006591796875
84, 0, 0, 1188.30224609375
85, 0, 0, 1177.865234375
86, 0, 0, 1166.436157226562
87, 0, 0, 1153.5869140625
88, 0, 0, 1150.313720703125
89, 0, 0, 1145.211791992188
90, 0, 0, 1133.375732421875
91, 0, 0, 1123.339721679688
92, 0, 0, 1113.23095703125
93, 0, 0, 1110.552856445312
94, 0, 0, 1106.845092773438
95, 0, 0, 1089.9892578125
96, 0, 0, 1088.372924804688
97, 0, 0, 1089.835327148438
98, 0, 0, 1074.751708984375
99, 0, 0, 1070.770385742188
100, 0, 0, 1060.297729492188
101, 0, 0, 1059.294311523438
102, 0, 0, 1052.15087890625
103, 0, 0, 1049.657104492188
104, 0, 0, 1039.250854492188
105, 0, 0, 1032.494506835938
106, 0, 0, 1032.849365234375
107, 0, 0, 1025.29931640625
108, 0, 0, 1018.232482910156
109, 0, 0, 1010.55810546875
110, 0, 0, 1010.957092285156
111, 0, 0, 1003.964660644531
112, 0, 0, 998.7777709960938
113, 0, 0, 993.4422607421875
114, 0, 0, 993.8676147460938
115, 0, 0, 975.9559936523438
116, 0, 0, 975.0667114257812
117, 0, 0, 971.0283813476562
118, 0, 0, 970.1185302734375
119, 0, 0, 969.6055297851562
120, 0, 0, 961.6154174804688
121, 0, 0, 954.388427734375
122, 0, 0, 948.725830078125
123, 0, 0, 947.8778076171875
124, 0, 0, 942.3357543945312
125, 0, 0, 942.2978515625
126, 0, 0, 940.3594970703125
127, 0, 0, 931.3695068359375
128, 0, 0, 928.1548461914062
129, 0, 0, 921.5017700195312
130, 0, 0, 931.6920776367188
131, 0, 0, 927.681396484375
132, 0, 0, 916.2361450195312
133, 0, 0, 916.7378540039062
134, 0, 0, 911.1796264648438
135, 0, 0, 905.6484375
136, 0, 0, 904.4244995117188
137, 0, 0, 903.4573364257812
138, 0, 0, 899.0831298828125
139, 0, 0, 889.2905883789062
140, 0, 0, 881.5896606445312
141, 0, 0, 888.4533081054688
142, 0, 0, 886.2249145507812
143, 0, 0, 877.8360595703125
144, 0, 0, 879.7254028320312
145, 0, 0, 879.555419921875
146, 0, 0, 877.3605346679688
147, 0, 0, 860.9575805664062
148, 0, 0, 863.4765625
149, 0, 0, 861.0054931640625
150, 0, 0, 853.7415771484375
151, 0, 0, 864.7042236328125
152, 0, 0, 852.081787109375
153, 0, 0, 854.39990234375
154, 0, 0, 844.834228515625
155, 0, 0, 846.5699462890625
156, 0, 0, 843.474853515625
157, 0, 0, 839.0103759765625
158, 0, 0, 843.087646484375
159, 0, 0, 839.771240234375
160, 0, 0, 833.3084106445312
161, 0, 0, 835.5245361328125
162, 0, 0, 823.2012329101562
163, 0, 0, 825.6144409179688
164, 0, 0, 816.045654296875
165, 0, 0, 818.6022338867188
166, 0, 0, 816.0865478515625
167, 0, 0, 813.7686767578125
168, 0, 0, 813.4485473632812
169, 0, 0, 810.979736328125
170, 0, 0, 813.1474609375
171, 0, 0, 805.17529296875
172, 0, 0, 800.0888671875
173, 0, 0, 797.1052856445312
174, 0, 0, 804.8623046875
175, 0, 0, 795.7410278320312
176, 0, 0, 799.3966674804688
177, 0, 0, 798.142578125
178, 0, 0, 792.53369140625
179, 0, 0, 782.5343017578125
