# TOPAS Version: 3.3.p1
# Parameter File: Test.txt
# Results for scorer MLIC_Scorer
# Scored in component: MLIC
# X in 180 bins of 0.177778 cm
# Y in 1 bin  of 10 cm
# Z in 1 bin  of 10 cm
# EnergyDeposit ( MeV ) : Sum   
0, 0, 0, 0
1, 0, 0, 0
2, 0, 0, 0
3, 0, 0, 0
4, 0, 0, 0
5, 0, 0, 0
6, 0, 0, 0
7, 0, 0, 0
8, 0, 0, 0
9, 0, 0, 0
10, 0, 0, 0
11, 0, 0, 0
12, 0, 0, 0
13, 0, 0, 0
14, 0, 0, 0
15, 0, 0, 0
16, 0, 0, 0
17, 0, 0, 0
18, 0, 0, 0
19, 0, 0, 0
20, 0, 0, 0
21, 0, 0, 0
22, 0, 0, 0
23, 0, 0, 0
24, 0, 0, 0
25, 0, 0, 0
26, 0, 0, 0
27, 0, 0, 0
28, 0, 0, 0
29, 0, 0, 0
30, 0, 0, 0
31, 0, 0, 0
32, 0, 0, 0
33, 0, 0, 0
34, 0, 0, 0
35, 0, 0, 0
36, 0, 0, 0
37, 0, 0, 0
38, 0, 0, 0
39, 0, 0, 0
40, 0, 0, 0
41, 0, 0, 0
42, 0, 0, 0
43, 0, 0, 0
44, 0, 0, 0
45, 0, 0, 0
46, 0, 0, 0
47, 0, 0, 0
48, 0, 0, 0
49, 0, 0, 0
50, 0, 0, 0
51, 0, 0, 0
52, 0, 0, 0
53, 0, 0, 0
54, 0, 0, 0
55, 0, 0, 0
56, 0, 0, 0
57, 0, 0, 0
58, 0, 0, 0
59, 0, 0, 0.005559005308896303
60, 0, 0, 0.003044460201635957
61, 0, 0, 0.0002491286722943187
62, 0, 0, 0.00317227840423584
63, 0, 0, 0
64, 0, 0, 0
65, 0, 0, 0
66, 0, 0, 0
67, 0, 0, 0.005465487949550152
68, 0, 0, 0
69, 0, 0, 0.02112944237887859
70, 0, 0, 0
71, 0, 0, 0.002943346975371242
72, 0, 0, 0.009457279928028584
73, 0, 0, 0
74, 0, 0, 0
75, 0, 0, 0
76, 0, 0, 0
77, 0, 0, 0.008088754490017891
78, 0, 0, 0
79, 0, 0, 0
80, 0, 0, 0
81, 0, 0, 0
82, 0, 0, 0
83, 0, 0, 0
84, 0, 0, 0
85, 0, 0, 0
86, 0, 0, 0.03434198722243309
87, 0, 0, 0
88, 0, 0, 0
89, 0, 0, 0
90, 0, 0, 0
91, 0, 0, 0.001538244658149779
92, 0, 0, 0
93, 0, 0, 0
94, 0, 0, 0
95, 0, 0, 0
96, 0, 0, 0
97, 0, 0, 0
98, 0, 0, 0.001311986008659005
99, 0, 0, 0
100, 0, 0, 0
101, 0, 0, 0
102, 0, 0, 0
103, 0, 0, 0
104, 0, 0, 0
105, 0, 0, 0
106, 0, 0, 0
107, 0, 0, 0
108, 0, 0, 2.814715385437012
109, 0, 0, 36.36982727050781
110, 0, 0, 77.76055908203125
111, 0, 0, 289.1720275878906
112, 0, 0, 950.935791015625
113, 0, 0, 2291.7197265625
114, 0, 0, 3776.890380859375
115, 0, 0, 4770.67626953125
116, 0, 0, 5038.32470703125
117, 0, 0, 4747.84033203125
118, 0, 0, 4156.8212890625
119, 0, 0, 3688.985595703125
120, 0, 0, 3317.50537109375
121, 0, 0, 3021.939208984375
122, 0, 0, 2814.255859375
123, 0, 0, 2644.745361328125
124, 0, 0, 2527.43115234375
125, 0, 0, 2406.089599609375
126, 0, 0, 2313.37255859375
127, 0, 0, 2219.599609375
128, 0, 0, 2147.036865234375
129, 0, 0, 2074.970703125
130, 0, 0, 2016.287719726562
131, 0, 0, 1959.037353515625
132, 0, 0, 1914.260375976562
133, 0, 0, 1859.143920898438
134, 0, 0, 1818.31005859375
135, 0, 0, 1773.765502929688
136, 0, 0, 1745.391967773438
137, 0, 0, 1708.772338867188
138, 0, 0, 1677.281860351562
139, 0, 0, 1650.883422851562
140, 0, 0, 1623.7392578125
141, 0, 0, 1588.322387695312
142, 0, 0, 1571.617919921875
143, 0, 0, 1544.182495117188
144, 0, 0, 1520.86474609375
145, 0, 0, 1498.052368164062
146, 0, 0, 1484.719482421875
147, 0, 0, 1461.357177734375
148, 0, 0, 1447.314453125
149, 0, 0, 1424.023803710938
150, 0, 0, 1405.143798828125
151, 0, 0, 1386.3125
152, 0, 0, 1375.92724609375
153, 0, 0, 1358.494018554688
154, 0, 0, 1339.301879882812
155, 0, 0, 1333.797973632812
156, 0, 0, 1319.118774414062
157, 0, 0, 1299.389770507812
158, 0, 0, 1288.744018554688
159, 0, 0, 1280.18359375
160, 0, 0, 1271.122436523438
161, 0, 0, 1251.583984375
162, 0, 0, 1248.641479492188
163, 0, 0, 1229.067138671875
164, 0, 0, 1221.418701171875
165, 0, 0, 1217.28515625
166, 0, 0, 1199.316040039062
167, 0, 0, 1193.599609375
168, 0, 0, 1183.789428710938
169, 0, 0, 1170.5693359375
170, 0, 0, 1168.036499023438
171, 0, 0, 1152.424194335938
172, 0, 0, 1152.20458984375
173, 0, 0, 1139.739013671875
174, 0, 0, 1129.579223632812
175, 0, 0, 1116.20947265625
176, 0, 0, 1122.153076171875
177, 0, 0, 1105.78857421875
178, 0, 0, 1108.79833984375
179, 0, 0, 1094.110473632812
