# TOPAS Version: 3.3.p1
# Parameter File: Test.txt
# Results for scorer MLIC_Scorer
# Scored in component: MLIC
# X in 180 bins of 0.177778 cm
# Y in 1 bin  of 10 cm
# Z in 1 bin  of 10 cm
# EnergyDeposit ( MeV ) : Sum   
0, 0, 0, 0
1, 0, 0, 0
2, 0, 0, 0
3, 0, 0, 0
4, 0, 0, 0
5, 0, 0, 0
6, 0, 0, 0
7, 0, 0, 0
8, 0, 0, 0
9, 0, 0, 0
10, 0, 0, 0
11, 0, 0, 0
12, 0, 0, 0
13, 0, 0, 0
14, 0, 0, 0
15, 0, 0, 0
16, 0, 0, 0
17, 0, 0, 0
18, 0, 0, 0
19, 0, 0, 0
20, 0, 0, 0
21, 0, 0, 0
22, 0, 0, 0
23, 0, 0, 0
24, 0, 0, 0
25, 0, 0, 0
26, 0, 0, 0
27, 0, 0, 0
28, 0, 0, 0
29, 0, 0, 0
30, 0, 0, 0
31, 0, 0, 0
32, 0, 0, 0
33, 0, 0, 0
34, 0, 0, 0
35, 0, 0, 0
36, 0, 0, 0
37, 0, 0, 0
38, 0, 0, 0
39, 0, 0, 0
40, 0, 0, 0
41, 0, 0, 0
42, 0, 0, 0
43, 0, 0, 0
44, 0, 0, 0
45, 0, 0, 0
46, 0, 0, 0
47, 0, 0, 0
48, 0, 0, 0
49, 0, 0, 0
50, 0, 0, 0
51, 0, 0, 0
52, 0, 0, 0
53, 0, 0, 0
54, 0, 0, 0
55, 0, 0, 0
56, 0, 0, 0
57, 0, 0, 0
58, 0, 0, 0
59, 0, 0, 0
60, 0, 0, 0
61, 0, 0, 0
62, 0, 0, 0
63, 0, 0, 0
64, 0, 0, 0
65, 0, 0, 0
66, 0, 0, 0
67, 0, 0, 0
68, 0, 0, 0
69, 0, 0, 0
70, 0, 0, 0
71, 0, 0, 0
72, 0, 0, 0
73, 0, 0, 0
74, 0, 0, 0
75, 0, 0, 0
76, 0, 0, 0
77, 0, 0, 0
78, 0, 0, 0
79, 0, 0, 0
80, 0, 0, 0
81, 0, 0, 0
82, 0, 0, 0
83, 0, 0, 0
84, 0, 0, 0
85, 0, 0, 0
86, 0, 0, 0
87, 0, 0, 0
88, 0, 0, 0
89, 0, 0, 0
90, 0, 0, 0
91, 0, 0, 0.03352322429418564
92, 0, 0, 0
93, 0, 0, 0
94, 0, 0, 9.788651466369629
95, 0, 0, 95.78810882568359
96, 0, 0, 387.5224914550781
97, 0, 0, 1104.381958007812
98, 0, 0, 2251.48388671875
99, 0, 0, 3694.65234375
100, 0, 0, 4755.23779296875
101, 0, 0, 5027.07958984375
102, 0, 0, 4723.830078125
103, 0, 0, 4229.5185546875
104, 0, 0, 3682.208984375
105, 0, 0, 3291.53271484375
106, 0, 0, 3020.962890625
107, 0, 0, 2813.67041015625
108, 0, 0, 2645.880126953125
109, 0, 0, 2509.51025390625
110, 0, 0, 2399.25830078125
111, 0, 0, 2302.665283203125
112, 0, 0, 2212.667236328125
113, 0, 0, 2149.0458984375
114, 0, 0, 2073.189453125
115, 0, 0, 2017.127075195312
116, 0, 0, 1955.870361328125
117, 0, 0, 1910.772094726562
118, 0, 0, 1857.15380859375
119, 0, 0, 1826.763549804688
120, 0, 0, 1790.166381835938
121, 0, 0, 1751.628784179688
122, 0, 0, 1710.811767578125
123, 0, 0, 1675.519775390625
124, 0, 0, 1649.371215820312
125, 0, 0, 1616.544555664062
126, 0, 0, 1588.587158203125
127, 0, 0, 1572.148071289062
128, 0, 0, 1540.503295898438
129, 0, 0, 1530.605346679688
130, 0, 0, 1501.280151367188
131, 0, 0, 1481.921997070312
132, 0, 0, 1457.135986328125
133, 0, 0, 1438.687377929688
134, 0, 0, 1419.998779296875
135, 0, 0, 1400.056518554688
136, 0, 0, 1387.941284179688
137, 0, 0, 1371.17236328125
138, 0, 0, 1361.852172851562
139, 0, 0, 1345.149658203125
140, 0, 0, 1331.51708984375
141, 0, 0, 1311.093017578125
142, 0, 0, 1304.183349609375
143, 0, 0, 1284.414672851562
144, 0, 0, 1276.130859375
145, 0, 0, 1267.201416015625
146, 0, 0, 1256.57666015625
147, 0, 0, 1245.256591796875
148, 0, 0, 1227.65576171875
149, 0, 0, 1221.932861328125
150, 0, 0, 1208.310913085938
151, 0, 0, 1195.98974609375
152, 0, 0, 1189.193603515625
153, 0, 0, 1188.685668945312
154, 0, 0, 1174.344116210938
155, 0, 0, 1161.921264648438
156, 0, 0, 1158.28759765625
157, 0, 0, 1151.75439453125
158, 0, 0, 1134.53857421875
159, 0, 0, 1130.405151367188
160, 0, 0, 1125.584228515625
161, 0, 0, 1117.58984375
162, 0, 0, 1103.761108398438
163, 0, 0, 1102.275146484375
164, 0, 0, 1091.217895507812
165, 0, 0, 1084.371948242188
166, 0, 0, 1072.960693359375
167, 0, 0, 1068.182006835938
168, 0, 0, 1061.6923828125
169, 0, 0, 1067.392578125
170, 0, 0, 1058.76953125
171, 0, 0, 1054.831665039062
172, 0, 0, 1038.917724609375
173, 0, 0, 1034.912109375
174, 0, 0, 1026.479370117188
175, 0, 0, 1032.681884765625
176, 0, 0, 1026.803344726562
177, 0, 0, 1018.074523925781
178, 0, 0, 1010.571533203125
179, 0, 0, 1006.252075195312
