# TOPAS Version: 3.3.p1
# Parameter File: Test.txt
# Results for scorer MLIC_Scorer
# Scored in component: MLIC
# X in 165 bins of 0.2 cm
# Y in 1 bin  of 10 cm
# Z in 1 bin  of 10 cm
# EnergyDeposit ( MeV ) : Sum   
0, 0, 0, 0
1, 0, 0, 0
2, 0, 0, 0
3, 0, 0, 0.0001834738504840061
4, 0, 0, 0
5, 0, 0, 0
6, 0, 0, 0
7, 0, 0, 0
8, 0, 0, 0
9, 0, 0, 0.02875088155269623
10, 0, 0, 0
11, 0, 0, 0
12, 0, 0, 0
13, 0, 0, 0.04527555033564568
14, 0, 0, 0
15, 0, 0, 0
16, 0, 0, 0
17, 0, 0, 0
18, 0, 0, 14.08201789855957
19, 0, 0, 144.8217315673828
20, 0, 0, 410.6403198242188
21, 0, 0, 1607.665649414062
22, 0, 0, 3011.070068359375
23, 0, 0, 4455.2666015625
24, 0, 0, 5321.072265625
25, 0, 0, 5350.087890625
26, 0, 0, 4911.61279296875
27, 0, 0, 4298.10595703125
28, 0, 0, 3755.6572265625
29, 0, 0, 3387.071044921875
30, 0, 0, 3125.38330078125
31, 0, 0, 2927.776611328125
32, 0, 0, 2762.122314453125
33, 0, 0, 2629.52685546875
34, 0, 0, 2517.044189453125
35, 0, 0, 2424.001220703125
36, 0, 0, 2337.3515625
37, 0, 0, 2256.61865234375
38, 0, 0, 2195.52392578125
39, 0, 0, 2128.877197265625
40, 0, 0, 2066.79931640625
41, 0, 0, 2016.4326171875
42, 0, 0, 1977.906860351562
43, 0, 0, 1920.468505859375
44, 0, 0, 1883.064208984375
45, 0, 0, 1855.335083007812
46, 0, 0, 1810.768188476562
47, 0, 0, 1775.68701171875
48, 0, 0, 1745.88232421875
49, 0, 0, 1716.863403320312
50, 0, 0, 1690.460205078125
51, 0, 0, 1662.220458984375
52, 0, 0, 1649.548706054688
53, 0, 0, 1624.362182617188
54, 0, 0, 1594.811401367188
55, 0, 0, 1569.289306640625
56, 0, 0, 1556.060668945312
57, 0, 0, 1534.2744140625
58, 0, 0, 1513.119995117188
59, 0, 0, 1495.732177734375
60, 0, 0, 1477.945678710938
61, 0, 0, 1467.25439453125
62, 0, 0, 1440.771240234375
63, 0, 0, 1437.881225585938
64, 0, 0, 1411.976318359375
65, 0, 0, 1404.470092773438
66, 0, 0, 1391.4541015625
67, 0, 0, 1381.0078125
68, 0, 0, 1363.94140625
69, 0, 0, 1351.262084960938
70, 0, 0, 1341.65185546875
71, 0, 0, 1325.789794921875
72, 0, 0, 1320.530151367188
73, 0, 0, 1307.415283203125
74, 0, 0, 1292.75634765625
75, 0, 0, 1281.731689453125
76, 0, 0, 1279.268920898438
77, 0, 0, 1271.1259765625
78, 0, 0, 1253.676513671875
79, 0, 0, 1243.091430664062
80, 0, 0, 1240.8359375
81, 0, 0, 1224.854736328125
82, 0, 0, 1214.663818359375
83, 0, 0, 1215.213012695312
84, 0, 0, 1203.711669921875
85, 0, 0, 1199.412475585938
86, 0, 0, 1189.437377929688
87, 0, 0, 1175.963012695312
88, 0, 0, 1182.582275390625
89, 0, 0, 1167.589965820312
90, 0, 0, 1155.440307617188
91, 0, 0, 1158.027954101562
92, 0, 0, 1150.2802734375
93, 0, 0, 1134.470947265625
94, 0, 0, 1138.162963867188
95, 0, 0, 1122.790161132812
96, 0, 0, 1117.4130859375
97, 0, 0, 1107.508056640625
98, 0, 0, 1105.9453125
99, 0, 0, 1103.744750976562
100, 0, 0, 1098.898071289062
101, 0, 0, 1088.843383789062
102, 0, 0, 1081.027221679688
103, 0, 0, 1077.546875
104, 0, 0, 1075.206420898438
105, 0, 0, 1074.689208984375
106, 0, 0, 1065.263549804688
107, 0, 0, 1057.26123046875
108, 0, 0, 1055.778076171875
109, 0, 0, 1047.416015625
110, 0, 0, 1042.647827148438
111, 0, 0, 1034.137817382812
112, 0, 0, 1030.5927734375
113, 0, 0, 1039.285400390625
114, 0, 0, 1027.572021484375
115, 0, 0, 1020.209777832031
116, 0, 0, 1011.824951171875
117, 0, 0, 1018.008056640625
118, 0, 0, 1007.238891601562
119, 0, 0, 1009.978210449219
120, 0, 0, 1010.226806640625
121, 0, 0, 1002.212646484375
122, 0, 0, 986.4057006835938
123, 0, 0, 993.4942016601562
124, 0, 0, 981.03125
125, 0, 0, 978.2823486328125
126, 0, 0, 973.3689575195312
127, 0, 0, 972.0199584960938
128, 0, 0, 969.6199340820312
129, 0, 0, 963.0615844726562
130, 0, 0, 957.1900634765625
131, 0, 0, 965.2413940429688
132, 0, 0, 956.0107421875
133, 0, 0, 946.4829711914062
134, 0, 0, 955.079345703125
135, 0, 0, 945.8356323242188
136, 0, 0, 945.6329345703125
137, 0, 0, 941.399658203125
138, 0, 0, 929.7247924804688
139, 0, 0, 932.8447875976562
140, 0, 0, 929.736083984375
141, 0, 0, 924.8181762695312
142, 0, 0, 927.2045288085938
143, 0, 0, 916.9070434570312
144, 0, 0, 921.7413940429688
145, 0, 0, 912.9590454101562
146, 0, 0, 919.870361328125
147, 0, 0, 916.7230834960938
148, 0, 0, 904.8251953125
149, 0, 0, 908.4595336914062
150, 0, 0, 902.349853515625
151, 0, 0, 902.4816284179688
152, 0, 0, 900.861328125
153, 0, 0, 897.1905517578125
154, 0, 0, 886.7416381835938
155, 0, 0, 889.9581298828125
156, 0, 0, 886.8665161132812
157, 0, 0, 890.7352294921875
158, 0, 0, 883.5430297851562
159, 0, 0, 878.0618896484375
160, 0, 0, 876.8706665039062
161, 0, 0, 875.1213989257812
162, 0, 0, 873.4658813476562
163, 0, 0, 867.957275390625
164, 0, 0, 865.3455200195312
