# TOPAS Version: 3.3.p1
# Parameter File: Test.txt
# Results for scorer MLIC_Scorer
# Scored in component: MLIC
# X in 180 bins of 0.177778 cm
# Y in 1 bin  of 10 cm
# Z in 1 bin  of 10 cm
# EnergyDeposit ( MeV ) : Sum   
0, 0, 0, 0
1, 0, 0, 0
2, 0, 0, 0
3, 0, 0, 0
4, 0, 0, 0
5, 0, 0, 0
6, 0, 0, 0
7, 0, 0, 0
8, 0, 0, 0
9, 0, 0, 0
10, 0, 0, 0
11, 0, 0, 0
12, 0, 0, 0
13, 0, 0, 0
14, 0, 0, 0
15, 0, 0, 0
16, 0, 0, 0
17, 0, 0, 0
18, 0, 0, 0
19, 0, 0, 0
20, 0, 0, 0
21, 0, 0, 0
22, 0, 0, 0
23, 0, 0, 0
24, 0, 0, 0.01339790318161249
25, 0, 0, 0
26, 0, 0, 0
27, 0, 0, 0
28, 0, 0, 0
29, 0, 0, 0.03031336702406406
30, 0, 0, 0
31, 0, 0, 0
32, 0, 0, 0.008787133730947971
33, 0, 0, 0
34, 0, 0, 0
35, 0, 0, 0
36, 0, 0, 0
37, 0, 0, 10.51209831237793
38, 0, 0, 17.6338996887207
39, 0, 0, 120.9680404663086
40, 0, 0, 435.0671081542969
41, 0, 0, 1287.630004882812
42, 0, 0, 2648.23974609375
43, 0, 0, 3970.2666015625
44, 0, 0, 4994.90283203125
45, 0, 0, 5024.84228515625
46, 0, 0, 4612.52197265625
47, 0, 0, 4058.949951171875
48, 0, 0, 3575.385498046875
49, 0, 0, 3230.323486328125
50, 0, 0, 2958.23583984375
51, 0, 0, 2769.714111328125
52, 0, 0, 2614.044189453125
53, 0, 0, 2476.601318359375
54, 0, 0, 2369.6884765625
55, 0, 0, 2279.43017578125
56, 0, 0, 2193.883544921875
57, 0, 0, 2121.426513671875
58, 0, 0, 2055.821533203125
59, 0, 0, 1992.903442382812
60, 0, 0, 1943.235473632812
61, 0, 0, 1903.789672851562
62, 0, 0, 1853.533935546875
63, 0, 0, 1810.693115234375
64, 0, 0, 1772.873657226562
65, 0, 0, 1734.13818359375
66, 0, 0, 1701.496704101562
67, 0, 0, 1667.799560546875
68, 0, 0, 1638.54736328125
69, 0, 0, 1618.258178710938
70, 0, 0, 1580.503540039062
71, 0, 0, 1565.038818359375
72, 0, 0, 1529.090087890625
73, 0, 0, 1519.378295898438
74, 0, 0, 1489.977172851562
75, 0, 0, 1468.723999023438
76, 0, 0, 1456.881591796875
77, 0, 0, 1440.078369140625
78, 0, 0, 1414.998901367188
79, 0, 0, 1396.982299804688
80, 0, 0, 1386.081298828125
81, 0, 0, 1360.807983398438
82, 0, 0, 1348.465209960938
83, 0, 0, 1339.83251953125
84, 0, 0, 1320.514404296875
85, 0, 0, 1313.777587890625
86, 0, 0, 1300.166381835938
87, 0, 0, 1282.373901367188
88, 0, 0, 1279.650146484375
89, 0, 0, 1266.707153320312
90, 0, 0, 1250.641357421875
91, 0, 0, 1239.828247070312
92, 0, 0, 1237.780517578125
93, 0, 0, 1212.243774414062
94, 0, 0, 1209.141479492188
95, 0, 0, 1202.941528320312
96, 0, 0, 1181.631103515625
97, 0, 0, 1181.53662109375
98, 0, 0, 1172.45068359375
99, 0, 0, 1156.368774414062
100, 0, 0, 1153.853271484375
101, 0, 0, 1148.005493164062
102, 0, 0, 1141.15283203125
103, 0, 0, 1135.876098632812
104, 0, 0, 1124.096923828125
105, 0, 0, 1122.98876953125
106, 0, 0, 1107.931396484375
107, 0, 0, 1093.312866210938
108, 0, 0, 1087.433471679688
109, 0, 0, 1083.024291992188
110, 0, 0, 1084.447143554688
111, 0, 0, 1077.703002929688
112, 0, 0, 1059.892333984375
113, 0, 0, 1061.66015625
114, 0, 0, 1054.7353515625
115, 0, 0, 1051.223876953125
116, 0, 0, 1043.005981445312
117, 0, 0, 1031.795776367188
118, 0, 0, 1026.111694335938
119, 0, 0, 1027.3798828125
120, 0, 0, 1023.994445800781
121, 0, 0, 1014.238647460938
122, 0, 0, 1003.766540527344
123, 0, 0, 1010.677368164062
124, 0, 0, 1001.836608886719
125, 0, 0, 1003.948608398438
126, 0, 0, 985.1849975585938
127, 0, 0, 988.9796752929688
128, 0, 0, 977.1541137695312
129, 0, 0, 979.4757690429688
130, 0, 0, 973.9033203125
131, 0, 0, 970.5640258789062
132, 0, 0, 969.2659912109375
133, 0, 0, 960.1473388671875
134, 0, 0, 958.8790893554688
135, 0, 0, 951.6550903320312
136, 0, 0, 943.1567993164062
137, 0, 0, 942.7618408203125
138, 0, 0, 943.8286743164062
139, 0, 0, 934.2241821289062
140, 0, 0, 933.4215698242188
141, 0, 0, 924.201904296875
142, 0, 0, 930.364990234375
143, 0, 0, 921.4972534179688
144, 0, 0, 921.4407348632812
145, 0, 0, 910.7146606445312
146, 0, 0, 909.271728515625
147, 0, 0, 901.83349609375
148, 0, 0, 901.0061645507812
149, 0, 0, 891.4171752929688
150, 0, 0, 895.4962768554688
151, 0, 0, 893.2916259765625
152, 0, 0, 892.4786376953125
153, 0, 0, 891.3117065429688
154, 0, 0, 880.7625122070312
155, 0, 0, 881.2743530273438
156, 0, 0, 876.6956176757812
157, 0, 0, 875.283447265625
158, 0, 0, 876.0231323242188
159, 0, 0, 869.4535522460938
160, 0, 0, 867.0624389648438
161, 0, 0, 863.8217163085938
162, 0, 0, 860.2317504882812
163, 0, 0, 865.7388916015625
164, 0, 0, 857.2366943359375
165, 0, 0, 846.6451416015625
166, 0, 0, 848.4808959960938
167, 0, 0, 848.2152099609375
168, 0, 0, 840.6152954101562
169, 0, 0, 841.0813598632812
170, 0, 0, 838.198486328125
171, 0, 0, 840.1480102539062
172, 0, 0, 827.8592529296875
173, 0, 0, 831.5032958984375
174, 0, 0, 836.0292358398438
175, 0, 0, 829.8684692382812
176, 0, 0, 824.5145263671875
177, 0, 0, 823.0634155273438
178, 0, 0, 818.5883178710938
179, 0, 0, 821.9508056640625
