# TOPAS Version: 3.3.p1
# Parameter File: Test.txt
# Results for scorer MLIC_Scorer
# Scored in component: MLIC
# X in 180 bins of 0.183333 cm
# Y in 1 bin  of 10 cm
# Z in 1 bin  of 10 cm
# EnergyDeposit ( MeV ) : Sum   
0, 0, 0, 0
1, 0, 0, 0
2, 0, 0, 0
3, 0, 0, 0
4, 0, 0, 0
5, 0, 0, 0
6, 0, 0, 0
7, 0, 0, 0
8, 0, 0, 0
9, 0, 0, 0
10, 0, 0, 0
11, 0, 0, 0
12, 0, 0, 0
13, 0, 0, 0
14, 0, 0, 0
15, 0, 0, 0
16, 0, 0, 0
17, 0, 0, 0
18, 0, 0, 0
19, 0, 0, 0
20, 0, 0, 0
21, 0, 0, 0
22, 0, 0, 0
23, 0, 0, 0
24, 0, 0, 0
25, 0, 0, 0
26, 0, 0, 0
27, 0, 0, 0
28, 0, 0, 0
29, 0, 0, 0
30, 0, 0, 0
31, 0, 0, 0
32, 0, 0, 0
33, 0, 0, 0
34, 0, 0, 0
35, 0, 0, 0
36, 0, 0, 0
37, 0, 0, 0
38, 0, 0, 0
39, 0, 0, 0
40, 0, 0, 0.03634913265705109
41, 0, 0, 0
42, 0, 0, 0
43, 0, 0, 0
44, 0, 0, 0
45, 0, 0, 0.001772240968421102
46, 0, 0, 0
47, 0, 0, 0
48, 0, 0, 0
49, 0, 0, 0
50, 0, 0, 0
51, 0, 0, 0.00403953529894352
52, 0, 0, 0
53, 0, 0, 0
54, 0, 0, 0.0293234009295702
55, 0, 0, 0
56, 0, 0, 0
57, 0, 0, 0.002862144028767943
58, 0, 0, 0
59, 0, 0, 0
60, 0, 0, 0
61, 0, 0, 0
62, 0, 0, 0
63, 0, 0, 0
64, 0, 0, 0
65, 0, 0, 0
66, 0, 0, 5.67796802520752
67, 0, 0, 38.59457015991211
68, 0, 0, 93.97355651855469
69, 0, 0, 536.5803833007812
70, 0, 0, 1237.192749023438
71, 0, 0, 2362.947509765625
72, 0, 0, 4130.22265625
73, 0, 0, 4973.99365234375
74, 0, 0, 5291.251953125
75, 0, 0, 4759.04443359375
76, 0, 0, 4181.11572265625
77, 0, 0, 3650.215087890625
78, 0, 0, 3270.84130859375
79, 0, 0, 3005.283203125
80, 0, 0, 2813.53369140625
81, 0, 0, 2660.84228515625
82, 0, 0, 2530.569580078125
83, 0, 0, 2418.197265625
84, 0, 0, 2321.759033203125
85, 0, 0, 2235.837158203125
86, 0, 0, 2158.898193359375
87, 0, 0, 2096.329345703125
88, 0, 0, 2031.359741210938
89, 0, 0, 1987.192993164062
90, 0, 0, 1932.6552734375
91, 0, 0, 1889.610107421875
92, 0, 0, 1837.682739257812
93, 0, 0, 1805.535766601562
94, 0, 0, 1765.675170898438
95, 0, 0, 1731.737670898438
96, 0, 0, 1695.150634765625
97, 0, 0, 1660.321533203125
98, 0, 0, 1641.339721679688
99, 0, 0, 1622.907470703125
100, 0, 0, 1592.54296875
101, 0, 0, 1566.822265625
102, 0, 0, 1543.930419921875
103, 0, 0, 1521.61669921875
104, 0, 0, 1502.302368164062
105, 0, 0, 1482.172729492188
106, 0, 0, 1463.643188476562
107, 0, 0, 1443.249755859375
108, 0, 0, 1429.737915039062
109, 0, 0, 1410.238403320312
110, 0, 0, 1391.90576171875
111, 0, 0, 1381.224731445312
112, 0, 0, 1370.19189453125
113, 0, 0, 1352.419921875
114, 0, 0, 1340.55078125
115, 0, 0, 1322.699584960938
116, 0, 0, 1309.035400390625
117, 0, 0, 1298.264892578125
118, 0, 0, 1284.41064453125
119, 0, 0, 1281.33056640625
120, 0, 0, 1271.162475585938
121, 0, 0, 1250.896362304688
122, 0, 0, 1236.784301757812
123, 0, 0, 1229.82763671875
124, 0, 0, 1218.439086914062
125, 0, 0, 1217.512573242188
126, 0, 0, 1200.647216796875
127, 0, 0, 1193.065795898438
128, 0, 0, 1182.765869140625
129, 0, 0, 1172.13671875
130, 0, 0, 1161.035888671875
131, 0, 0, 1158.118896484375
132, 0, 0, 1143.459228515625
133, 0, 0, 1138.99462890625
134, 0, 0, 1130.7119140625
135, 0, 0, 1129.375610351562
136, 0, 0, 1112.886840820312
137, 0, 0, 1117.334594726562
138, 0, 0, 1097.69873046875
139, 0, 0, 1107.052490234375
140, 0, 0, 1090.824584960938
141, 0, 0, 1081.728515625
142, 0, 0, 1075.2998046875
143, 0, 0, 1077.526733398438
144, 0, 0, 1075.068725585938
145, 0, 0, 1058.782958984375
146, 0, 0, 1057.579223632812
147, 0, 0, 1049.8466796875
148, 0, 0, 1046.710571289062
149, 0, 0, 1029.1279296875
150, 0, 0, 1030.645385742188
151, 0, 0, 1032.757690429688
152, 0, 0, 1028.954467773438
153, 0, 0, 1017.671875
154, 0, 0, 1010.700317382812
155, 0, 0, 1011.146484375
156, 0, 0, 1003.708190917969
157, 0, 0, 1009.094970703125
158, 0, 0, 992.9612426757812
159, 0, 0, 993.751220703125
160, 0, 0, 988.808837890625
161, 0, 0, 980.435546875
162, 0, 0, 978.1497192382812
163, 0, 0, 971.819580078125
164, 0, 0, 966.9053955078125
165, 0, 0, 961.5050048828125
166, 0, 0, 964.1688232421875
167, 0, 0, 957.2963256835938
168, 0, 0, 954.2658081054688
169, 0, 0, 948.337646484375
170, 0, 0, 940.325439453125
171, 0, 0, 947.2072143554688
172, 0, 0, 938.234130859375
173, 0, 0, 929.942626953125
174, 0, 0, 926.464599609375
175, 0, 0, 927.8150634765625
176, 0, 0, 925.478515625
177, 0, 0, 922.1267700195312
178, 0, 0, 910.2864379882812
179, 0, 0, 917.2484130859375
