# TOPAS Version: 3.3.p1
# Parameter File: Test.txt
# Results for scorer MLIC_Scorer
# Scored in component: MLIC
# X in 180 bins of 0.177778 cm
# Y in 1 bin  of 10 cm
# Z in 1 bin  of 10 cm
# EnergyDeposit ( MeV ) : Sum   
0, 0, 0, 0
1, 0, 0, 0
2, 0, 0, 0
3, 0, 0, 0
4, 0, 0, 0
5, 0, 0, 0
6, 0, 0, 0
7, 0, 0, 0
8, 0, 0, 0
9, 0, 0, 0
10, 0, 0, 0
11, 0, 0, 0
12, 0, 0, 0
13, 0, 0, 0
14, 0, 0, 0
15, 0, 0, 0
16, 0, 0, 0
17, 0, 0, 0
18, 0, 0, 0
19, 0, 0, 0
20, 0, 0, 0
21, 0, 0, 0
22, 0, 0, 0
23, 0, 0, 0
24, 0, 0, 0
25, 0, 0, 0
26, 0, 0, 0
27, 0, 0, 0
28, 0, 0, 0
29, 0, 0, 0
30, 0, 0, 0
31, 0, 0, 0
32, 0, 0, 0
33, 0, 0, 0
34, 0, 0, 0
35, 0, 0, 0
36, 0, 0, 0
37, 0, 0, 0
38, 0, 0, 0
39, 0, 0, 0
40, 0, 0, 0
41, 0, 0, 0
42, 0, 0, 0
43, 0, 0, 0
44, 0, 0, 0
45, 0, 0, 0
46, 0, 0, 0
47, 0, 0, 0
48, 0, 0, 0
49, 0, 0, 0
50, 0, 0, 0
51, 0, 0, 0
52, 0, 0, 0
53, 0, 0, 0
54, 0, 0, 0
55, 0, 0, 0
56, 0, 0, 0
57, 0, 0, 0
58, 0, 0, 0
59, 0, 0, 0
60, 0, 0, 0
61, 0, 0, 0
62, 0, 0, 0
63, 0, 0, 0
64, 0, 0, 0
65, 0, 0, 0
66, 0, 0, 0
67, 0, 0, 0
68, 0, 0, 0
69, 0, 0, 0
70, 0, 0, 0
71, 0, 0, 0
72, 0, 0, 0
73, 0, 0, 0
74, 0, 0, 0
75, 0, 0, 0
76, 0, 0, 0
77, 0, 0, 0
78, 0, 0, 0
79, 0, 0, 0
80, 0, 0, 0
81, 0, 0, 0
82, 0, 0, 0
83, 0, 0, 0
84, 0, 0, 0
85, 0, 0, 0
86, 0, 0, 0
87, 0, 0, 0
88, 0, 0, 0
89, 0, 0, 0
90, 0, 0, 0
91, 0, 0, 0
92, 0, 0, 0
93, 0, 0, 0
94, 0, 0, 0
95, 0, 0, 0
96, 0, 0, 0
97, 0, 0, 0
98, 0, 0, 0
99, 0, 0, 0
100, 0, 0, 0
101, 0, 0, 0
102, 0, 0, 0
103, 0, 0, 0
104, 0, 0, 0
105, 0, 0, 0
106, 0, 0, 0
107, 0, 0, 0
108, 0, 0, 0
109, 0, 0, 0
110, 0, 0, 0
111, 0, 0, 0
112, 0, 0, 0
113, 0, 0, 0
114, 0, 0, 0
115, 0, 0, 0.01472602970898151
116, 0, 0, 0
117, 0, 0, 0.001164055080153048
118, 0, 0, 0
119, 0, 0, 0
120, 0, 0, 0
121, 0, 0, 0
122, 0, 0, 0
123, 0, 0, 0
124, 0, 0, 0
125, 0, 0, 0
126, 0, 0, 0
127, 0, 0, 0
128, 0, 0, 0
129, 0, 0, 0.01827011816203594
130, 0, 0, 0
131, 0, 0, 0
132, 0, 0, 0
133, 0, 0, 0
134, 0, 0, 4.641629695892334
135, 0, 0, 55.16308212280273
136, 0, 0, 230.4094085693359
137, 0, 0, 868.2388305664062
138, 0, 0, 2100.91162109375
139, 0, 0, 3382.099365234375
140, 0, 0, 4606.126953125
141, 0, 0, 5120.21142578125
142, 0, 0, 4846.78125
143, 0, 0, 4260.3505859375
144, 0, 0, 3771.03662109375
145, 0, 0, 3360.10595703125
146, 0, 0, 3084.348388671875
147, 0, 0, 2855.864990234375
148, 0, 0, 2687.842041015625
149, 0, 0, 2543.39404296875
150, 0, 0, 2417.21533203125
151, 0, 0, 2316.282958984375
152, 0, 0, 2231.121826171875
153, 0, 0, 2150.6748046875
154, 0, 0, 2088.802978515625
155, 0, 0, 2025.824462890625
156, 0, 0, 1969.279907226562
157, 0, 0, 1914.114624023438
158, 0, 0, 1870.564331054688
159, 0, 0, 1831.433471679688
160, 0, 0, 1783.613525390625
161, 0, 0, 1743.696899414062
162, 0, 0, 1717.328002929688
163, 0, 0, 1688.371215820312
164, 0, 0, 1648.77587890625
165, 0, 0, 1617.198120117188
166, 0, 0, 1603.989013671875
167, 0, 0, 1572.475708007812
168, 0, 0, 1545.168701171875
169, 0, 0, 1529.810546875
170, 0, 0, 1498.644775390625
171, 0, 0, 1479.52392578125
172, 0, 0, 1459.22900390625
173, 0, 0, 1450.396118164062
174, 0, 0, 1429.863159179688
175, 0, 0, 1406.798583984375
176, 0, 0, 1396.170654296875
177, 0, 0, 1379.988159179688
178, 0, 0, 1357.197387695312
179, 0, 0, 1348.7900390625
