# TOPAS Version: 3.3.p1
# Parameter File: Test.txt
# Results for scorer MLIC_Scorer
# Scored in component: MLIC
# X in 165 bins of 0.2 cm
# Y in 1 bin  of 10 cm
# Z in 1 bin  of 10 cm
# EnergyDeposit ( MeV ) : Sum   
0, 0, 0, 0
1, 0, 0, 0
2, 0, 0, 0
3, 0, 0, 0
4, 0, 0, 0
5, 0, 0, 0
6, 0, 0, 0
7, 0, 0, 0
8, 0, 0, 0
9, 0, 0, 0
10, 0, 0, 0
11, 0, 0, 0
12, 0, 0, 0
13, 0, 0, 0
14, 0, 0, 0
15, 0, 0, 0
16, 0, 0, 0
17, 0, 0, 0
18, 0, 0, 0
19, 0, 0, 0
20, 0, 0, 0
21, 0, 0, 0
22, 0, 0, 0
23, 0, 0, 0
24, 0, 0, 0
25, 0, 0, 0
26, 0, 0, 0
27, 0, 0, 0
28, 0, 0, 0
29, 0, 0, 0
30, 0, 0, 0
31, 0, 0, 0
32, 0, 0, 0
33, 0, 0, 0
34, 0, 0, 0
35, 0, 0, 0
36, 0, 0, 0
37, 0, 0, 0
38, 0, 0, 0
39, 0, 0, 0
40, 0, 0, 0
41, 0, 0, 0
42, 0, 0, 0
43, 0, 0, 0
44, 0, 0, 0
45, 0, 0, 0
46, 0, 0, 0
47, 0, 0, 0
48, 0, 0, 0
49, 0, 0, 0
50, 0, 0, 0
51, 0, 0, 0
52, 0, 0, 0
53, 0, 0, 0
54, 0, 0, 0
55, 0, 0, 0
56, 0, 0, 0
57, 0, 0, 0
58, 0, 0, 0
59, 0, 0, 0
60, 0, 0, 0
61, 0, 0, 0
62, 0, 0, 0
63, 0, 0, 0
64, 0, 0, 0
65, 0, 0, 0
66, 0, 0, 0
67, 0, 0, 0
68, 0, 0, 0
69, 0, 0, 0
70, 0, 0, 0
71, 0, 0, 0
72, 0, 0, 0
73, 0, 0, 0
74, 0, 0, 0
75, 0, 0, 0
76, 0, 0, 0
77, 0, 0, 0
78, 0, 0, 0
79, 0, 0, 0
80, 0, 0, 0
81, 0, 0, 0
82, 0, 0, 0
83, 0, 0, 0
84, 0, 0, 0
85, 0, 0, 0
86, 0, 0, 0
87, 0, 0, 0
88, 0, 0, 0
89, 0, 0, 0
90, 0, 0, 13.93537330627441
91, 0, 0, 138.3501434326172
92, 0, 0, 356.5312194824219
93, 0, 0, 1162.822631835938
94, 0, 0, 2884.87255859375
95, 0, 0, 4571.03564453125
96, 0, 0, 5439.43798828125
97, 0, 0, 5392.3056640625
98, 0, 0, 4959.720703125
99, 0, 0, 4304.99853515625
100, 0, 0, 3792.75146484375
101, 0, 0, 3411.208740234375
102, 0, 0, 3145.029541015625
103, 0, 0, 2945.29638671875
104, 0, 0, 2778.497802734375
105, 0, 0, 2647.06103515625
106, 0, 0, 2534.34716796875
107, 0, 0, 2428.64013671875
108, 0, 0, 2332.766845703125
109, 0, 0, 2268.268798828125
110, 0, 0, 2190.56103515625
111, 0, 0, 2129.88134765625
112, 0, 0, 2077.44140625
113, 0, 0, 2014.937255859375
114, 0, 0, 1982.536743164062
115, 0, 0, 1939.748779296875
116, 0, 0, 1892.281494140625
117, 0, 0, 1849.471557617188
118, 0, 0, 1821.565307617188
119, 0, 0, 1787.867797851562
120, 0, 0, 1750.802978515625
121, 0, 0, 1726.946899414062
122, 0, 0, 1690.288818359375
123, 0, 0, 1672.089233398438
124, 0, 0, 1653.925903320312
125, 0, 0, 1619.921020507812
126, 0, 0, 1602.63623046875
127, 0, 0, 1582.437377929688
128, 0, 0, 1556.381469726562
129, 0, 0, 1537.929809570312
130, 0, 0, 1522.3701171875
131, 0, 0, 1491.101684570312
132, 0, 0, 1478.606811523438
133, 0, 0, 1476.135131835938
134, 0, 0, 1452.067504882812
135, 0, 0, 1438.198608398438
136, 0, 0, 1423.422973632812
137, 0, 0, 1416.578247070312
138, 0, 0, 1392.474853515625
139, 0, 0, 1383.796142578125
140, 0, 0, 1363.023681640625
141, 0, 0, 1351.868286132812
142, 0, 0, 1346.138305664062
143, 0, 0, 1331.406982421875
144, 0, 0, 1322.4697265625
145, 0, 0, 1306.1533203125
146, 0, 0, 1288.027709960938
147, 0, 0, 1284.62255859375
148, 0, 0, 1268.139038085938
149, 0, 0, 1270.918823242188
150, 0, 0, 1253.995727539062
151, 0, 0, 1249.912231445312
152, 0, 0, 1239.983276367188
153, 0, 0, 1231.406005859375
154, 0, 0, 1230.117919921875
155, 0, 0, 1209.305297851562
156, 0, 0, 1205.950927734375
157, 0, 0, 1195.94775390625
158, 0, 0, 1191.4326171875
159, 0, 0, 1181.542236328125
160, 0, 0, 1176.598999023438
161, 0, 0, 1164.786376953125
162, 0, 0, 1153.015991210938
163, 0, 0, 1147.496337890625
164, 0, 0, 1150.569213867188
