# TOPAS Version: 3.3.p1
# Parameter File: Test.txt
# Results for scorer MLIC_Scorer
# Scored in component: MLIC
# X in 180 bins of 0.177778 cm
# Y in 1 bin  of 10 cm
# Z in 1 bin  of 10 cm
# EnergyDeposit ( MeV ) : Sum   
0, 0, 0, 0
1, 0, 0, 0
2, 0, 0, 0
3, 0, 0, 0
4, 0, 0, 0
5, 0, 0, 0
6, 0, 0, 0
7, 0, 0, 0
8, 0, 0, 0
9, 0, 0, 0
10, 0, 0, 0
11, 0, 0, 0
12, 0, 0, 0
13, 0, 0, 0
14, 0, 0, 0
15, 0, 0, 0
16, 0, 0, 0
17, 0, 0, 0
18, 0, 0, 0
19, 0, 0, 0
20, 0, 0, 0
21, 0, 0, 0
22, 0, 0, 0
23, 0, 0, 0
24, 0, 0, 0
25, 0, 0, 0
26, 0, 0, 0
27, 0, 0, 0
28, 0, 0, 0
29, 0, 0, 0
30, 0, 0, 0
31, 0, 0, 0
32, 0, 0, 0
33, 0, 0, 0
34, 0, 0, 0
35, 0, 0, 0
36, 0, 0, 0
37, 0, 0, 0
38, 0, 0, 0
39, 0, 0, 0
40, 0, 0, 0
41, 0, 0, 0
42, 0, 0, 0
43, 0, 0, 0
44, 0, 0, 0
45, 0, 0, 0
46, 0, 0, 0
47, 0, 0, 0
48, 0, 0, 0
49, 0, 0, 0
50, 0, 0, 0
51, 0, 0, 0
52, 0, 0, 0
53, 0, 0, 0
54, 0, 0, 0
55, 0, 0, 0
56, 0, 0, 0
57, 0, 0, 0
58, 0, 0, 0
59, 0, 0, 0
60, 0, 0, 0
61, 0, 0, 0.005527439061552286
62, 0, 0, 0
63, 0, 0, 0.003962882328778505
64, 0, 0, 0
65, 0, 0, 0
66, 0, 0, 0
67, 0, 0, 0
68, 0, 0, 0
69, 0, 0, 0
70, 0, 0, 0
71, 0, 0, 0
72, 0, 0, 0
73, 0, 0, 0
74, 0, 0, 0
75, 0, 0, 0
76, 0, 0, 0
77, 0, 0, 0
78, 0, 0, 0
79, 0, 0, 0
80, 0, 0, 0
81, 0, 0, 0
82, 0, 0, 46.86917114257812
83, 0, 0, 214.0966796875
84, 0, 0, 765.0975952148438
85, 0, 0, 1852.145385742188
86, 0, 0, 3012.88525390625
87, 0, 0, 4216.091796875
88, 0, 0, 4858.5244140625
89, 0, 0, 4981.7333984375
90, 0, 0, 4464.787109375
91, 0, 0, 3933.449462890625
92, 0, 0, 3469.866455078125
93, 0, 0, 3129.173828125
94, 0, 0, 2892.174072265625
95, 0, 0, 2717.936279296875
96, 0, 0, 2576.844970703125
97, 0, 0, 2455.813720703125
98, 0, 0, 2345.085693359375
99, 0, 0, 2257.63671875
100, 0, 0, 2175.3955078125
101, 0, 0, 2100.83544921875
102, 0, 0, 2039.748291015625
103, 0, 0, 1980.752197265625
104, 0, 0, 1930.856079101562
105, 0, 0, 1883.730590820312
106, 0, 0, 1842.664306640625
107, 0, 0, 1806.81591796875
108, 0, 0, 1753.6923828125
109, 0, 0, 1728.251708984375
110, 0, 0, 1695.155517578125
111, 0, 0, 1654.474975585938
112, 0, 0, 1627.412231445312
113, 0, 0, 1604.8876953125
114, 0, 0, 1574.777954101562
115, 0, 0, 1557.218872070312
116, 0, 0, 1527.474731445312
117, 0, 0, 1511.209838867188
118, 0, 0, 1485.162109375
119, 0, 0, 1463.681396484375
120, 0, 0, 1451.678344726562
121, 0, 0, 1425.369995117188
122, 0, 0, 1407.568481445312
123, 0, 0, 1390.655395507812
124, 0, 0, 1375.505981445312
125, 0, 0, 1362.305908203125
126, 0, 0, 1344.197021484375
127, 0, 0, 1331.983276367188
128, 0, 0, 1320.033569335938
129, 0, 0, 1304.381225585938
130, 0, 0, 1295.613891601562
131, 0, 0, 1286.71630859375
132, 0, 0, 1267.318115234375
133, 0, 0, 1254.693725585938
134, 0, 0, 1248.396362304688
135, 0, 0, 1229.751953125
136, 0, 0, 1227.9169921875
137, 0, 0, 1217.048950195312
138, 0, 0, 1204.817504882812
139, 0, 0, 1193.810424804688
140, 0, 0, 1190.798095703125
141, 0, 0, 1174.5625
142, 0, 0, 1167.505126953125
143, 0, 0, 1157.172607421875
144, 0, 0, 1151.839721679688
145, 0, 0, 1145.582885742188
146, 0, 0, 1126.305786132812
147, 0, 0, 1129.028686523438
148, 0, 0, 1122.34375
149, 0, 0, 1116.177856445312
150, 0, 0, 1107.038696289062
151, 0, 0, 1099.78076171875
152, 0, 0, 1088.940795898438
153, 0, 0, 1087.297241210938
154, 0, 0, 1087.401000976562
155, 0, 0, 1068.449584960938
156, 0, 0, 1061.5849609375
157, 0, 0, 1061.989379882812
158, 0, 0, 1048.080810546875
159, 0, 0, 1045.737182617188
160, 0, 0, 1040.677001953125
161, 0, 0, 1032.724243164062
162, 0, 0, 1023.726623535156
163, 0, 0, 1024.850708007812
164, 0, 0, 1011.837463378906
165, 0, 0, 1017.360595703125
166, 0, 0, 1011.029296875
167, 0, 0, 1007.868408203125
168, 0, 0, 1001.869567871094
169, 0, 0, 998.7969360351562
170, 0, 0, 989.8382568359375
171, 0, 0, 981.7386474609375
172, 0, 0, 976.9412231445312
173, 0, 0, 969.9501342773438
174, 0, 0, 969.9152221679688
175, 0, 0, 977.4039306640625
176, 0, 0, 958.8793334960938
177, 0, 0, 957.8180541992188
178, 0, 0, 952.1393432617188
179, 0, 0, 953.789794921875
