# TOPAS Version: 3.3.p1
# Parameter File: Test.txt
# Results for scorer MLIC_Scorer
# Scored in component: MLIC
# X in 180 bins of 0.177778 cm
# Y in 1 bin  of 10 cm
# Z in 1 bin  of 10 cm
# EnergyDeposit ( MeV ) : Sum   
0, 0, 0, 0
1, 0, 0, 0
2, 0, 0, 0
3, 0, 0, 0
4, 0, 0, 0
5, 0, 0, 0
6, 0, 0, 0
7, 0, 0, 0
8, 0, 0, 0
9, 0, 0, 0
10, 0, 0, 0
11, 0, 0, 0
12, 0, 0, 0
13, 0, 0, 0
14, 0, 0, 0
15, 0, 0, 0
16, 0, 0, 0
17, 0, 0, 0
18, 0, 0, 0
19, 0, 0, 0
20, 0, 0, 0
21, 0, 0, 0
22, 0, 0, 0
23, 0, 0, 0
24, 0, 0, 0
25, 0, 0, 0
26, 0, 0, 0
27, 0, 0, 0
28, 0, 0, 0
29, 0, 0, 0
30, 0, 0, 0
31, 0, 0, 0
32, 0, 0, 0
33, 0, 0, 0
34, 0, 0, 0
35, 0, 0, 0
36, 0, 0, 0
37, 0, 0, 0
38, 0, 0, 0
39, 0, 0, 0
40, 0, 0, 0
41, 0, 0, 0
42, 0, 0, 0
43, 0, 0, 0
44, 0, 0, 0
45, 0, 0, 0
46, 0, 0, 0
47, 0, 0, 0
48, 0, 0, 0
49, 0, 0, 0
50, 0, 0, 0
51, 0, 0, 0
52, 0, 0, 0
53, 0, 0, 0
54, 0, 0, 0
55, 0, 0, 0
56, 0, 0, 0
57, 0, 0, 0
58, 0, 0, 0
59, 0, 0, 0
60, 0, 0, 0
61, 0, 0, 0
62, 0, 0, 0
63, 0, 0, 0
64, 0, 0, 0
65, 0, 0, 0
66, 0, 0, 0
67, 0, 0, 0
68, 0, 0, 0
69, 0, 0, 0
70, 0, 0, 0
71, 0, 0, 0
72, 0, 0, 0
73, 0, 0, 0
74, 0, 0, 0
75, 0, 0, 0
76, 0, 0, 0
77, 0, 0, 0
78, 0, 0, 0
79, 0, 0, 0
80, 0, 0, 0
81, 0, 0, 0
82, 0, 0, 0
83, 0, 0, 0
84, 0, 0, 0
85, 0, 0, 0
86, 0, 0, 0
87, 0, 0, 0
88, 0, 0, 0
89, 0, 0, 0
90, 0, 0, 0
91, 0, 0, 0.01034379843622446
92, 0, 0, 0
93, 0, 0, 0
94, 0, 0, 0
95, 0, 0, 0.004113561939448118
96, 0, 0, 0
97, 0, 0, 0.004603561013936996
98, 0, 0, 0
99, 0, 0, 0
100, 0, 0, 0.0479755811393261
101, 0, 0, 0
102, 0, 0, 0
103, 0, 0, 0
104, 0, 0, 0
105, 0, 0, 0
106, 0, 0, 0
107, 0, 0, 0
108, 0, 0, 0
109, 0, 0, 0
110, 0, 0, 0
111, 0, 0, 0
112, 0, 0, 0
113, 0, 0, 0
114, 0, 0, 0
115, 0, 0, 0
116, 0, 0, 0
117, 0, 0, 0
118, 0, 0, 0
119, 0, 0, 0
120, 0, 0, 0
121, 0, 0, 0
122, 0, 0, 17.47810935974121
123, 0, 0, 31.43268203735352
124, 0, 0, 121.2777557373047
125, 0, 0, 540.51806640625
126, 0, 0, 1252.322875976562
127, 0, 0, 2619.17724609375
128, 0, 0, 3977.939453125
129, 0, 0, 4904.76025390625
130, 0, 0, 5103.82958984375
131, 0, 0, 4642.8505859375
132, 0, 0, 4070.461669921875
133, 0, 0, 3573.458740234375
134, 0, 0, 3216.096435546875
135, 0, 0, 2964.90185546875
136, 0, 0, 2764.9677734375
137, 0, 0, 2607.5478515625
138, 0, 0, 2484.228271484375
139, 0, 0, 2374.49853515625
140, 0, 0, 2276.310791015625
141, 0, 0, 2196.05078125
142, 0, 0, 2123.93310546875
143, 0, 0, 2054.167724609375
144, 0, 0, 1999.497680664062
145, 0, 0, 1949.400634765625
146, 0, 0, 1893.47998046875
147, 0, 0, 1855.609008789062
148, 0, 0, 1813.0439453125
149, 0, 0, 1771.899291992188
150, 0, 0, 1738.029907226562
151, 0, 0, 1702.084106445312
152, 0, 0, 1665.038818359375
153, 0, 0, 1640.59423828125
154, 0, 0, 1609.5322265625
155, 0, 0, 1580.2919921875
156, 0, 0, 1553.998168945312
157, 0, 0, 1533.79541015625
158, 0, 0, 1516.291870117188
159, 0, 0, 1506.001098632812
160, 0, 0, 1464.242553710938
161, 0, 0, 1456.007934570312
162, 0, 0, 1440.200073242188
163, 0, 0, 1413.737915039062
164, 0, 0, 1397.708374023438
165, 0, 0, 1384.478759765625
166, 0, 0, 1362.724487304688
167, 0, 0, 1349.035766601562
168, 0, 0, 1340.656005859375
169, 0, 0, 1328.604736328125
170, 0, 0, 1312.134521484375
171, 0, 0, 1307.974365234375
172, 0, 0, 1290.454345703125
173, 0, 0, 1278.982299804688
174, 0, 0, 1258.169067382812
175, 0, 0, 1242.843383789062
176, 0, 0, 1248.625854492188
177, 0, 0, 1224.415405273438
178, 0, 0, 1216.607788085938
179, 0, 0, 1209.182373046875
