# TOPAS Version: 3.3.p1
# Parameter File: Test.txt
# Results for scorer MLIC_Scorer
# Scored in component: MLIC
# X in 180 bins of 0.177778 cm
# Y in 1 bin  of 10 cm
# Z in 1 bin  of 10 cm
# EnergyDeposit ( MeV ) : Sum   
0, 0, 0, 0
1, 0, 0, 0
2, 0, 0, 0
3, 0, 0, 0
4, 0, 0, 0
5, 0, 0, 0
6, 0, 0, 0
7, 0, 0, 0
8, 0, 0, 0
9, 0, 0, 0
10, 0, 0, 0
11, 0, 0, 0
12, 0, 0, 0
13, 0, 0, 0
14, 0, 0, 0
15, 0, 0, 0
16, 0, 0, 0
17, 0, 0, 0
18, 0, 0, 0
19, 0, 0, 0
20, 0, 0, 0
21, 0, 0, 0
22, 0, 0, 0
23, 0, 0, 0
24, 0, 0, 0
25, 0, 0, 0
26, 0, 0, 0
27, 0, 0, 0
28, 0, 0, 0
29, 0, 0, 0
30, 0, 0, 0
31, 0, 0, 0
32, 0, 0, 0
33, 0, 0, 0
34, 0, 0, 0
35, 0, 0, 0
36, 0, 0, 0
37, 0, 0, 0
38, 0, 0, 0
39, 0, 0, 0
40, 0, 0, 0
41, 0, 0, 0
42, 0, 0, 0
43, 0, 0, 0
44, 0, 0, 0
45, 0, 0, 0
46, 0, 0, 0
47, 0, 0, 0
48, 0, 0, 0
49, 0, 0, 0
50, 0, 0, 0
51, 0, 0, 0
52, 0, 0, 0
53, 0, 0, 0
54, 0, 0, 0
55, 0, 0, 0
56, 0, 0, 0
57, 0, 0, 0
58, 0, 0, 0
59, 0, 0, 0
60, 0, 0, 0
61, 0, 0, 0
62, 0, 0, 0
63, 0, 0, 0
64, 0, 0, 0
65, 0, 0, 0
66, 0, 0, 0
67, 0, 0, 0
68, 0, 0, 0
69, 0, 0, 0
70, 0, 0, 0
71, 0, 0, 0
72, 0, 0, 35.15316009521484
73, 0, 0, 61.69039154052734
74, 0, 0, 158.6770629882812
75, 0, 0, 296.2642822265625
76, 0, 0, 312.188720703125
77, 0, 0, 316.080322265625
78, 0, 0, 269.9660034179688
79, 0, 0, 226.2981414794922
80, 0, 0, 198.5733184814453
81, 0, 0, 182.5780792236328
82, 0, 0, 169.3508911132812
83, 0, 0, 160.1995697021484
84, 0, 0, 151.8533782958984
85, 0, 0, 144.9896545410156
86, 0, 0, 138.7162933349609
87, 0, 0, 135.0287322998047
88, 0, 0, 127.2615356445312
89, 0, 0, 126.0201873779297
90, 0, 0, 120.7511291503906
91, 0, 0, 117.8207321166992
92, 0, 0, 113.6131744384766
93, 0, 0, 111.3592834472656
94, 0, 0, 108.459602355957
95, 0, 0, 104.8330841064453
96, 0, 0, 102.7949752807617
97, 0, 0, 100.257453918457
98, 0, 0, 99.94825744628906
99, 0, 0, 100.1724014282227
100, 0, 0, 96.54290008544922
101, 0, 0, 93.26862335205078
102, 0, 0, 94.77808380126953
103, 0, 0, 92.98189544677734
104, 0, 0, 90.30516052246094
105, 0, 0, 88.725830078125
106, 0, 0, 88.34251403808594
107, 0, 0, 86.42660522460938
108, 0, 0, 88.32061004638672
109, 0, 0, 84.58378601074219
110, 0, 0, 80.91928100585938
111, 0, 0, 82.42821502685547
112, 0, 0, 81.12254333496094
113, 0, 0, 82.26491546630859
114, 0, 0, 79.31349945068359
115, 0, 0, 78.81671142578125
116, 0, 0, 77.87324523925781
117, 0, 0, 78.10807037353516
118, 0, 0, 75.71929931640625
119, 0, 0, 75.14971160888672
120, 0, 0, 75.42919921875
121, 0, 0, 75.07654571533203
122, 0, 0, 72.44276428222656
123, 0, 0, 74.49242401123047
124, 0, 0, 72.866943359375
125, 0, 0, 71.55192565917969
126, 0, 0, 72.33718109130859
127, 0, 0, 69.42271423339844
128, 0, 0, 72.01663970947266
129, 0, 0, 70.14546966552734
130, 0, 0, 68.75516510009766
131, 0, 0, 67.3817138671875
132, 0, 0, 69.63127899169922
133, 0, 0, 68.58353424072266
134, 0, 0, 67.04798126220703
135, 0, 0, 67.38673400878906
136, 0, 0, 67.02841186523438
137, 0, 0, 65.09384155273438
138, 0, 0, 65.58191680908203
139, 0, 0, 66.2315673828125
140, 0, 0, 64.53861999511719
141, 0, 0, 63.49731063842773
142, 0, 0, 64.72768402099609
143, 0, 0, 63.09829330444336
144, 0, 0, 62.90582275390625
145, 0, 0, 60.99004745483398
146, 0, 0, 63.13112258911133
147, 0, 0, 62.79621505737305
148, 0, 0, 60.3940315246582
149, 0, 0, 62.87719345092773
150, 0, 0, 60.69683837890625
151, 0, 0, 60.850830078125
152, 0, 0, 61.35579681396484
153, 0, 0, 58.74889755249023
154, 0, 0, 60.04848861694336
155, 0, 0, 59.94237518310547
156, 0, 0, 59.81913757324219
157, 0, 0, 58.13626098632812
158, 0, 0, 56.9610710144043
159, 0, 0, 58.92348098754883
160, 0, 0, 57.94678497314453
161, 0, 0, 57.3873405456543
162, 0, 0, 57.44088363647461
163, 0, 0, 58.2222900390625
164, 0, 0, 56.76991271972656
165, 0, 0, 56.89767837524414
166, 0, 0, 56.64468002319336
167, 0, 0, 56.71814727783203
168, 0, 0, 56.82850646972656
169, 0, 0, 55.4753303527832
170, 0, 0, 56.26898574829102
171, 0, 0, 56.55014801025391
172, 0, 0, 53.13621520996094
173, 0, 0, 55.03768920898438
174, 0, 0, 54.11562347412109
175, 0, 0, 54.15570068359375
176, 0, 0, 53.52895736694336
177, 0, 0, 52.20417785644531
178, 0, 0, 53.83659362792969
179, 0, 0, 52.5549430847168
