# TOPAS Version: 3.3.p1
# Parameter File: Test.txt
# Results for scorer MLIC_Scorer
# Scored in component: MLIC
# X in 180 bins of 0.177778 cm
# Y in 1 bin  of 10 cm
# Z in 1 bin  of 10 cm
# EnergyDeposit ( MeV ) : Sum   
0, 0, 0, 0
1, 0, 0, 0
2, 0, 0, 0
3, 0, 0, 0
4, 0, 0, 0
5, 0, 0, 0
6, 0, 0, 0
7, 0, 0, 0
8, 0, 0, 0
9, 0, 0, 0
10, 0, 0, 0
11, 0, 0, 0
12, 0, 0, 0
13, 0, 0, 0
14, 0, 0, 0
15, 0, 0, 0
16, 0, 0, 0
17, 0, 0, 0
18, 0, 0, 0
19, 0, 0, 0
20, 0, 0, 0
21, 0, 0, 0
22, 0, 0, 0
23, 0, 0, 0
24, 0, 0, 0
25, 0, 0, 0
26, 0, 0, 0
27, 0, 0, 0
28, 0, 0, 0
29, 0, 0, 0
30, 0, 0, 0
31, 0, 0, 0
32, 0, 0, 0
33, 0, 0, 0
34, 0, 0, 0
35, 0, 0, 0
36, 0, 0, 0
37, 0, 0, 0
38, 0, 0, 0
39, 0, 0, 0
40, 0, 0, 0
41, 0, 0, 0
42, 0, 0, 0
43, 0, 0, 0
44, 0, 0, 0
45, 0, 0, 0
46, 0, 0, 0
47, 0, 0, 0
48, 0, 0, 0
49, 0, 0, 0
50, 0, 0, 0
51, 0, 0, 0
52, 0, 0, 0
53, 0, 0, 0
54, 0, 0, 0
55, 0, 0, 0
56, 0, 0, 0
57, 0, 0, 0
58, 0, 0, 0
59, 0, 0, 0
60, 0, 0, 0
61, 0, 0, 0
62, 0, 0, 0
63, 0, 0, 0
64, 0, 0, 0
65, 0, 0, 0
66, 0, 0, 0
67, 0, 0, 0
68, 0, 0, 0
69, 0, 0, 0
70, 0, 0, 0
71, 0, 0, 0
72, 0, 0, 0
73, 0, 0, 0
74, 0, 0, 0
75, 0, 0, 0
76, 0, 0, 0
77, 0, 0, 0
78, 0, 0, 0
79, 0, 0, 0
80, 0, 0, 0
81, 0, 0, 0
82, 0, 0, 0
83, 0, 0, 0
84, 0, 0, 0
85, 0, 0, 0
86, 0, 0, 0.002468352904543281
87, 0, 0, 66.50364685058594
88, 0, 0, 170.2703552246094
89, 0, 0, 278.2972717285156
90, 0, 0, 377.2357788085938
91, 0, 0, 377.9752197265625
92, 0, 0, 347.7037353515625
93, 0, 0, 301.8562622070312
94, 0, 0, 265.5008544921875
95, 0, 0, 238.5226745605469
96, 0, 0, 220.9179382324219
97, 0, 0, 204.1235961914062
98, 0, 0, 192.3466796875
99, 0, 0, 185.3212127685547
100, 0, 0, 173.8542785644531
101, 0, 0, 168.0563354492188
102, 0, 0, 162.7404937744141
103, 0, 0, 157.8801727294922
104, 0, 0, 151.5790252685547
105, 0, 0, 146.8506622314453
106, 0, 0, 142.5115509033203
107, 0, 0, 137.9785461425781
108, 0, 0, 135.9463500976562
109, 0, 0, 131.5849456787109
110, 0, 0, 129.9447784423828
111, 0, 0, 128.1382293701172
112, 0, 0, 125.4736099243164
113, 0, 0, 122.3745346069336
114, 0, 0, 119.5101547241211
115, 0, 0, 117.6252517700195
116, 0, 0, 117.2243957519531
117, 0, 0, 112.1030120849609
118, 0, 0, 112.2964019775391
119, 0, 0, 109.1963958740234
120, 0, 0, 109.4102783203125
121, 0, 0, 107.7290344238281
122, 0, 0, 106.7382354736328
123, 0, 0, 105.8382797241211
124, 0, 0, 104.8251647949219
125, 0, 0, 100.7172088623047
126, 0, 0, 101.1121215820312
127, 0, 0, 98.15961456298828
128, 0, 0, 96.63925933837891
129, 0, 0, 100.0385513305664
130, 0, 0, 96.36331176757812
131, 0, 0, 95.98017120361328
132, 0, 0, 97.28457641601562
133, 0, 0, 94.49407196044922
134, 0, 0, 92.7772216796875
135, 0, 0, 92.50202941894531
136, 0, 0, 93.54986572265625
137, 0, 0, 92.06664276123047
138, 0, 0, 89.72900390625
139, 0, 0, 88.26709747314453
140, 0, 0, 89.50600433349609
141, 0, 0, 87.42070007324219
142, 0, 0, 88.15524291992188
143, 0, 0, 86.62897491455078
144, 0, 0, 87.45658111572266
145, 0, 0, 85.0509033203125
146, 0, 0, 84.56786346435547
147, 0, 0, 83.42797088623047
148, 0, 0, 84.05720520019531
149, 0, 0, 82.85214996337891
150, 0, 0, 83.23834228515625
151, 0, 0, 80.92335510253906
152, 0, 0, 81.64730834960938
153, 0, 0, 81.65367126464844
154, 0, 0, 79.34004974365234
155, 0, 0, 79.39813995361328
156, 0, 0, 80.46982574462891
157, 0, 0, 79.59107208251953
158, 0, 0, 77.6173095703125
159, 0, 0, 77.70220184326172
160, 0, 0, 77.44635009765625
161, 0, 0, 77.54283142089844
162, 0, 0, 74.98338317871094
163, 0, 0, 74.30504608154297
164, 0, 0, 74.98619842529297
165, 0, 0, 73.58218383789062
166, 0, 0, 74.67061614990234
167, 0, 0, 74.55140686035156
168, 0, 0, 73.47956848144531
169, 0, 0, 75.40097045898438
170, 0, 0, 72.86576843261719
171, 0, 0, 72.60679626464844
172, 0, 0, 72.52096557617188
173, 0, 0, 71.32195281982422
174, 0, 0, 71.00821685791016
175, 0, 0, 71.36153411865234
176, 0, 0, 72.62115478515625
177, 0, 0, 67.91595458984375
178, 0, 0, 68.93038177490234
179, 0, 0, 69.93733215332031
