# TOPAS Version: 3.3.p1
# Parameter File: Test.txt
# Results for scorer MLIC_Scorer
# Scored in component: MLIC
# X in 180 bins of 0.177778 cm
# Y in 1 bin  of 10 cm
# Z in 1 bin  of 10 cm
# EnergyDeposit ( MeV ) : Sum   
0, 0, 0, 0
1, 0, 0, 0
2, 0, 0, 0
3, 0, 0, 0
4, 0, 0, 0
5, 0, 0, 0
6, 0, 0, 0
7, 0, 0, 0
8, 0, 0, 0
9, 0, 0, 0
10, 0, 0, 0
11, 0, 0, 0
12, 0, 0, 0
13, 0, 0, 0
14, 0, 0, 0
15, 0, 0, 0
16, 0, 0, 0
17, 0, 0, 0
18, 0, 0, 0
19, 0, 0, 0
20, 0, 0, 0
21, 0, 0, 0
22, 0, 0, 0
23, 0, 0, 0
24, 0, 0, 0
25, 0, 0, 0
26, 0, 0, 0
27, 0, 0, 0
28, 0, 0, 0
29, 0, 0, 0
30, 0, 0, 0
31, 0, 0, 0
32, 0, 0, 0
33, 0, 0, 0
34, 0, 0, 0
35, 0, 0, 0
36, 0, 0, 0
37, 0, 0, 0
38, 0, 0, 0
39, 0, 0, 0
40, 0, 0, 0
41, 0, 0, 0
42, 0, 0, 0
43, 0, 0, 0
44, 0, 0, 0
45, 0, 0, 0
46, 0, 0, 0
47, 0, 0, 0
48, 0, 0, 0
49, 0, 0, 0
50, 0, 0, 0
51, 0, 0, 0
52, 0, 0, 0
53, 0, 0, 0
54, 0, 0, 0
55, 0, 0, 0
56, 0, 0, 0
57, 0, 0, 0
58, 0, 0, 0
59, 0, 0, 0
60, 0, 0, 0
61, 0, 0, 0
62, 0, 0, 0
63, 0, 0, 0
64, 0, 0, 0
65, 0, 0, 0
66, 0, 0, 0
67, 0, 0, 0
68, 0, 0, 0
69, 0, 0, 0
70, 0, 0, 0
71, 0, 0, 0
72, 0, 0, 0
73, 0, 0, 0
74, 0, 0, 0
75, 0, 0, 0
76, 0, 0, 0
77, 0, 0, 0
78, 0, 0, 0
79, 0, 0, 0
80, 0, 0, 0
81, 0, 0, 0
82, 0, 0, 0
83, 0, 0, 0
84, 0, 0, 0
85, 0, 0, 0
86, 0, 0, 0
87, 0, 0, 0
88, 0, 0, 0
89, 0, 0, 0
90, 0, 0, 0
91, 0, 0, 0
92, 0, 0, 0
93, 0, 0, 0
94, 0, 0, 0
95, 0, 0, 0
96, 0, 0, 0
97, 0, 0, 0
98, 0, 0, 0
99, 0, 0, 0
100, 0, 0, 0
101, 0, 0, 0
102, 0, 0, 0
103, 0, 0, 0
104, 0, 0, 0
105, 0, 0, 0
106, 0, 0, 0
107, 0, 0, 0
108, 0, 0, 0
109, 0, 0, 0
110, 0, 0, 0
111, 0, 0, 0
112, 0, 0, 0
113, 0, 0, 0
114, 0, 0, 0
115, 0, 0, 0.002603942295536399
116, 0, 0, 0
117, 0, 0, 0.02227052673697472
118, 0, 0, 8.873703002929688
119, 0, 0, 20.28020477294922
120, 0, 0, 80.97964477539062
121, 0, 0, 321.409912109375
122, 0, 0, 1066.586181640625
123, 0, 0, 2197.486328125
124, 0, 0, 3629.432861328125
125, 0, 0, 4670.8798828125
126, 0, 0, 5026.91845703125
127, 0, 0, 4823.27294921875
128, 0, 0, 4277.70458984375
129, 0, 0, 3728.82275390625
130, 0, 0, 3300.218505859375
131, 0, 0, 3017.68408203125
132, 0, 0, 2815.0537109375
133, 0, 0, 2654.93212890625
134, 0, 0, 2512.595947265625
135, 0, 0, 2405.34912109375
136, 0, 0, 2300.146728515625
137, 0, 0, 2225.25634765625
138, 0, 0, 2143.4814453125
139, 0, 0, 2072.4521484375
140, 0, 0, 2010.480346679688
141, 0, 0, 1961.860961914062
142, 0, 0, 1910.310180664062
143, 0, 0, 1862.0419921875
144, 0, 0, 1816.38037109375
145, 0, 0, 1780.96435546875
146, 0, 0, 1743.33203125
147, 0, 0, 1706.068969726562
148, 0, 0, 1678.06689453125
149, 0, 0, 1646.65625
150, 0, 0, 1626.55517578125
151, 0, 0, 1597.913818359375
152, 0, 0, 1571.299194335938
153, 0, 0, 1542.147705078125
154, 0, 0, 1520.453002929688
155, 0, 0, 1498.211181640625
156, 0, 0, 1478.701049804688
157, 0, 0, 1458.319702148438
158, 0, 0, 1434.861572265625
159, 0, 0, 1419.386474609375
160, 0, 0, 1400.889526367188
161, 0, 0, 1389.296997070312
162, 0, 0, 1373.709350585938
163, 0, 0, 1360.125732421875
164, 0, 0, 1341.31396484375
165, 0, 0, 1324.9326171875
166, 0, 0, 1315.698608398438
167, 0, 0, 1303.029418945312
168, 0, 0, 1288.776000976562
169, 0, 0, 1282.356201171875
170, 0, 0, 1262.125
171, 0, 0, 1245.774169921875
172, 0, 0, 1245.638793945312
173, 0, 0, 1232.611938476562
174, 0, 0, 1221.593017578125
175, 0, 0, 1214.923461914062
176, 0, 0, 1199.15380859375
177, 0, 0, 1194.035888671875
178, 0, 0, 1181.976806640625
179, 0, 0, 1176.559204101562
