# TOPAS Version: 3.3.p1
# Parameter File: Test.txt
# Results for scorer MLIC_Scorer
# Scored in component: MLIC
# X in 180 bins of 0.222222 cm
# Y in 1 bin  of 10 cm
# Z in 1 bin  of 10 cm
# EnergyDeposit ( MeV ) : Sum   
0, 0, 0, 0
1, 0, 0, 0
2, 0, 0, 0
3, 0, 0, 0
4, 0, 0, 0
5, 0, 0, 0
6, 0, 0, 0
7, 0, 0, 0
8, 0, 0, 0
9, 0, 0, 0
10, 0, 0, 0
11, 0, 0, 0
12, 0, 0, 0
13, 0, 0, 0
14, 0, 0, 0
15, 0, 0, 0
16, 0, 0, 0
17, 0, 0, 0
18, 0, 0, 0
19, 0, 0, 0
20, 0, 0, 0
21, 0, 0, 0
22, 0, 0, 0
23, 0, 0, 0
24, 0, 0, 0
25, 0, 0, 0
26, 0, 0, 0
27, 0, 0, 0
28, 0, 0, 0
29, 0, 0, 0
30, 0, 0, 0
31, 0, 0, 0
32, 0, 0, 0
33, 0, 0, 0
34, 0, 0, 0.002876335987821221
35, 0, 0, 0
36, 0, 0, 0
37, 0, 0, 0.001798635348677635
38, 0, 0, 0
39, 0, 0, 0
40, 0, 0, 0
41, 0, 0, 26.21822357177734
42, 0, 0, 205.3641510009766
43, 0, 0, 807.0269775390625
44, 0, 0, 2163.82275390625
45, 0, 0, 4376.53271484375
46, 0, 0, 6045.52294921875
47, 0, 0, 6340.41748046875
48, 0, 0, 5491.0361328125
49, 0, 0, 4631.06982421875
50, 0, 0, 4068.35400390625
51, 0, 0, 3674.495849609375
52, 0, 0, 3377.97509765625
53, 0, 0, 3151.8154296875
54, 0, 0, 2975.977294921875
55, 0, 0, 2835.965576171875
56, 0, 0, 2706.476318359375
57, 0, 0, 2600.3798828125
58, 0, 0, 2508.951416015625
59, 0, 0, 2416.798095703125
60, 0, 0, 2349.320556640625
61, 0, 0, 2279.823974609375
62, 0, 0, 2225.2177734375
63, 0, 0, 2166.2919921875
64, 0, 0, 2111.36181640625
65, 0, 0, 2063.212158203125
66, 0, 0, 2017.244750976562
67, 0, 0, 1977.4267578125
68, 0, 0, 1936.77734375
69, 0, 0, 1903.713256835938
70, 0, 0, 1870.027465820312
71, 0, 0, 1843.965942382812
72, 0, 0, 1810.130737304688
73, 0, 0, 1778.64599609375
74, 0, 0, 1756.638549804688
75, 0, 0, 1724.65576171875
76, 0, 0, 1699.04931640625
77, 0, 0, 1681.620849609375
78, 0, 0, 1660.2919921875
79, 0, 0, 1635.773193359375
80, 0, 0, 1625.670532226562
81, 0, 0, 1593.616455078125
82, 0, 0, 1574.279174804688
83, 0, 0, 1563.310424804688
84, 0, 0, 1542.088623046875
85, 0, 0, 1535.78271484375
86, 0, 0, 1512.775512695312
87, 0, 0, 1496.631958007812
88, 0, 0, 1482.885375976562
89, 0, 0, 1470.098754882812
90, 0, 0, 1454.442993164062
91, 0, 0, 1442.8916015625
92, 0, 0, 1431.117431640625
93, 0, 0, 1416.018920898438
94, 0, 0, 1406.894897460938
95, 0, 0, 1382.62744140625
96, 0, 0, 1376.929443359375
97, 0, 0, 1367.170654296875
98, 0, 0, 1355.18408203125
99, 0, 0, 1347.906372070312
100, 0, 0, 1350.46484375
101, 0, 0, 1316.885131835938
102, 0, 0, 1320.33740234375
103, 0, 0, 1309.915161132812
104, 0, 0, 1291.573852539062
105, 0, 0, 1281.917602539062
106, 0, 0, 1289.122192382812
107, 0, 0, 1273.936279296875
108, 0, 0, 1269.660278320312
109, 0, 0, 1259.180786132812
110, 0, 0, 1248.580444335938
111, 0, 0, 1242.359375
112, 0, 0, 1235.916381835938
113, 0, 0, 1226.049682617188
114, 0, 0, 1219.200561523438
115, 0, 0, 1217.155517578125
116, 0, 0, 1203.141235351562
117, 0, 0, 1201.140747070312
118, 0, 0, 1186.564331054688
119, 0, 0, 1186.793212890625
120, 0, 0, 1173.049926757812
121, 0, 0, 1180.536865234375
122, 0, 0, 1178.077392578125
123, 0, 0, 1168.47998046875
124, 0, 0, 1155.969970703125
125, 0, 0, 1156.410400390625
126, 0, 0, 1139.366088867188
127, 0, 0, 1145.65966796875
128, 0, 0, 1131.792846679688
129, 0, 0, 1131.3876953125
130, 0, 0, 1126.545654296875
131, 0, 0, 1126.662475585938
132, 0, 0, 1113.875732421875
133, 0, 0, 1104.988037109375
134, 0, 0, 1107.966918945312
135, 0, 0, 1105.47802734375
136, 0, 0, 1099.044189453125
137, 0, 0, 1090.087158203125
138, 0, 0, 1085.472045898438
139, 0, 0, 1075.562622070312
140, 0, 0, 1082.096313476562
141, 0, 0, 1073.095825195312
142, 0, 0, 1069.637817382812
143, 0, 0, 1062.991088867188
144, 0, 0, 1062.114501953125
145, 0, 0, 1060.055297851562
146, 0, 0, 1049.06689453125
147, 0, 0, 1050.400146484375
148, 0, 0, 1042.469116210938
149, 0, 0, 1050.602661132812
150, 0, 0, 1035.428344726562
151, 0, 0, 1024.631591796875
152, 0, 0, 1019.09130859375
153, 0, 0, 1012.89892578125
154, 0, 0, 1023.727966308594
155, 0, 0, 1031.59716796875
156, 0, 0, 1018.551818847656
157, 0, 0, 1008.612182617188
158, 0, 0, 1003.383544921875
159, 0, 0, 996.6863403320312
160, 0, 0, 999.5984497070312
161, 0, 0, 1000.154418945312
162, 0, 0, 996.74169921875
163, 0, 0, 1003.161010742188
164, 0, 0, 983.0310668945312
165, 0, 0, 987.6603393554688
166, 0, 0, 978.0424194335938
167, 0, 0, 980.9696044921875
168, 0, 0, 971.21875
169, 0, 0, 974.7811889648438
170, 0, 0, 971.3668823242188
171, 0, 0, 971.083984375
172, 0, 0, 957.6614990234375
173, 0, 0, 972.0405883789062
174, 0, 0, 953.4996948242188
175, 0, 0, 958.8057861328125
176, 0, 0, 955.2933959960938
177, 0, 0, 948.5765380859375
178, 0, 0, 953.1842651367188
179, 0, 0, 945.4547119140625
