# TOPAS Version: 3.3.p1
# Parameter File: Test.txt
# Results for scorer MLIC_Scorer
# Scored in component: MLIC
# X in 180 bins of 0.183333 cm
# Y in 1 bin  of 10 cm
# Z in 1 bin  of 10 cm
# EnergyDeposit ( MeV ) : Sum   
0, 0, 0, 0
1, 0, 0, 0
2, 0, 0, 0
3, 0, 0, 0
4, 0, 0, 0
5, 0, 0, 0
6, 0, 0, 0
7, 0, 0, 0
8, 0, 0, 0
9, 0, 0, 0
10, 0, 0, 0
11, 0, 0, 0
12, 0, 0, 0
13, 0, 0, 0
14, 0, 0, 0
15, 0, 0, 0
16, 0, 0, 0
17, 0, 0, 0
18, 0, 0, 0
19, 0, 0, 0
20, 0, 0, 0
21, 0, 0, 0
22, 0, 0, 0
23, 0, 0, 0
24, 0, 0, 0
25, 0, 0, 0
26, 0, 0, 0
27, 0, 0, 0
28, 0, 0, 0
29, 0, 0, 0
30, 0, 0, 0
31, 0, 0, 0
32, 0, 0, 0
33, 0, 0, 0
34, 0, 0, 0
35, 0, 0, 0
36, 0, 0, 0
37, 0, 0, 0
38, 0, 0, 0
39, 0, 0, 0
40, 0, 0, 0
41, 0, 0, 0
42, 0, 0, 0
43, 0, 0, 0
44, 0, 0, 0
45, 0, 0, 0
46, 0, 0, 0
47, 0, 0, 0
48, 0, 0, 0
49, 0, 0, 0
50, 0, 0, 0
51, 0, 0, 0
52, 0, 0, 0
53, 0, 0, 0
54, 0, 0, 0
55, 0, 0, 0
56, 0, 0, 0
57, 0, 0, 0
58, 0, 0, 0
59, 0, 0, 0
60, 0, 0, 0
61, 0, 0, 0
62, 0, 0, 0.00403924472630024
63, 0, 0, 0
64, 0, 0, 0
65, 0, 0, 0
66, 0, 0, 0
67, 0, 0, 0
68, 0, 0, 0
69, 0, 0, 0
70, 0, 0, 0
71, 0, 0, 0
72, 0, 0, 0
73, 0, 0, 0
74, 0, 0, 0
75, 0, 0, 0
76, 0, 0, 0
77, 0, 0, 0
78, 0, 0, 0
79, 0, 0, 0.001822469639591873
80, 0, 0, 0
81, 0, 0, 0
82, 0, 0, 0
83, 0, 0, 0
84, 0, 0, 0
85, 0, 0, 0
86, 0, 0, 0
87, 0, 0, 0
88, 0, 0, 0
89, 0, 0, 0
90, 0, 0, 0
91, 0, 0, 0
92, 0, 0, 0
93, 0, 0, 0
94, 0, 0, 0
95, 0, 0, 26.39585113525391
96, 0, 0, 53.34375762939453
97, 0, 0, 232.3646392822266
98, 0, 0, 661.4547729492188
99, 0, 0, 1855.47705078125
100, 0, 0, 3814.19384765625
101, 0, 0, 4891.072265625
102, 0, 0, 5222.34765625
103, 0, 0, 4998.826171875
104, 0, 0, 4375.89111328125
105, 0, 0, 3786.398681640625
106, 0, 0, 3395.477783203125
107, 0, 0, 3103.873779296875
108, 0, 0, 2873.6826171875
109, 0, 0, 2716.42919921875
110, 0, 0, 2572.5263671875
111, 0, 0, 2457.422119140625
112, 0, 0, 2359.552001953125
113, 0, 0, 2266.87939453125
114, 0, 0, 2182.863525390625
115, 0, 0, 2123.48388671875
116, 0, 0, 2058.885986328125
117, 0, 0, 1999.2509765625
118, 0, 0, 1947.010498046875
119, 0, 0, 1904.776245117188
120, 0, 0, 1860.11572265625
121, 0, 0, 1815.136840820312
122, 0, 0, 1783.565795898438
123, 0, 0, 1744.162109375
124, 0, 0, 1713.732299804688
125, 0, 0, 1677.320434570312
126, 0, 0, 1655.78515625
127, 0, 0, 1623.000854492188
128, 0, 0, 1605.2763671875
129, 0, 0, 1577.797485351562
130, 0, 0, 1552.191772460938
131, 0, 0, 1533.171142578125
132, 0, 0, 1508.746337890625
133, 0, 0, 1493.665771484375
134, 0, 0, 1473.620727539062
135, 0, 0, 1449.354614257812
136, 0, 0, 1437.637573242188
137, 0, 0, 1416.229125976562
138, 0, 0, 1403.090454101562
139, 0, 0, 1386.939453125
140, 0, 0, 1372.298828125
141, 0, 0, 1356.20556640625
142, 0, 0, 1343.785888671875
143, 0, 0, 1323.957641601562
144, 0, 0, 1320.296630859375
145, 0, 0, 1298.4375
146, 0, 0, 1285.742309570312
147, 0, 0, 1282.281616210938
148, 0, 0, 1270.193115234375
149, 0, 0, 1260.098388671875
150, 0, 0, 1251.43603515625
151, 0, 0, 1231.174926757812
152, 0, 0, 1218.343383789062
153, 0, 0, 1214.287841796875
154, 0, 0, 1207.765991210938
155, 0, 0, 1193.133911132812
156, 0, 0, 1190.346557617188
157, 0, 0, 1181.3837890625
158, 0, 0, 1167.713012695312
159, 0, 0, 1152.790161132812
160, 0, 0, 1149.920166015625
161, 0, 0, 1145.4970703125
162, 0, 0, 1131.630615234375
163, 0, 0, 1139.2294921875
164, 0, 0, 1127.594848632812
165, 0, 0, 1122.438598632812
166, 0, 0, 1107.15478515625
167, 0, 0, 1104.805786132812
168, 0, 0, 1091.569946289062
169, 0, 0, 1091.587890625
170, 0, 0, 1083.737182617188
171, 0, 0, 1078.028198242188
172, 0, 0, 1067.308715820312
173, 0, 0, 1066.538696289062
174, 0, 0, 1061.963745117188
175, 0, 0, 1052.984375
176, 0, 0, 1049.655883789062
177, 0, 0, 1034.592651367188
178, 0, 0, 1037.442504882812
179, 0, 0, 1036.505126953125
