# TOPAS Version: 3.3.p1
# Parameter File: Test.txt
# Results for scorer MLIC_Scorer
# Scored in component: MLIC
# X in 165 bins of 0.2 cm
# Y in 1 bin  of 10 cm
# Z in 1 bin  of 10 cm
# EnergyDeposit ( MeV ) : Sum   
0, 0, 0, 0
1, 0, 0, 0
2, 0, 0, 0
3, 0, 0, 0
4, 0, 0, 0
5, 0, 0, 0
6, 0, 0, 0
7, 0, 0, 0.002481587696820498
8, 0, 0, 0
9, 0, 0, 0
10, 0, 0, 0.009041430428624153
11, 0, 0, 0
12, 0, 0, 0
13, 0, 0, 0
14, 0, 0, 0.008214597590267658
15, 0, 0, 0
16, 0, 0, 0
17, 0, 0, 0
18, 0, 0, 0
19, 0, 0, 0
20, 0, 0, 0
21, 0, 0, 0
22, 0, 0, 0
23, 0, 0, 0
24, 0, 0, 0
25, 0, 0, 0
26, 0, 0, 0
27, 0, 0, 0
28, 0, 0, 0.001202010316774249
29, 0, 0, 0
30, 0, 0, 0
31, 0, 0, 0
32, 0, 0, 0
33, 0, 0, 0
34, 0, 0, 0
35, 0, 0, 0
36, 0, 0, 0
37, 0, 0, 0
38, 0, 0, 11.05911540985107
39, 0, 0, 125.9295425415039
40, 0, 0, 496.6238708496094
41, 0, 0, 1450.04345703125
42, 0, 0, 2711.090576171875
43, 0, 0, 4281.09326171875
44, 0, 0, 5359.41162109375
45, 0, 0, 5450.87060546875
46, 0, 0, 4921.5224609375
47, 0, 0, 4301.78662109375
48, 0, 0, 3777.044189453125
49, 0, 0, 3437.477783203125
50, 0, 0, 3166.872314453125
51, 0, 0, 2949.19140625
52, 0, 0, 2787.6083984375
53, 0, 0, 2657.0302734375
54, 0, 0, 2536.0087890625
55, 0, 0, 2428.924560546875
56, 0, 0, 2351.742431640625
57, 0, 0, 2266.59765625
58, 0, 0, 2198.904052734375
59, 0, 0, 2135.55126953125
60, 0, 0, 2079.07958984375
61, 0, 0, 2025.558837890625
62, 0, 0, 1976.204345703125
63, 0, 0, 1935.8876953125
64, 0, 0, 1889.065673828125
65, 0, 0, 1855.562744140625
66, 0, 0, 1818.676147460938
67, 0, 0, 1795.587036132812
68, 0, 0, 1757.686645507812
69, 0, 0, 1727.202880859375
70, 0, 0, 1700.960205078125
71, 0, 0, 1671.062255859375
72, 0, 0, 1650.42724609375
73, 0, 0, 1624.544677734375
74, 0, 0, 1599.138305664062
75, 0, 0, 1576.372680664062
76, 0, 0, 1555.240844726562
77, 0, 0, 1544.75244140625
78, 0, 0, 1520.378540039062
79, 0, 0, 1500.734985351562
80, 0, 0, 1492.084716796875
81, 0, 0, 1458.635986328125
82, 0, 0, 1455.12353515625
83, 0, 0, 1433.627075195312
84, 0, 0, 1424.853515625
85, 0, 0, 1392.057006835938
86, 0, 0, 1389.615356445312
87, 0, 0, 1377.406982421875
88, 0, 0, 1367.405883789062
89, 0, 0, 1352.640502929688
90, 0, 0, 1337.6796875
91, 0, 0, 1325.635498046875
92, 0, 0, 1310.685913085938
93, 0, 0, 1306.73486328125
94, 0, 0, 1290.636840820312
95, 0, 0, 1286.595092773438
96, 0, 0, 1271.776123046875
97, 0, 0, 1259.312866210938
98, 0, 0, 1255.715942382812
99, 0, 0, 1240.531127929688
100, 0, 0, 1238.8203125
101, 0, 0, 1235.521850585938
102, 0, 0, 1222.9677734375
103, 0, 0, 1206.31689453125
104, 0, 0, 1207.981323242188
105, 0, 0, 1199.540771484375
106, 0, 0, 1183.539428710938
107, 0, 0, 1185.995361328125
108, 0, 0, 1179.944946289062
109, 0, 0, 1160.163208007812
110, 0, 0, 1158.561157226562
111, 0, 0, 1141.594116210938
112, 0, 0, 1143.837280273438
113, 0, 0, 1140.12548828125
114, 0, 0, 1127.044067382812
115, 0, 0, 1123.453491210938
116, 0, 0, 1121.177124023438
117, 0, 0, 1110.73974609375
118, 0, 0, 1111.45263671875
119, 0, 0, 1103.588745117188
120, 0, 0, 1099.973510742188
121, 0, 0, 1086.114868164062
122, 0, 0, 1084.510131835938
123, 0, 0, 1085.38916015625
124, 0, 0, 1069.4736328125
125, 0, 0, 1070.431030273438
126, 0, 0, 1061.373046875
127, 0, 0, 1063.697509765625
128, 0, 0, 1053.436279296875
129, 0, 0, 1047.5341796875
130, 0, 0, 1052.7744140625
131, 0, 0, 1038.04833984375
132, 0, 0, 1031.010864257812
133, 0, 0, 1032.946411132812
134, 0, 0, 1024.862060546875
135, 0, 0, 1031.02880859375
136, 0, 0, 1022.355285644531
137, 0, 0, 1010.880737304688
138, 0, 0, 1010.272033691406
139, 0, 0, 999.7996826171875
140, 0, 0, 1001.756713867188
141, 0, 0, 995.9188232421875
142, 0, 0, 992.2134399414062
143, 0, 0, 991.194091796875
144, 0, 0, 984.5590209960938
145, 0, 0, 987.4793090820312
146, 0, 0, 983.8467407226562
147, 0, 0, 966.7371215820312
148, 0, 0, 979.677490234375
149, 0, 0, 967.8125610351562
150, 0, 0, 969.6502075195312
151, 0, 0, 961.07861328125
152, 0, 0, 966.0582885742188
153, 0, 0, 955.8150024414062
154, 0, 0, 947.2047729492188
155, 0, 0, 951.1121215820312
156, 0, 0, 939.4877319335938
157, 0, 0, 940.7459716796875
158, 0, 0, 937.5877075195312
159, 0, 0, 937.1151123046875
160, 0, 0, 935.0115356445312
161, 0, 0, 924.4584350585938
162, 0, 0, 927.0208740234375
163, 0, 0, 930.837890625
164, 0, 0, 918.9229125976562
