# TOPAS Version: 3.3.p1
# Parameter File: Test.txt
# Results for scorer MLIC_Scorer
# Scored in component: MLIC
# X in 180 bins of 0.177778 cm
# Y in 1 bin  of 10 cm
# Z in 1 bin  of 10 cm
# EnergyDeposit ( MeV ) : Sum   
0, 0, 0, 0
1, 0, 0, 0
2, 0, 0, 0
3, 0, 0, 0.00442531518638134
4, 0, 0, 0
5, 0, 0, 0
6, 0, 0, 0
7, 0, 0, 0.0004200109106022865
8, 0, 0, 0
9, 0, 0, 0
10, 0, 0, 0.03583420813083649
11, 0, 0, 0.001253011170774698
12, 0, 0, 0.04889380559325218
13, 0, 0, 0
14, 0, 0, 0
15, 0, 0, 0.004549568518996239
16, 0, 0, 0.01050801109522581
17, 0, 0, 0
18, 0, 0, 10.2559289932251
19, 0, 0, 17.7512378692627
20, 0, 0, 107.9875717163086
21, 0, 0, 367.2372741699219
22, 0, 0, 1119.670166015625
23, 0, 0, 2277.854736328125
24, 0, 0, 3556.19287109375
25, 0, 0, 4786.90478515625
26, 0, 0, 5051.830078125
27, 0, 0, 4655.05224609375
28, 0, 0, 4126.05078125
29, 0, 0, 3752.596435546875
30, 0, 0, 3337.89599609375
31, 0, 0, 3031.360595703125
32, 0, 0, 2825.108642578125
33, 0, 0, 2656.436279296875
34, 0, 0, 2517.453369140625
35, 0, 0, 2403.895751953125
36, 0, 0, 2299.410888671875
37, 0, 0, 2220.030517578125
38, 0, 0, 2140.9384765625
39, 0, 0, 2071.2353515625
40, 0, 0, 2007.601318359375
41, 0, 0, 1965.36279296875
42, 0, 0, 1908.2568359375
43, 0, 0, 1863.837158203125
44, 0, 0, 1822.904663085938
45, 0, 0, 1779.731201171875
46, 0, 0, 1749.2705078125
47, 0, 0, 1711.998657226562
48, 0, 0, 1676.942993164062
49, 0, 0, 1647.734619140625
50, 0, 0, 1618.870971679688
51, 0, 0, 1581.227416992188
52, 0, 0, 1571.9970703125
53, 0, 0, 1541.9853515625
54, 0, 0, 1523.89453125
55, 0, 0, 1497.75390625
56, 0, 0, 1479.947875976562
57, 0, 0, 1449.60498046875
58, 0, 0, 1441.49072265625
59, 0, 0, 1417.976928710938
60, 0, 0, 1399.871459960938
61, 0, 0, 1388.773803710938
62, 0, 0, 1373.523559570312
63, 0, 0, 1355.55126953125
64, 0, 0, 1338.131958007812
65, 0, 0, 1332.771240234375
66, 0, 0, 1320.536987304688
67, 0, 0, 1307.308471679688
68, 0, 0, 1303.433837890625
69, 0, 0, 1278.229858398438
70, 0, 0, 1266.3447265625
71, 0, 0, 1255.416137695312
72, 0, 0, 1237.359252929688
73, 0, 0, 1224.534423828125
74, 0, 0, 1219.3193359375
75, 0, 0, 1211.767333984375
76, 0, 0, 1207.632934570312
77, 0, 0, 1187.640380859375
78, 0, 0, 1185.422729492188
79, 0, 0, 1178.026733398438
80, 0, 0, 1160.573852539062
81, 0, 0, 1157.381958007812
82, 0, 0, 1143.494262695312
83, 0, 0, 1135.757446289062
84, 0, 0, 1128.1142578125
85, 0, 0, 1127.091674804688
86, 0, 0, 1120.074829101562
87, 0, 0, 1104.18408203125
88, 0, 0, 1103.755126953125
89, 0, 0, 1103.30859375
90, 0, 0, 1090.726196289062
91, 0, 0, 1079.630493164062
92, 0, 0, 1079.184936523438
93, 0, 0, 1070.13671875
94, 0, 0, 1058.416015625
95, 0, 0, 1053.920166015625
96, 0, 0, 1054.109375
97, 0, 0, 1044.837158203125
98, 0, 0, 1040.089721679688
99, 0, 0, 1042.458374023438
100, 0, 0, 1029.7021484375
101, 0, 0, 1019.761596679688
102, 0, 0, 1021.929565429688
103, 0, 0, 1011.989318847656
104, 0, 0, 1003.539123535156
105, 0, 0, 1009.130310058594
106, 0, 0, 994.1427001953125
107, 0, 0, 989.5287475585938
108, 0, 0, 982.8751831054688
109, 0, 0, 981.5631713867188
110, 0, 0, 979.27734375
111, 0, 0, 968.4052734375
112, 0, 0, 970.4955444335938
113, 0, 0, 970.8033447265625
114, 0, 0, 966.5570068359375
115, 0, 0, 956.23193359375
116, 0, 0, 952.3926391601562
117, 0, 0, 953.4165649414062
118, 0, 0, 948.3779296875
119, 0, 0, 937.9024658203125
120, 0, 0, 933.2591552734375
121, 0, 0, 933.401611328125
122, 0, 0, 931.3067626953125
123, 0, 0, 921.511474609375
124, 0, 0, 923.697998046875
125, 0, 0, 923.6634521484375
126, 0, 0, 914.9656372070312
127, 0, 0, 909.339111328125
128, 0, 0, 901.8641357421875
129, 0, 0, 907.3152465820312
130, 0, 0, 902.6392211914062
131, 0, 0, 892.3741455078125
132, 0, 0, 892.8837890625
133, 0, 0, 887.8413696289062
134, 0, 0, 883.3617553710938
135, 0, 0, 884.1068725585938
136, 0, 0, 886.0215454101562
137, 0, 0, 880.642822265625
138, 0, 0, 872.0820922851562
139, 0, 0, 880.7410888671875
140, 0, 0, 871.2494506835938
141, 0, 0, 866.10888671875
142, 0, 0, 870.0101928710938
143, 0, 0, 857.3272094726562
144, 0, 0, 852.8848876953125
145, 0, 0, 865.3347778320312
146, 0, 0, 855.7289428710938
147, 0, 0, 844.7891845703125
148, 0, 0, 844.2421264648438
149, 0, 0, 851.6290283203125
150, 0, 0, 834.0005493164062
151, 0, 0, 838.3364868164062
152, 0, 0, 845.0931396484375
153, 0, 0, 839.305419921875
154, 0, 0, 839.1226196289062
155, 0, 0, 827.79052734375
156, 0, 0, 824.5769653320312
157, 0, 0, 828.5225830078125
158, 0, 0, 825.8140869140625
159, 0, 0, 825.55224609375
160, 0, 0, 823.8579711914062
161, 0, 0, 816.4401245117188
162, 0, 0, 811.3439331054688
163, 0, 0, 808.8812255859375
164, 0, 0, 805.47119140625
165, 0, 0, 814.2098999023438
166, 0, 0, 808.2291259765625
167, 0, 0, 796.9368896484375
168, 0, 0, 802.0849609375
169, 0, 0, 806.4765014648438
170, 0, 0, 792.2432861328125
171, 0, 0, 790.0488891601562
172, 0, 0, 788.7843627929688
173, 0, 0, 798.9313354492188
174, 0, 0, 789.580810546875
175, 0, 0, 787.5624389648438
176, 0, 0, 783.569580078125
177, 0, 0, 787.759765625
178, 0, 0, 776.334228515625
179, 0, 0, 782.6735229492188
