# TOPAS Version: 3.3.p1
# Parameter File: Test.txt
# Results for scorer MLIC_Scorer
# Scored in component: MLIC
# X in 180 bins of 0.177778 cm
# Y in 1 bin  of 10 cm
# Z in 1 bin  of 10 cm
# EnergyDeposit ( MeV ) : Sum   
0, 0, 0, 0
1, 0, 0, 0
2, 0, 0, 0
3, 0, 0, 0
4, 0, 0, 0
5, 0, 0, 0
6, 0, 0, 0
7, 0, 0, 0
8, 0, 0, 0
9, 0, 0, 0
10, 0, 0, 0
11, 0, 0, 0
12, 0, 0, 0
13, 0, 0, 0
14, 0, 0, 0
15, 0, 0, 0
16, 0, 0, 0
17, 0, 0, 0
18, 0, 0, 0
19, 0, 0, 0
20, 0, 0, 0
21, 0, 0, 0
22, 0, 0, 0
23, 0, 0, 0
24, 0, 0, 0
25, 0, 0, 0
26, 0, 0, 0
27, 0, 0, 0
28, 0, 0, 0
29, 0, 0, 0
30, 0, 0, 0
31, 0, 0, 0
32, 0, 0, 0
33, 0, 0, 0
34, 0, 0, 0
35, 0, 0, 0
36, 0, 0, 0
37, 0, 0, 0
38, 0, 0, 0
39, 0, 0, 0
40, 0, 0, 0
41, 0, 0, 0
42, 0, 0, 0
43, 0, 0, 0
44, 0, 0, 0
45, 0, 0, 0
46, 0, 0, 0
47, 0, 0, 0
48, 0, 0, 0
49, 0, 0, 0
50, 0, 0, 0
51, 0, 0, 0
52, 0, 0, 0
53, 0, 0, 0
54, 0, 0, 0
55, 0, 0, 0
56, 0, 0, 0
57, 0, 0, 0
58, 0, 0, 0.02973507717251778
59, 0, 0, 6.100930213928223
60, 0, 0, 21.26841163635254
61, 0, 0, 63.33783340454102
62, 0, 0, 290.3550415039062
63, 0, 0, 773.7996826171875
64, 0, 0, 1847.378173828125
65, 0, 0, 3380.771728515625
66, 0, 0, 4344.2724609375
67, 0, 0, 4938.7421875
68, 0, 0, 4920.2626953125
69, 0, 0, 4406.55908203125
70, 0, 0, 3831.533935546875
71, 0, 0, 3398.097412109375
72, 0, 0, 3107.763671875
73, 0, 0, 2874.736083984375
74, 0, 0, 2696.597412109375
75, 0, 0, 2546.485107421875
76, 0, 0, 2438.463623046875
77, 0, 0, 2337.371337890625
78, 0, 0, 2243.28173828125
79, 0, 0, 2164.30517578125
80, 0, 0, 2097.424560546875
81, 0, 0, 2027.604736328125
82, 0, 0, 1982.517700195312
83, 0, 0, 1917.480224609375
84, 0, 0, 1873.4013671875
85, 0, 0, 1836.315063476562
86, 0, 0, 1790.609008789062
87, 0, 0, 1752.78955078125
88, 0, 0, 1721.109497070312
89, 0, 0, 1684.147338867188
90, 0, 0, 1657.97607421875
91, 0, 0, 1628.1689453125
92, 0, 0, 1605.567749023438
93, 0, 0, 1569.622924804688
94, 0, 0, 1551.00146484375
95, 0, 0, 1535.90966796875
96, 0, 0, 1504.486083984375
97, 0, 0, 1493.87890625
98, 0, 0, 1462.425048828125
99, 0, 0, 1449.531127929688
100, 0, 0, 1426.904541015625
101, 0, 0, 1414.983764648438
102, 0, 0, 1386.827026367188
103, 0, 0, 1378.391357421875
104, 0, 0, 1362.738403320312
105, 0, 0, 1351.988403320312
106, 0, 0, 1329.31494140625
107, 0, 0, 1325.783203125
108, 0, 0, 1307.483642578125
109, 0, 0, 1291.416381835938
110, 0, 0, 1279.565795898438
111, 0, 0, 1274.259643554688
112, 0, 0, 1249.1787109375
113, 0, 0, 1246.07568359375
114, 0, 0, 1232.83984375
115, 0, 0, 1226.703491210938
116, 0, 0, 1219.141235351562
117, 0, 0, 1205.177856445312
118, 0, 0, 1200.130737304688
119, 0, 0, 1185.127197265625
120, 0, 0, 1181.852172851562
121, 0, 0, 1165.15966796875
122, 0, 0, 1158.183837890625
123, 0, 0, 1148.057373046875
124, 0, 0, 1146.549926757812
125, 0, 0, 1136.382934570312
126, 0, 0, 1125.510131835938
127, 0, 0, 1117.65478515625
128, 0, 0, 1109.993408203125
129, 0, 0, 1100.142456054688
130, 0, 0, 1102.8525390625
131, 0, 0, 1085.022338867188
132, 0, 0, 1085.151123046875
133, 0, 0, 1077.709106445312
134, 0, 0, 1081.08447265625
135, 0, 0, 1058.748901367188
136, 0, 0, 1054.680786132812
137, 0, 0, 1049.97265625
138, 0, 0, 1054.193481445312
139, 0, 0, 1041.04150390625
140, 0, 0, 1041.697143554688
141, 0, 0, 1031.189086914062
142, 0, 0, 1021.575256347656
143, 0, 0, 1023.503295898438
144, 0, 0, 1013.058837890625
145, 0, 0, 1009.068786621094
146, 0, 0, 1003.877807617188
147, 0, 0, 997.1826171875
148, 0, 0, 994.8218994140625
149, 0, 0, 990.6605834960938
150, 0, 0, 987.0338134765625
151, 0, 0, 974.2901000976562
152, 0, 0, 978.2578125
153, 0, 0, 976.9508056640625
154, 0, 0, 965.5999145507812
155, 0, 0, 966.8532104492188
156, 0, 0, 961.653076171875
157, 0, 0, 949.7061767578125
158, 0, 0, 946.329833984375
159, 0, 0, 951.069580078125
160, 0, 0, 944.2739868164062
161, 0, 0, 938.3171997070312
162, 0, 0, 933.6845092773438
163, 0, 0, 926.5057373046875
164, 0, 0, 926.835205078125
165, 0, 0, 919.21435546875
166, 0, 0, 922.0770263671875
167, 0, 0, 916.4232177734375
168, 0, 0, 912.0726928710938
169, 0, 0, 901.935302734375
170, 0, 0, 910.5540161132812
171, 0, 0, 906.1036376953125
172, 0, 0, 902.6976928710938
173, 0, 0, 897.1663208007812
174, 0, 0, 898.3116455078125
175, 0, 0, 890.7391967773438
176, 0, 0, 886.4832763671875
177, 0, 0, 888.5488891601562
178, 0, 0, 874.3546752929688
179, 0, 0, 879.3441772460938
