# TOPAS Version: 3.3.p1
# Parameter File: Test.txt
# Results for scorer MLIC_Scorer
# Scored in component: MLIC
# X in 180 bins of 0.177778 cm
# Y in 1 bin  of 10 cm
# Z in 1 bin  of 10 cm
# EnergyDeposit ( MeV ) : Sum   
0, 0, 0, 0
1, 0, 0, 0
2, 0, 0, 0
3, 0, 0, 0
4, 0, 0, 0
5, 0, 0, 0
6, 0, 0, 0
7, 0, 0, 0
8, 0, 0, 0
9, 0, 0, 0
10, 0, 0, 0
11, 0, 0, 0
12, 0, 0, 0
13, 0, 0, 0
14, 0, 0, 0
15, 0, 0, 0
16, 0, 0, 0
17, 0, 0, 0
18, 0, 0, 0
19, 0, 0, 0
20, 0, 0, 0
21, 0, 0, 0
22, 0, 0, 0
23, 0, 0, 0
24, 0, 0, 0
25, 0, 0, 0
26, 0, 0, 0
27, 0, 0, 0
28, 0, 0, 0
29, 0, 0, 0
30, 0, 0, 0
31, 0, 0, 0
32, 0, 0, 0
33, 0, 0, 0
34, 0, 0, 0
35, 0, 0, 0
36, 0, 0, 0.005222427193075418
37, 0, 0, 0
38, 0, 0, 0
39, 0, 0, 4.691927909851074
40, 0, 0, 20.29836654663086
41, 0, 0, 81.16898345947266
42, 0, 0, 301.0774230957031
43, 0, 0, 913.9380493164062
44, 0, 0, 2148.2392578125
45, 0, 0, 3484.3251953125
46, 0, 0, 4523.4833984375
47, 0, 0, 4997.7568359375
48, 0, 0, 4683.1533203125
49, 0, 0, 4377.16845703125
50, 0, 0, 3824.130615234375
51, 0, 0, 3357.793701171875
52, 0, 0, 3063.04345703125
53, 0, 0, 2844.5244140625
54, 0, 0, 2675.96728515625
55, 0, 0, 2536.89453125
56, 0, 0, 2424.06201171875
57, 0, 0, 2314.61767578125
58, 0, 0, 2231.730712890625
59, 0, 0, 2161.33349609375
60, 0, 0, 2092.587646484375
61, 0, 0, 2019.95849609375
62, 0, 0, 1966.084716796875
63, 0, 0, 1916.286376953125
64, 0, 0, 1865.595336914062
65, 0, 0, 1827.880249023438
66, 0, 0, 1788.236450195312
67, 0, 0, 1747.494506835938
68, 0, 0, 1711.334228515625
69, 0, 0, 1684.655639648438
70, 0, 0, 1646.912963867188
71, 0, 0, 1618.902954101562
72, 0, 0, 1592.416748046875
73, 0, 0, 1569.204833984375
74, 0, 0, 1548.526733398438
75, 0, 0, 1519.685791015625
76, 0, 0, 1501.599609375
77, 0, 0, 1490.541259765625
78, 0, 0, 1458.990234375
79, 0, 0, 1444.798095703125
80, 0, 0, 1422.247802734375
81, 0, 0, 1408.606201171875
82, 0, 0, 1384.86474609375
83, 0, 0, 1369.290649414062
84, 0, 0, 1361.6982421875
85, 0, 0, 1340.876831054688
86, 0, 0, 1327.316650390625
87, 0, 0, 1316.50537109375
88, 0, 0, 1310.240966796875
89, 0, 0, 1292.269897460938
90, 0, 0, 1282.059448242188
91, 0, 0, 1268.46240234375
92, 0, 0, 1254.8427734375
93, 0, 0, 1247.807739257812
94, 0, 0, 1235.025512695312
95, 0, 0, 1225.212280273438
96, 0, 0, 1214.965698242188
97, 0, 0, 1204.938354492188
98, 0, 0, 1183.308837890625
99, 0, 0, 1189.022827148438
100, 0, 0, 1174.709594726562
101, 0, 0, 1155.252563476562
102, 0, 0, 1156.351196289062
103, 0, 0, 1149.892333984375
104, 0, 0, 1133.412353515625
105, 0, 0, 1135.35107421875
106, 0, 0, 1127.945556640625
107, 0, 0, 1113.343872070312
108, 0, 0, 1112.440551757812
109, 0, 0, 1115.090942382812
110, 0, 0, 1096.543334960938
111, 0, 0, 1091.420043945312
112, 0, 0, 1076.284301757812
113, 0, 0, 1076.30029296875
114, 0, 0, 1074.657104492188
115, 0, 0, 1067.09375
116, 0, 0, 1056.361572265625
117, 0, 0, 1046.178466796875
118, 0, 0, 1052.900024414062
119, 0, 0, 1028.66650390625
120, 0, 0, 1033.49755859375
121, 0, 0, 1030.627807617188
122, 0, 0, 1027.758666992188
123, 0, 0, 1022.116394042969
124, 0, 0, 1014.868957519531
125, 0, 0, 1012.745422363281
126, 0, 0, 1000.724670410156
127, 0, 0, 997.4706420898438
128, 0, 0, 990.9937133789062
129, 0, 0, 985.7462158203125
130, 0, 0, 983.513427734375
131, 0, 0, 980.1231689453125
132, 0, 0, 970.2172241210938
133, 0, 0, 973.0667114257812
134, 0, 0, 967.7940673828125
135, 0, 0, 964.8803100585938
136, 0, 0, 962.5496215820312
137, 0, 0, 953.9542846679688
138, 0, 0, 952.6429443359375
139, 0, 0, 940.1600341796875
140, 0, 0, 946.2857055664062
141, 0, 0, 927.7715454101562
142, 0, 0, 924.0527954101562
143, 0, 0, 932.337646484375
144, 0, 0, 931.6726684570312
145, 0, 0, 924.4931030273438
146, 0, 0, 916.0731201171875
147, 0, 0, 915.0869750976562
148, 0, 0, 912.6087036132812
149, 0, 0, 907.7887573242188
150, 0, 0, 907.5154418945312
151, 0, 0, 899.3085327148438
152, 0, 0, 897.4818725585938
153, 0, 0, 893.9065551757812
154, 0, 0, 890.6546630859375
155, 0, 0, 890.377197265625
156, 0, 0, 881.5130004882812
157, 0, 0, 877.8590698242188
158, 0, 0, 878.0454711914062
159, 0, 0, 876.044189453125
160, 0, 0, 874.5972900390625
161, 0, 0, 868.4999389648438
162, 0, 0, 866.980712890625
163, 0, 0, 860.3037719726562
164, 0, 0, 859.0324096679688
165, 0, 0, 860.3721923828125
166, 0, 0, 855.7916870117188
167, 0, 0, 850.57958984375
168, 0, 0, 849.8419189453125
169, 0, 0, 844.7240600585938
170, 0, 0, 842.9237060546875
171, 0, 0, 841.5107421875
172, 0, 0, 846.1931762695312
173, 0, 0, 831.4630126953125
174, 0, 0, 830.2672729492188
175, 0, 0, 837.9722900390625
176, 0, 0, 831.2432861328125
177, 0, 0, 828.053466796875
178, 0, 0, 822.8580932617188
179, 0, 0, 830.2014770507812
