# TOPAS Version: 3.3.p1
# Parameter File: Test.txt
# Results for scorer MLIC_Scorer
# Scored in component: MLIC
# X in 180 bins of 0.183333 cm
# Y in 1 bin  of 10 cm
# Z in 1 bin  of 10 cm
# EnergyDeposit ( MeV ) : Sum   
0, 0, 0, 0
1, 0, 0, 0
2, 0, 0, 0
3, 0, 0, 0
4, 0, 0, 0
5, 0, 0, 0
6, 0, 0, 0
7, 0, 0, 0
8, 0, 0, 0
9, 0, 0, 0
10, 0, 0, 0
11, 0, 0, 0
12, 0, 0, 0
13, 0, 0, 0
14, 0, 0, 0
15, 0, 0, 0
16, 0, 0, 0
17, 0, 0, 0
18, 0, 0, 0
19, 0, 0, 0
20, 0, 0, 0
21, 0, 0, 0
22, 0, 0, 0
23, 0, 0, 0
24, 0, 0, 0
25, 0, 0, 0
26, 0, 0, 0
27, 0, 0, 0
28, 0, 0, 0
29, 0, 0, 0
30, 0, 0, 0
31, 0, 0, 0
32, 0, 0, 0
33, 0, 0, 0
34, 0, 0, 0
35, 0, 0, 0
36, 0, 0, 0
37, 0, 0, 0
38, 0, 0, 0
39, 0, 0, 0
40, 0, 0, 0
41, 0, 0, 0
42, 0, 0, 0
43, 0, 0, 0
44, 0, 0, 0
45, 0, 0, 0
46, 0, 0, 0
47, 0, 0, 0
48, 0, 0, 0
49, 0, 0, 0
50, 0, 0, 0
51, 0, 0, 0
52, 0, 0, 0
53, 0, 0, 0
54, 0, 0, 0
55, 0, 0, 0
56, 0, 0, 0
57, 0, 0, 0
58, 0, 0, 0
59, 0, 0, 0
60, 0, 0, 0
61, 0, 0, 0
62, 0, 0, 0
63, 0, 0, 0
64, 0, 0, 0
65, 0, 0, 0
66, 0, 0, 0
67, 0, 0, 0
68, 0, 0, 0
69, 0, 0, 0
70, 0, 0, 0
71, 0, 0, 0
72, 0, 0, 0
73, 0, 0, 0
74, 0, 0, 0
75, 0, 0, 0
76, 0, 0, 0
77, 0, 0, 0
78, 0, 0, 0
79, 0, 0, 0
80, 0, 0, 0
81, 0, 0, 0
82, 0, 0, 0
83, 0, 0, 0
84, 0, 0, 0
85, 0, 0, 0
86, 0, 0, 0
87, 0, 0, 0
88, 0, 0, 0
89, 0, 0, 0
90, 0, 0, 0
91, 0, 0, 0
92, 0, 0, 0
93, 0, 0, 0
94, 0, 0, 0
95, 0, 0, 0
96, 0, 0, 0
97, 0, 0, 0
98, 0, 0, 0
99, 0, 0, 0
100, 0, 0, 0
101, 0, 0, 0
102, 0, 0, 0
103, 0, 0, 0
104, 0, 0, 0
105, 0, 0, 0
106, 0, 0, 0
107, 0, 0, 0
108, 0, 0, 0
109, 0, 0, 0
110, 0, 0, 0
111, 0, 0, 0
112, 0, 0, 0
113, 0, 0, 0.0009036239353008568
114, 0, 0, 0
115, 0, 0, 0
116, 0, 0, 0
117, 0, 0, 0
118, 0, 0, 0
119, 0, 0, 0
120, 0, 0, 10.42032146453857
121, 0, 0, 53.49883270263672
122, 0, 0, 219.862060546875
123, 0, 0, 799.577880859375
124, 0, 0, 2018.759765625
125, 0, 0, 3461.4267578125
126, 0, 0, 4640.4501953125
127, 0, 0, 5129.13818359375
128, 0, 0, 4914.40478515625
129, 0, 0, 4427.982421875
130, 0, 0, 3838.10986328125
131, 0, 0, 3427.093017578125
132, 0, 0, 3127.53173828125
133, 0, 0, 2916.04541015625
134, 0, 0, 2728.078125
135, 0, 0, 2588.358154296875
136, 0, 0, 2464.484375
137, 0, 0, 2360.981201171875
138, 0, 0, 2268.66845703125
139, 0, 0, 2201.539306640625
140, 0, 0, 2120.9296875
141, 0, 0, 2067.1435546875
142, 0, 0, 2010.676147460938
143, 0, 0, 1949.152221679688
144, 0, 0, 1900.36962890625
145, 0, 0, 1854.305541992188
146, 0, 0, 1827.962890625
147, 0, 0, 1786.169921875
148, 0, 0, 1750.212646484375
149, 0, 0, 1717.3857421875
150, 0, 0, 1691.58056640625
151, 0, 0, 1652.816528320312
152, 0, 0, 1632.981079101562
153, 0, 0, 1597.970458984375
154, 0, 0, 1575.760009765625
155, 0, 0, 1551.334350585938
156, 0, 0, 1527.197509765625
157, 0, 0, 1513.262451171875
158, 0, 0, 1489.643432617188
159, 0, 0, 1468.92578125
160, 0, 0, 1460.40576171875
161, 0, 0, 1440.558715820312
162, 0, 0, 1415.419555664062
163, 0, 0, 1409.79638671875
164, 0, 0, 1383.890625
165, 0, 0, 1374.67822265625
166, 0, 0, 1357.57763671875
167, 0, 0, 1344.144287109375
168, 0, 0, 1326.088623046875
169, 0, 0, 1309.111206054688
170, 0, 0, 1311.0849609375
171, 0, 0, 1296.631591796875
172, 0, 0, 1280.953491210938
173, 0, 0, 1266.601928710938
174, 0, 0, 1255.7490234375
175, 0, 0, 1246.8603515625
176, 0, 0, 1238.411987304688
177, 0, 0, 1228.694213867188
178, 0, 0, 1211.094848632812
179, 0, 0, 1207.953247070312
