# TOPAS Version: 3.3.p1
# Parameter File: Test.txt
# Results for scorer MLIC_Scorer
# Scored in component: MLIC
# X in 165 bins of 0.2 cm
# Y in 1 bin  of 10 cm
# Z in 1 bin  of 10 cm
# EnergyDeposit ( MeV ) : Sum   
0, 0, 0, 0
1, 0, 0, 0
2, 0, 0, 0
3, 0, 0, 0
4, 0, 0, 0
5, 0, 0, 0
6, 0, 0, 0
7, 0, 0, 0
8, 0, 0, 0
9, 0, 0, 0
10, 0, 0, 0
11, 0, 0, 0
12, 0, 0, 0
13, 0, 0, 0
14, 0, 0, 0
15, 0, 0, 0
16, 0, 0, 0
17, 0, 0, 0
18, 0, 0, 0
19, 0, 0, 0
20, 0, 0, 0
21, 0, 0, 0
22, 0, 0, 0
23, 0, 0, 0
24, 0, 0, 0
25, 0, 0, 0
26, 0, 0, 0
27, 0, 0, 0
28, 0, 0, 0
29, 0, 0, 0
30, 0, 0, 0
31, 0, 0, 0
32, 0, 0, 0
33, 0, 0, 0
34, 0, 0, 0
35, 0, 0, 0
36, 0, 0, 0
37, 0, 0, 0
38, 0, 0, 0
39, 0, 0, 0
40, 0, 0, 0
41, 0, 0, 0
42, 0, 0, 0
43, 0, 0, 0
44, 0, 0, 0
45, 0, 0, 0
46, 0, 0, 0
47, 0, 0, 0
48, 0, 0, 0
49, 0, 0, 0
50, 0, 0, 0
51, 0, 0, 0
52, 0, 0, 0
53, 0, 0, 0
54, 0, 0, 0
55, 0, 0, 0
56, 0, 0, 0
57, 0, 0, 0
58, 0, 0, 0
59, 0, 0, 0
60, 0, 0, 0
61, 0, 0, 0
62, 0, 0, 0
63, 0, 0, 0
64, 0, 0, 0
65, 0, 0, 0
66, 0, 0, 0
67, 0, 0, 0
68, 0, 0, 0
69, 0, 0, 0
70, 0, 0, 0
71, 0, 0, 0
72, 0, 0, 0
73, 0, 0, 0
74, 0, 0, 0
75, 0, 0, 0
76, 0, 0, 0
77, 0, 0, 0
78, 0, 0, 0
79, 0, 0, 0
80, 0, 0, 0
81, 0, 0, 0
82, 0, 0, 0
83, 0, 0, 0
84, 0, 0, 0
85, 0, 0, 0
86, 0, 0, 0
87, 0, 0, 0
88, 0, 0, 0
89, 0, 0, 0
90, 0, 0, 0
91, 0, 0, 0
92, 0, 0, 0
93, 0, 0, 0
94, 0, 0, 0
95, 0, 0, 0
96, 0, 0, 0
97, 0, 0, 0
98, 0, 0, 0
99, 0, 0, 0
100, 0, 0, 0
101, 0, 0, 0
102, 0, 0, 0
103, 0, 0, 0
104, 0, 0, 0
105, 0, 0, 0
106, 0, 0, 0
107, 0, 0, 3.958651542663574
108, 0, 0, 22.06827163696289
109, 0, 0, 34.11844635009766
110, 0, 0, 105.65771484375
111, 0, 0, 399.2637329101562
112, 0, 0, 1267.839477539062
113, 0, 0, 2957.351318359375
114, 0, 0, 4501.99560546875
115, 0, 0, 5343.23828125
116, 0, 0, 5378.8603515625
117, 0, 0, 4893.9306640625
118, 0, 0, 4344.10791015625
119, 0, 0, 3790.85986328125
120, 0, 0, 3420.841796875
121, 0, 0, 3144.87060546875
122, 0, 0, 2944.330810546875
123, 0, 0, 2779.7138671875
124, 0, 0, 2640.449462890625
125, 0, 0, 2528.9013671875
126, 0, 0, 2433.416259765625
127, 0, 0, 2345.140869140625
128, 0, 0, 2265.051513671875
129, 0, 0, 2191.139404296875
130, 0, 0, 2139.978271484375
131, 0, 0, 2077.1171875
132, 0, 0, 2019.735717773438
133, 0, 0, 1978.033935546875
134, 0, 0, 1936.205078125
135, 0, 0, 1889.19580078125
136, 0, 0, 1857.91455078125
137, 0, 0, 1818.30712890625
138, 0, 0, 1784.823974609375
139, 0, 0, 1747.729125976562
140, 0, 0, 1727.859741210938
141, 0, 0, 1703.271118164062
142, 0, 0, 1674.691528320312
143, 0, 0, 1641.757202148438
144, 0, 0, 1619.87646484375
145, 0, 0, 1592.7158203125
146, 0, 0, 1571.820556640625
147, 0, 0, 1560.263305664062
148, 0, 0, 1530.554931640625
149, 0, 0, 1520.725708007812
150, 0, 0, 1497.362670898438
151, 0, 0, 1480.702026367188
152, 0, 0, 1462.616577148438
153, 0, 0, 1450.94482421875
154, 0, 0, 1437.61279296875
155, 0, 0, 1418.635009765625
156, 0, 0, 1405.845458984375
157, 0, 0, 1386.374755859375
158, 0, 0, 1375.3642578125
159, 0, 0, 1363.58740234375
160, 0, 0, 1348.207153320312
161, 0, 0, 1339.04150390625
162, 0, 0, 1327.641357421875
163, 0, 0, 1319.14404296875
164, 0, 0, 1303.207275390625
