# TOPAS Version: 3.3.p1
# Parameter File: Test.txt
# Results for scorer MLIC_Scorer
# Scored in component: MLIC
# X in 180 bins of 0.177778 cm
# Y in 1 bin  of 10 cm
# Z in 1 bin  of 10 cm
# EnergyDeposit ( MeV ) : Sum   
0, 0, 0, 0
1, 0, 0, 0
2, 0, 0, 0
3, 0, 0, 0
4, 0, 0, 0
5, 0, 0, 0
6, 0, 0, 0
7, 0, 0, 0
8, 0, 0, 0
9, 0, 0, 0
10, 0, 0, 0
11, 0, 0, 0
12, 0, 0, 0
13, 0, 0, 0
14, 0, 0, 0
15, 0, 0, 0
16, 0, 0, 0
17, 0, 0, 0
18, 0, 0, 0
19, 0, 0, 0
20, 0, 0, 0
21, 0, 0, 17.38969993591309
22, 0, 0, 39.26227569580078
23, 0, 0, 158.0619049072266
24, 0, 0, 568.4494018554688
25, 0, 0, 1529.2099609375
26, 0, 0, 2987.997802734375
27, 0, 0, 4175.82373046875
28, 0, 0, 4838.66748046875
29, 0, 0, 4772.0693359375
30, 0, 0, 4504.486328125
31, 0, 0, 4006.0458984375
32, 0, 0, 3563.43798828125
33, 0, 0, 3209.146484375
34, 0, 0, 2942.229736328125
35, 0, 0, 2742.5615234375
36, 0, 0, 2597.33837890625
37, 0, 0, 2467.997802734375
38, 0, 0, 2364.16943359375
39, 0, 0, 2267.66455078125
40, 0, 0, 2182.19775390625
41, 0, 0, 2115.405517578125
42, 0, 0, 2039.791015625
43, 0, 0, 1992.189819335938
44, 0, 0, 1937.763793945312
45, 0, 0, 1892.935913085938
46, 0, 0, 1841.08154296875
47, 0, 0, 1802.547973632812
48, 0, 0, 1763.794311523438
49, 0, 0, 1725.176025390625
50, 0, 0, 1701.284545898438
51, 0, 0, 1660.576293945312
52, 0, 0, 1634.748901367188
53, 0, 0, 1611.518310546875
54, 0, 0, 1581.030029296875
55, 0, 0, 1555.159545898438
56, 0, 0, 1538.393676757812
57, 0, 0, 1505.385620117188
58, 0, 0, 1487.227294921875
59, 0, 0, 1473.371215820312
60, 0, 0, 1450.948974609375
61, 0, 0, 1429.6806640625
62, 0, 0, 1412.01220703125
63, 0, 0, 1397.629150390625
64, 0, 0, 1380.694580078125
65, 0, 0, 1371.867553710938
66, 0, 0, 1346.282348632812
67, 0, 0, 1334.802001953125
68, 0, 0, 1322.636962890625
69, 0, 0, 1311.95703125
70, 0, 0, 1293.861938476562
71, 0, 0, 1280.912231445312
72, 0, 0, 1270.681030273438
73, 0, 0, 1260.007446289062
74, 0, 0, 1247.292602539062
75, 0, 0, 1233.917724609375
76, 0, 0, 1227.268676757812
77, 0, 0, 1221.838500976562
78, 0, 0, 1206.560546875
79, 0, 0, 1199.725341796875
80, 0, 0, 1192.107788085938
81, 0, 0, 1177.965576171875
82, 0, 0, 1171.961547851562
83, 0, 0, 1158.7568359375
84, 0, 0, 1161.125366210938
85, 0, 0, 1145.453369140625
86, 0, 0, 1140.746215820312
87, 0, 0, 1123.90185546875
88, 0, 0, 1125.240844726562
89, 0, 0, 1111.261962890625
90, 0, 0, 1111.0126953125
91, 0, 0, 1102.113891601562
92, 0, 0, 1093.732177734375
93, 0, 0, 1087.568237304688
94, 0, 0, 1086.275512695312
95, 0, 0, 1068.867553710938
96, 0, 0, 1072.312377929688
97, 0, 0, 1057.363403320312
98, 0, 0, 1058.445556640625
99, 0, 0, 1057.503662109375
100, 0, 0, 1049.818237304688
101, 0, 0, 1039.952880859375
102, 0, 0, 1030.893432617188
103, 0, 0, 1020.27880859375
104, 0, 0, 1017.501281738281
105, 0, 0, 1016.247253417969
106, 0, 0, 1013.96875
107, 0, 0, 1008.805541992188
108, 0, 0, 1000.48486328125
109, 0, 0, 997.051513671875
110, 0, 0, 990.2763061523438
111, 0, 0, 982.8804321289062
112, 0, 0, 980.0845336914062
113, 0, 0, 976.7166748046875
114, 0, 0, 970.8538818359375
115, 0, 0, 963.2620239257812
116, 0, 0, 969.0194702148438
117, 0, 0, 961.8262329101562
118, 0, 0, 954.826171875
119, 0, 0, 952.7512817382812
120, 0, 0, 949.978515625
121, 0, 0, 947.1943359375
122, 0, 0, 941.2318115234375
123, 0, 0, 935.6953735351562
124, 0, 0, 933.9879760742188
125, 0, 0, 921.319091796875
126, 0, 0, 923.677734375
127, 0, 0, 927.1307373046875
128, 0, 0, 917.78125
129, 0, 0, 915.3261108398438
130, 0, 0, 908.0192260742188
131, 0, 0, 907.4886474609375
132, 0, 0, 913.7366943359375
133, 0, 0, 911.8355712890625
134, 0, 0, 904.52197265625
135, 0, 0, 896.3733520507812
136, 0, 0, 892.3885498046875
137, 0, 0, 884.561767578125
138, 0, 0, 880.578369140625
139, 0, 0, 875.3363037109375
140, 0, 0, 872.993408203125
141, 0, 0, 872.1245727539062
142, 0, 0, 869.6394653320312
143, 0, 0, 862.22412109375
144, 0, 0, 864.465576171875
145, 0, 0, 868.7274169921875
146, 0, 0, 867.8628540039062
147, 0, 0, 855.5210571289062
148, 0, 0, 859.5602416992188
149, 0, 0, 860.0324096679688
150, 0, 0, 849.1358642578125
151, 0, 0, 843.0496826171875
152, 0, 0, 840.5183715820312
153, 0, 0, 835.287353515625
154, 0, 0, 844.8182983398438
155, 0, 0, 840.0421752929688
156, 0, 0, 837.123779296875
157, 0, 0, 830.2003173828125
158, 0, 0, 822.1546630859375
159, 0, 0, 828.45556640625
160, 0, 0, 823.40869140625
161, 0, 0, 816.0780029296875
162, 0, 0, 815.4085693359375
163, 0, 0, 817.06103515625
164, 0, 0, 810.372802734375
165, 0, 0, 809.51708984375
166, 0, 0, 808.739013671875
167, 0, 0, 815.4481201171875
168, 0, 0, 810.7136840820312
169, 0, 0, 802.1402587890625
170, 0, 0, 802.2173461914062
171, 0, 0, 800.524169921875
172, 0, 0, 796.7785034179688
173, 0, 0, 800.9760131835938
174, 0, 0, 794.7122192382812
175, 0, 0, 787.9627685546875
176, 0, 0, 796.0653686523438
177, 0, 0, 782.6998291015625
178, 0, 0, 790.36669921875
179, 0, 0, 787.0917358398438
