# TOPAS Version: 3.3.p1
# Parameter File: Test.txt
# Results for scorer MLIC_Scorer
# Scored in component: MLIC
# X in 180 bins of 0.177778 cm
# Y in 1 bin  of 10 cm
# Z in 1 bin  of 10 cm
# EnergyDeposit ( MeV ) : Sum   
0, 0, 0, 0
1, 0, 0, 0
2, 0, 0, 0
3, 0, 0, 0.0001604574208613485
4, 0, 0, 0
5, 0, 0, 8.560256004333496
6, 0, 0, 41.75247573852539
7, 0, 0, 272.7760314941406
8, 0, 0, 894.4799194335938
9, 0, 0, 1997.513671875
10, 0, 0, 3179.514404296875
11, 0, 0, 4283.93408203125
12, 0, 0, 4950.96337890625
13, 0, 0, 4959.966796875
14, 0, 0, 4426.75537109375
15, 0, 0, 3855.6689453125
16, 0, 0, 3417.670166015625
17, 0, 0, 3090.37890625
18, 0, 0, 2866.43994140625
19, 0, 0, 2691.31494140625
20, 0, 0, 2550.102294921875
21, 0, 0, 2431.157958984375
22, 0, 0, 2327.92138671875
23, 0, 0, 2244.52099609375
24, 0, 0, 2168.113525390625
25, 0, 0, 2093.36279296875
26, 0, 0, 2029.58544921875
27, 0, 0, 1984.210815429688
28, 0, 0, 1924.703979492188
29, 0, 0, 1874.80908203125
30, 0, 0, 1831.524658203125
31, 0, 0, 1790.529541015625
32, 0, 0, 1751.852783203125
33, 0, 0, 1722.892333984375
34, 0, 0, 1688.581176757812
35, 0, 0, 1658.962768554688
36, 0, 0, 1634.27587890625
37, 0, 0, 1605.398193359375
38, 0, 0, 1576.753295898438
39, 0, 0, 1548.319946289062
40, 0, 0, 1521.967163085938
41, 0, 0, 1501.837036132812
42, 0, 0, 1488.430053710938
43, 0, 0, 1466.371459960938
44, 0, 0, 1443.352661132812
45, 0, 0, 1430.235717773438
46, 0, 0, 1410.443481445312
47, 0, 0, 1399.873901367188
48, 0, 0, 1380.175170898438
49, 0, 0, 1360.695922851562
50, 0, 0, 1348.99951171875
51, 0, 0, 1334.26025390625
52, 0, 0, 1312.40771484375
53, 0, 0, 1306.724975585938
54, 0, 0, 1290.018920898438
55, 0, 0, 1280.442504882812
56, 0, 0, 1269.528442382812
57, 0, 0, 1265.696533203125
58, 0, 0, 1243.817749023438
59, 0, 0, 1229.182861328125
60, 0, 0, 1222.48095703125
61, 0, 0, 1217.789916992188
62, 0, 0, 1208.796508789062
63, 0, 0, 1202.990356445312
64, 0, 0, 1179.889038085938
65, 0, 0, 1173.77392578125
66, 0, 0, 1167.878295898438
67, 0, 0, 1153.713623046875
68, 0, 0, 1155.696899414062
69, 0, 0, 1141.79638671875
70, 0, 0, 1133.123657226562
71, 0, 0, 1128.097534179688
72, 0, 0, 1118.8193359375
73, 0, 0, 1113.126831054688
74, 0, 0, 1102.6923828125
75, 0, 0, 1108.61962890625
76, 0, 0, 1090.439331054688
77, 0, 0, 1094.316162109375
78, 0, 0, 1074.660888671875
79, 0, 0, 1070.945190429688
80, 0, 0, 1063.680541992188
81, 0, 0, 1058.789672851562
82, 0, 0, 1047.80615234375
83, 0, 0, 1044.521240234375
84, 0, 0, 1041.837768554688
85, 0, 0, 1043.523803710938
86, 0, 0, 1017.992431640625
87, 0, 0, 1022.294372558594
88, 0, 0, 1023.753173828125
89, 0, 0, 1017.668823242188
90, 0, 0, 1013.238647460938
91, 0, 0, 1001.605224609375
92, 0, 0, 996.1630859375
93, 0, 0, 987.503662109375
94, 0, 0, 985.8048095703125
95, 0, 0, 991.933349609375
96, 0, 0, 975.0484008789062
97, 0, 0, 975.9230346679688
98, 0, 0, 972.2430419921875
99, 0, 0, 963.65087890625
100, 0, 0, 976.4231567382812
101, 0, 0, 955.6109008789062
102, 0, 0, 949.2877807617188
103, 0, 0, 953.113037109375
104, 0, 0, 943.7428588867188
105, 0, 0, 939.3385009765625
106, 0, 0, 942.14599609375
107, 0, 0, 931.3193969726562
108, 0, 0, 931.7015380859375
109, 0, 0, 933.5034790039062
110, 0, 0, 922.3886108398438
111, 0, 0, 920.3287353515625
112, 0, 0, 919.6639404296875
113, 0, 0, 920.5550537109375
114, 0, 0, 908.4021606445312
115, 0, 0, 905.1783447265625
116, 0, 0, 894.6769409179688
117, 0, 0, 892.133056640625
118, 0, 0, 894.052978515625
119, 0, 0, 890.7606811523438
120, 0, 0, 885.255859375
121, 0, 0, 884.573974609375
122, 0, 0, 884.8497924804688
123, 0, 0, 887.9954833984375
124, 0, 0, 878.0546875
125, 0, 0, 875.6412963867188
126, 0, 0, 868.081298828125
127, 0, 0, 864.0722045898438
128, 0, 0, 870.9360961914062
129, 0, 0, 870.3072509765625
130, 0, 0, 861.4229125976562
131, 0, 0, 857.99072265625
132, 0, 0, 850.0827026367188
133, 0, 0, 849.2867431640625
134, 0, 0, 845.1021118164062
135, 0, 0, 844.0133666992188
136, 0, 0, 838.781494140625
137, 0, 0, 838.178955078125
138, 0, 0, 846.656494140625
139, 0, 0, 830.5390625
140, 0, 0, 832.72265625
141, 0, 0, 831.1190795898438
142, 0, 0, 822.7137451171875
143, 0, 0, 827.7125244140625
144, 0, 0, 819.99609375
145, 0, 0, 826.6370239257812
146, 0, 0, 821.101318359375
147, 0, 0, 811.241455078125
148, 0, 0, 805.51904296875
149, 0, 0, 814.1182250976562
150, 0, 0, 810.5980224609375
151, 0, 0, 805.766357421875
152, 0, 0, 805.70166015625
153, 0, 0, 807.3770751953125
154, 0, 0, 803.3959350585938
155, 0, 0, 800.9183959960938
156, 0, 0, 794.5199584960938
157, 0, 0, 795.8033447265625
158, 0, 0, 798.22216796875
159, 0, 0, 796.3102416992188
160, 0, 0, 793.3308715820312
161, 0, 0, 794.7404174804688
162, 0, 0, 787.8973388671875
163, 0, 0, 781.09814453125
164, 0, 0, 778.8002319335938
165, 0, 0, 783.1193237304688
166, 0, 0, 774.6803588867188
167, 0, 0, 776.994384765625
168, 0, 0, 772.0739135742188
169, 0, 0, 770.1039428710938
170, 0, 0, 766.6619262695312
171, 0, 0, 763.5694580078125
172, 0, 0, 763.7410278320312
173, 0, 0, 766.078125
174, 0, 0, 754.415771484375
175, 0, 0, 761.2088623046875
176, 0, 0, 759.7457885742188
177, 0, 0, 764.7018432617188
178, 0, 0, 752.9098510742188
179, 0, 0, 754.0494995117188
