# TOPAS Version: 3.3.p1
# Parameter File: Test.txt
# Results for scorer MLIC_Scorer
# Scored in component: MLIC
# X in 165 bins of 0.2 cm
# Y in 1 bin  of 10 cm
# Z in 1 bin  of 10 cm
# EnergyDeposit ( MeV ) : Sum   
0, 0, 0, 0
1, 0, 0, 0
2, 0, 0, 0
3, 0, 0, 0
4, 0, 0, 0
5, 0, 0, 0
6, 0, 0, 0
7, 0, 0, 0
8, 0, 0, 0
9, 0, 0, 0
10, 0, 0, 0
11, 0, 0, 0
12, 0, 0, 0
13, 0, 0, 0
14, 0, 0, 0
15, 0, 0, 0
16, 0, 0, 0
17, 0, 0, 0
18, 0, 0, 0
19, 0, 0, 0
20, 0, 0, 0
21, 0, 0, 0
22, 0, 0, 0
23, 0, 0, 0
24, 0, 0, 0
25, 0, 0, 0
26, 0, 0, 0
27, 0, 0, 0
28, 0, 0, 0
29, 0, 0, 0
30, 0, 0, 0
31, 0, 0, 0
32, 0, 0, 0
33, 0, 0, 0
34, 0, 0, 0
35, 0, 0, 0
36, 0, 0, 0
37, 0, 0, 0
38, 0, 0, 0
39, 0, 0, 0
40, 0, 0, 0
41, 0, 0, 0
42, 0, 0, 0
43, 0, 0, 0
44, 0, 0, 0
45, 0, 0, 0
46, 0, 0, 0
47, 0, 0, 0
48, 0, 0, 0
49, 0, 0, 0
50, 0, 0, 0
51, 0, 0, 0.0311612207442522
52, 0, 0, 0
53, 0, 0, 0
54, 0, 0, 6.41109561920166
55, 0, 0, 29.35733032226562
56, 0, 0, 137.1522979736328
57, 0, 0, 521.1876831054688
58, 0, 0, 1515.405029296875
59, 0, 0, 2771.025390625
60, 0, 0, 4767.41845703125
61, 0, 0, 5550.97998046875
62, 0, 0, 5359.97119140625
63, 0, 0, 4832.15185546875
64, 0, 0, 4240.6494140625
65, 0, 0, 3737.572265625
66, 0, 0, 3377.49560546875
67, 0, 0, 3114.09326171875
68, 0, 0, 2916.031005859375
69, 0, 0, 2761.7509765625
70, 0, 0, 2635.529296875
71, 0, 0, 2517.630859375
72, 0, 0, 2419.550537109375
73, 0, 0, 2340.468994140625
74, 0, 0, 2255.0654296875
75, 0, 0, 2195.239013671875
76, 0, 0, 2133.350830078125
77, 0, 0, 2082.3984375
78, 0, 0, 2017.780029296875
79, 0, 0, 1966.770385742188
80, 0, 0, 1921.875610351562
81, 0, 0, 1889.7255859375
82, 0, 0, 1849.071899414062
83, 0, 0, 1820.355102539062
84, 0, 0, 1777.758911132812
85, 0, 0, 1744.0107421875
86, 0, 0, 1714.55029296875
87, 0, 0, 1695.779907226562
88, 0, 0, 1668.339721679688
89, 0, 0, 1643.941040039062
90, 0, 0, 1609.122314453125
91, 0, 0, 1595.940185546875
92, 0, 0, 1580.837524414062
93, 0, 0, 1548.32958984375
94, 0, 0, 1530.0615234375
95, 0, 0, 1515.793334960938
96, 0, 0, 1494.8974609375
97, 0, 0, 1476.023071289062
98, 0, 0, 1466.118408203125
99, 0, 0, 1450.589721679688
100, 0, 0, 1436.035888671875
101, 0, 0, 1420.980224609375
102, 0, 0, 1405.655639648438
103, 0, 0, 1387.27490234375
104, 0, 0, 1371.717651367188
105, 0, 0, 1362.74853515625
106, 0, 0, 1347.017578125
107, 0, 0, 1335.096923828125
108, 0, 0, 1326.557006835938
109, 0, 0, 1310.9736328125
110, 0, 0, 1300.908325195312
111, 0, 0, 1291.804443359375
112, 0, 0, 1279.766479492188
113, 0, 0, 1280.636474609375
114, 0, 0, 1260.102416992188
115, 0, 0, 1253.1572265625
116, 0, 0, 1242.309204101562
117, 0, 0, 1243.605102539062
118, 0, 0, 1220.678344726562
119, 0, 0, 1220.448120117188
120, 0, 0, 1215.3408203125
121, 0, 0, 1192.837646484375
122, 0, 0, 1192.35546875
123, 0, 0, 1185.16064453125
124, 0, 0, 1178.395874023438
125, 0, 0, 1160.586303710938
126, 0, 0, 1171.619995117188
127, 0, 0, 1160.204833984375
128, 0, 0, 1154.051391601562
129, 0, 0, 1141.63720703125
130, 0, 0, 1141.83544921875
131, 0, 0, 1126.973022460938
132, 0, 0, 1122.254272460938
133, 0, 0, 1112.02099609375
134, 0, 0, 1113.4228515625
135, 0, 0, 1107.482055664062
136, 0, 0, 1098.94091796875
137, 0, 0, 1100.824951171875
138, 0, 0, 1085.368286132812
139, 0, 0, 1084.432495117188
140, 0, 0, 1078.299438476562
141, 0, 0, 1075.128051757812
142, 0, 0, 1069.916015625
143, 0, 0, 1059.195922851562
144, 0, 0, 1063.382568359375
145, 0, 0, 1054.767578125
146, 0, 0, 1050.044921875
147, 0, 0, 1043.267456054688
148, 0, 0, 1034.751342773438
149, 0, 0, 1028.065185546875
150, 0, 0, 1033.873901367188
151, 0, 0, 1027.789916992188
152, 0, 0, 1020.904357910156
153, 0, 0, 1024.016967773438
154, 0, 0, 1016.867797851562
155, 0, 0, 1010.910766601562
156, 0, 0, 1010.710510253906
157, 0, 0, 1009.323852539062
158, 0, 0, 997.5789184570312
159, 0, 0, 986.39453125
160, 0, 0, 987.4442749023438
161, 0, 0, 978.0803833007812
162, 0, 0, 980.60546875
163, 0, 0, 980.853759765625
164, 0, 0, 975.8820190429688
