# TOPAS Version: 3.3.p1
# Parameter File: Test.txt
# Results for scorer MLIC_Scorer
# Scored in component: MLIC
# X in 180 bins of 0.183333 cm
# Y in 1 bin  of 10 cm
# Z in 1 bin  of 10 cm
# EnergyDeposit ( MeV ) : Sum   
0, 0, 0, 0
1, 0, 0, 0
2, 0, 0, 0
3, 0, 0, 0
4, 0, 0, 0
5, 0, 0, 0
6, 0, 0, 0
7, 0, 0, 0
8, 0, 0, 0
9, 0, 0, 0
10, 0, 0, 0
11, 0, 0, 0
12, 0, 0, 0
13, 0, 0, 0
14, 0, 0, 0
15, 0, 0, 0
16, 0, 0, 0
17, 0, 0, 0
18, 0, 0, 0
19, 0, 0, 0
20, 0, 0, 0
21, 0, 0, 0
22, 0, 0, 0
23, 0, 0, 0
24, 0, 0, 0
25, 0, 0, 0
26, 0, 0, 0
27, 0, 0, 0
28, 0, 0, 0.006595737300813198
29, 0, 0, 0
30, 0, 0, 0
31, 0, 0, 0
32, 0, 0, 0
33, 0, 0, 0.02172075398266315
34, 0, 0, 0
35, 0, 0, 0
36, 0, 0, 11.04903316497803
37, 0, 0, 70.20783996582031
38, 0, 0, 210.4940795898438
39, 0, 0, 808.619140625
40, 0, 0, 1905.327270507812
41, 0, 0, 3583.17578125
42, 0, 0, 4836.4599609375
43, 0, 0, 5109.82861328125
44, 0, 0, 4965.44970703125
45, 0, 0, 4351.2578125
46, 0, 0, 3857.59033203125
47, 0, 0, 3430.10595703125
48, 0, 0, 3132.211181640625
49, 0, 0, 2901.219482421875
50, 0, 0, 2718.71728515625
51, 0, 0, 2577.045166015625
52, 0, 0, 2464.546142578125
53, 0, 0, 2356.54638671875
54, 0, 0, 2273.077392578125
55, 0, 0, 2194.27978515625
56, 0, 0, 2117.013916015625
57, 0, 0, 2058.171875
58, 0, 0, 2006.6513671875
59, 0, 0, 1951.996826171875
60, 0, 0, 1908.846313476562
61, 0, 0, 1857.0283203125
62, 0, 0, 1821.516845703125
63, 0, 0, 1783.00048828125
64, 0, 0, 1742.5224609375
65, 0, 0, 1714.6357421875
66, 0, 0, 1687.506469726562
67, 0, 0, 1647.120483398438
68, 0, 0, 1632.843017578125
69, 0, 0, 1606.417846679688
70, 0, 0, 1582.650146484375
71, 0, 0, 1549.3046875
72, 0, 0, 1531.549926757812
73, 0, 0, 1505.35693359375
74, 0, 0, 1487.867797851562
75, 0, 0, 1470.826293945312
76, 0, 0, 1454.54736328125
77, 0, 0, 1434.77587890625
78, 0, 0, 1414.351684570312
79, 0, 0, 1399.714477539062
80, 0, 0, 1381.718017578125
81, 0, 0, 1371.690063476562
82, 0, 0, 1360.3642578125
83, 0, 0, 1342.892700195312
84, 0, 0, 1329.612060546875
85, 0, 0, 1327.614868164062
86, 0, 0, 1304.706787109375
87, 0, 0, 1290.3349609375
88, 0, 0, 1271.682373046875
89, 0, 0, 1272.684936523438
90, 0, 0, 1256.734130859375
91, 0, 0, 1246.167236328125
92, 0, 0, 1235.400634765625
93, 0, 0, 1225.467041015625
94, 0, 0, 1217.677368164062
95, 0, 0, 1202.561279296875
96, 0, 0, 1195.701538085938
97, 0, 0, 1190.225830078125
98, 0, 0, 1176.238403320312
99, 0, 0, 1171.120849609375
100, 0, 0, 1165.141723632812
101, 0, 0, 1154.943969726562
102, 0, 0, 1157.972290039062
103, 0, 0, 1142.621337890625
104, 0, 0, 1129.32373046875
105, 0, 0, 1133.283569335938
106, 0, 0, 1118.646240234375
107, 0, 0, 1109.403686523438
108, 0, 0, 1102.317016601562
109, 0, 0, 1093.0205078125
110, 0, 0, 1099.285400390625
111, 0, 0, 1083.770874023438
112, 0, 0, 1081.629760742188
113, 0, 0, 1069.63134765625
114, 0, 0, 1064.58984375
115, 0, 0, 1060.975830078125
116, 0, 0, 1052.57568359375
117, 0, 0, 1044.310913085938
118, 0, 0, 1047.811645507812
119, 0, 0, 1035.224487304688
120, 0, 0, 1040.908813476562
121, 0, 0, 1032.455078125
122, 0, 0, 1020.874755859375
123, 0, 0, 1012.471801757812
124, 0, 0, 1012.612670898438
125, 0, 0, 1012.019226074219
126, 0, 0, 1006.211669921875
127, 0, 0, 997.432373046875
128, 0, 0, 986.334228515625
129, 0, 0, 989.760009765625
130, 0, 0, 984.8919067382812
131, 0, 0, 985.4889526367188
132, 0, 0, 974.7694091796875
133, 0, 0, 966.0516967773438
134, 0, 0, 966.595703125
135, 0, 0, 958.118896484375
136, 0, 0, 955.8193359375
137, 0, 0, 965.3130493164062
138, 0, 0, 952.3721923828125
139, 0, 0, 944.4912719726562
140, 0, 0, 944.0159301757812
141, 0, 0, 940.459716796875
142, 0, 0, 927.7732543945312
143, 0, 0, 939.3910522460938
144, 0, 0, 928.05224609375
145, 0, 0, 928.8802490234375
146, 0, 0, 923.0427856445312
147, 0, 0, 914.2120971679688
148, 0, 0, 915.2827758789062
149, 0, 0, 911.7799072265625
150, 0, 0, 905.3142700195312
151, 0, 0, 906.4434814453125
152, 0, 0, 899.2444458007812
153, 0, 0, 894.60205078125
154, 0, 0, 892.0631713867188
155, 0, 0, 890.2283325195312
156, 0, 0, 890.216552734375
157, 0, 0, 882.883056640625
158, 0, 0, 885.88525390625
159, 0, 0, 885.1070556640625
160, 0, 0, 877.0360107421875
161, 0, 0, 874.4625244140625
162, 0, 0, 881.011474609375
163, 0, 0, 870.2208862304688
164, 0, 0, 861.7898559570312
165, 0, 0, 867.7958374023438
166, 0, 0, 859.8071899414062
167, 0, 0, 865.39404296875
168, 0, 0, 859.760498046875
169, 0, 0, 851.0758666992188
170, 0, 0, 851.1104125976562
171, 0, 0, 845.7708129882812
172, 0, 0, 838.7276611328125
173, 0, 0, 851.45068359375
174, 0, 0, 835.0269165039062
175, 0, 0, 831.7733764648438
176, 0, 0, 835.8075561523438
177, 0, 0, 832.6356811523438
178, 0, 0, 828.8907470703125
179, 0, 0, 830.9085693359375
