# TOPAS Version: 3.3.p1
# Parameter File: Test.txt
# Results for scorer MLIC_Scorer
# Scored in component: MLIC
# X in 165 bins of 0.2 cm
# Y in 1 bin  of 10 cm
# Z in 1 bin  of 10 cm
# EnergyDeposit ( MeV ) : Sum   
0, 0, 0, 0
1, 0, 0, 0
2, 0, 0, 0
3, 0, 0, 0
4, 0, 0, 0
5, 0, 0, 0
6, 0, 0, 0
7, 0, 0, 0
8, 0, 0, 0
9, 0, 0, 0
10, 0, 0, 0
11, 0, 0, 0
12, 0, 0, 0
13, 0, 0, 0
14, 0, 0, 0
15, 0, 0, 0
16, 0, 0, 0
17, 0, 0, 0
18, 0, 0, 0
19, 0, 0, 0
20, 0, 0, 0
21, 0, 0, 0
22, 0, 0, 0
23, 0, 0, 0
24, 0, 0, 0
25, 0, 0, 0
26, 0, 0, 0.005556619260460138
27, 0, 0, 0
28, 0, 0, 0
29, 0, 0, 0
30, 0, 0, 0
31, 0, 0, 0
32, 0, 0, 0
33, 0, 0, 0
34, 0, 0, 0
35, 0, 0, 0
36, 0, 0, 0
37, 0, 0, 0
38, 0, 0, 0
39, 0, 0, 0
40, 0, 0, 0
41, 0, 0, 0
42, 0, 0, 0
43, 0, 0, 0
44, 0, 0, 0
45, 0, 0, 0
46, 0, 0, 9.669706344604492
47, 0, 0, 7.262694835662842
48, 0, 0, 73.48883819580078
49, 0, 0, 140.1458587646484
50, 0, 0, 488.7502746582031
51, 0, 0, 1528.842407226562
52, 0, 0, 3097.660400390625
53, 0, 0, 4683.71044921875
54, 0, 0, 5505.20068359375
55, 0, 0, 5240.30078125
56, 0, 0, 4803.26611328125
57, 0, 0, 4182.94873046875
58, 0, 0, 3737.81298828125
59, 0, 0, 3399.332763671875
60, 0, 0, 3127.916259765625
61, 0, 0, 2928.071533203125
62, 0, 0, 2763.423583984375
63, 0, 0, 2625.757080078125
64, 0, 0, 2509.456298828125
65, 0, 0, 2415.449951171875
66, 0, 0, 2337.60546875
67, 0, 0, 2253.260009765625
68, 0, 0, 2175.066650390625
69, 0, 0, 2123.424072265625
70, 0, 0, 2065.948974609375
71, 0, 0, 2018.850708007812
72, 0, 0, 1973.9833984375
73, 0, 0, 1920.036743164062
74, 0, 0, 1878.790771484375
75, 0, 0, 1852.697387695312
76, 0, 0, 1817.02392578125
77, 0, 0, 1783.767944335938
78, 0, 0, 1752.983642578125
79, 0, 0, 1723.83251953125
80, 0, 0, 1685.279418945312
81, 0, 0, 1666.204833984375
82, 0, 0, 1644.519409179688
83, 0, 0, 1624.278930664062
84, 0, 0, 1589.973876953125
85, 0, 0, 1581.884643554688
86, 0, 0, 1546.24365234375
87, 0, 0, 1527.928955078125
88, 0, 0, 1514.503051757812
89, 0, 0, 1496.824829101562
90, 0, 0, 1481.401489257812
91, 0, 0, 1466.034423828125
92, 0, 0, 1439.86328125
93, 0, 0, 1431.234252929688
94, 0, 0, 1416.212524414062
95, 0, 0, 1401.421508789062
96, 0, 0, 1391.404418945312
97, 0, 0, 1370.472290039062
98, 0, 0, 1358.863891601562
99, 0, 0, 1350.490112304688
100, 0, 0, 1336.875732421875
101, 0, 0, 1331.215087890625
102, 0, 0, 1320.008056640625
103, 0, 0, 1300.6904296875
104, 0, 0, 1290.023193359375
105, 0, 0, 1278.57666015625
106, 0, 0, 1275.06201171875
107, 0, 0, 1261.692626953125
108, 0, 0, 1252.68212890625
109, 0, 0, 1243.088012695312
110, 0, 0, 1239.819458007812
111, 0, 0, 1226.358154296875
112, 0, 0, 1226.295532226562
113, 0, 0, 1209.174194335938
114, 0, 0, 1195.919311523438
115, 0, 0, 1190.544921875
116, 0, 0, 1189.934814453125
117, 0, 0, 1178.638793945312
118, 0, 0, 1173.856079101562
119, 0, 0, 1166.226318359375
120, 0, 0, 1155.864135742188
121, 0, 0, 1146.48046875
122, 0, 0, 1142.7841796875
123, 0, 0, 1137.917114257812
124, 0, 0, 1131.170043945312
125, 0, 0, 1124.898071289062
126, 0, 0, 1119.892456054688
127, 0, 0, 1115.319946289062
128, 0, 0, 1116.522705078125
129, 0, 0, 1096.32861328125
130, 0, 0, 1096.3193359375
131, 0, 0, 1094.484497070312
132, 0, 0, 1081.808471679688
133, 0, 0, 1076.038818359375
134, 0, 0, 1073.750732421875
135, 0, 0, 1074.855224609375
136, 0, 0, 1061.93017578125
137, 0, 0, 1052.790283203125
138, 0, 0, 1048.396362304688
139, 0, 0, 1047.53369140625
140, 0, 0, 1043.819702148438
141, 0, 0, 1040.393676757812
142, 0, 0, 1031.836059570312
143, 0, 0, 1034.24169921875
144, 0, 0, 1019.928039550781
145, 0, 0, 1015.045959472656
146, 0, 0, 1008.598937988281
147, 0, 0, 1005.058471679688
148, 0, 0, 1005.333984375
149, 0, 0, 1004.264892578125
150, 0, 0, 994.140625
151, 0, 0, 1007.189636230469
152, 0, 0, 988.0740966796875
153, 0, 0, 991.5946655273438
154, 0, 0, 984.248779296875
155, 0, 0, 981.3313598632812
156, 0, 0, 987.5668334960938
157, 0, 0, 972.6946411132812
158, 0, 0, 976.8964233398438
159, 0, 0, 968.3799438476562
160, 0, 0, 967.5973510742188
161, 0, 0, 962.3718872070312
162, 0, 0, 950.8012084960938
163, 0, 0, 950.428466796875
164, 0, 0, 949.8662109375
