# TOPAS Version: 3.3.p1
# Parameter File: Test.txt
# Results for scorer MLIC_Scorer
# Scored in component: MLIC
# X in 180 bins of 0.177778 cm
# Y in 1 bin  of 10 cm
# Z in 1 bin  of 10 cm
# EnergyDeposit ( MeV ) : Sum   
0, 0, 0, 0
1, 0, 0, 0
2, 0, 0, 0
3, 0, 0, 0
4, 0, 0, 0
5, 0, 0, 0
6, 0, 0, 0
7, 0, 0, 0
8, 0, 0, 0
9, 0, 0, 0
10, 0, 0, 0
11, 0, 0, 0
12, 0, 0, 0
13, 0, 0, 0
14, 0, 0, 0
15, 0, 0, 0
16, 0, 0, 0
17, 0, 0, 0
18, 0, 0, 0
19, 0, 0, 0
20, 0, 0, 0
21, 0, 0, 0
22, 0, 0, 0
23, 0, 0, 0
24, 0, 0, 0
25, 0, 0, 0
26, 0, 0, 0
27, 0, 0, 0
28, 0, 0, 0
29, 0, 0, 0
30, 0, 0, 0.005169827956706285
31, 0, 0, 0
32, 0, 0, 0
33, 0, 0, 0
34, 0, 0, 0
35, 0, 0, 2.936936140060425
36, 0, 0, 70.82530212402344
37, 0, 0, 262.6201782226562
38, 0, 0, 730.4290161132812
39, 0, 0, 1847.963745117188
40, 0, 0, 3224.892822265625
41, 0, 0, 4476.91162109375
42, 0, 0, 5133.5234375
43, 0, 0, 4877.5361328125
44, 0, 0, 4358.3427734375
45, 0, 0, 3811.312255859375
46, 0, 0, 3423.11474609375
47, 0, 0, 3111.727294921875
48, 0, 0, 2879.870361328125
49, 0, 0, 2700.13330078125
50, 0, 0, 2559.29443359375
51, 0, 0, 2425.12060546875
52, 0, 0, 2329.57763671875
53, 0, 0, 2237.9638671875
54, 0, 0, 2167.616943359375
55, 0, 0, 2089.29443359375
56, 0, 0, 2041.269653320312
57, 0, 0, 1972.354125976562
58, 0, 0, 1917.081420898438
59, 0, 0, 1876.213256835938
60, 0, 0, 1836.062622070312
61, 0, 0, 1787.40625
62, 0, 0, 1753.108520507812
63, 0, 0, 1721.9111328125
64, 0, 0, 1686.598999023438
65, 0, 0, 1653.314453125
66, 0, 0, 1633.850830078125
67, 0, 0, 1597.78466796875
68, 0, 0, 1578.042602539062
69, 0, 0, 1555.14892578125
70, 0, 0, 1529.642822265625
71, 0, 0, 1503.22314453125
72, 0, 0, 1479.291381835938
73, 0, 0, 1466.16748046875
74, 0, 0, 1449.476684570312
75, 0, 0, 1431.554321289062
76, 0, 0, 1410.786254882812
77, 0, 0, 1395.057495117188
78, 0, 0, 1366.605590820312
79, 0, 0, 1373.564208984375
80, 0, 0, 1352.048950195312
81, 0, 0, 1331.595581054688
82, 0, 0, 1318.204467773438
83, 0, 0, 1303.716918945312
84, 0, 0, 1290.283203125
85, 0, 0, 1280.76171875
86, 0, 0, 1271.163452148438
87, 0, 0, 1259.124633789062
88, 0, 0, 1243.349731445312
89, 0, 0, 1228.962158203125
90, 0, 0, 1223.462890625
91, 0, 0, 1215.578857421875
92, 0, 0, 1207.607788085938
93, 0, 0, 1191.284912109375
94, 0, 0, 1185.843139648438
95, 0, 0, 1169.030395507812
96, 0, 0, 1160.170776367188
97, 0, 0, 1161.88525390625
98, 0, 0, 1148.987548828125
99, 0, 0, 1151.125732421875
100, 0, 0, 1136.844116210938
101, 0, 0, 1132.441528320312
102, 0, 0, 1119.15283203125
103, 0, 0, 1106.791870117188
104, 0, 0, 1106.2578125
105, 0, 0, 1098.142578125
106, 0, 0, 1092.67724609375
107, 0, 0, 1085.60498046875
108, 0, 0, 1074.04931640625
109, 0, 0, 1069.492919921875
110, 0, 0, 1068.298828125
111, 0, 0, 1062.153686523438
112, 0, 0, 1053.957275390625
113, 0, 0, 1050.511962890625
114, 0, 0, 1041.981323242188
115, 0, 0, 1039.065307617188
116, 0, 0, 1026.831909179688
117, 0, 0, 1026.432495117188
118, 0, 0, 1020.10595703125
119, 0, 0, 1017.065856933594
120, 0, 0, 1009.644592285156
121, 0, 0, 1004.4423828125
122, 0, 0, 1011.201416015625
123, 0, 0, 997.5308227539062
124, 0, 0, 993.6782836914062
125, 0, 0, 982.360595703125
126, 0, 0, 981.5357055664062
127, 0, 0, 973.2099609375
128, 0, 0, 965.3069458007812
129, 0, 0, 972.0586547851562
130, 0, 0, 960.2012939453125
131, 0, 0, 963.2890014648438
132, 0, 0, 955.5286254882812
133, 0, 0, 940.9081420898438
134, 0, 0, 939.388671875
135, 0, 0, 944.3140258789062
136, 0, 0, 935.775146484375
137, 0, 0, 945.0931396484375
138, 0, 0, 927.093017578125
139, 0, 0, 927.3284912109375
140, 0, 0, 916.780029296875
141, 0, 0, 917.537841796875
142, 0, 0, 906.924560546875
143, 0, 0, 906.4419555664062
144, 0, 0, 912.234619140625
145, 0, 0, 912.0400390625
146, 0, 0, 905.275390625
147, 0, 0, 897.5349731445312
148, 0, 0, 893.4073486328125
149, 0, 0, 896.0626220703125
150, 0, 0, 890.96875
151, 0, 0, 881.6586303710938
152, 0, 0, 889.7289428710938
153, 0, 0, 880.023681640625
154, 0, 0, 869.619384765625
155, 0, 0, 870.8347778320312
156, 0, 0, 868.4205932617188
157, 0, 0, 867.8573608398438
158, 0, 0, 859.9286499023438
159, 0, 0, 860.27880859375
160, 0, 0, 860.7658081054688
161, 0, 0, 863.0919799804688
162, 0, 0, 851.1470947265625
163, 0, 0, 857.476806640625
164, 0, 0, 847.7669067382812
165, 0, 0, 843.6874389648438
166, 0, 0, 843.5255737304688
167, 0, 0, 836.9081420898438
168, 0, 0, 846.1386108398438
169, 0, 0, 841.25146484375
170, 0, 0, 842.5680541992188
171, 0, 0, 833.6796875
172, 0, 0, 822.5355224609375
173, 0, 0, 834.8499755859375
174, 0, 0, 823.412841796875
175, 0, 0, 822.6828002929688
176, 0, 0, 825.6265869140625
177, 0, 0, 821.5301513671875
178, 0, 0, 816.8145751953125
179, 0, 0, 810.6145629882812
