# TOPAS Version: 3.3.p1
# Parameter File: Test.txt
# Results for scorer MLIC_Scorer
# Scored in component: MLIC
# X in 180 bins of 0.177778 cm
# Y in 1 bin  of 10 cm
# Z in 1 bin  of 10 cm
# EnergyDeposit ( MeV ) : Sum   
0, 0, 0, 0
1, 0, 0, 0
2, 0, 0, 0
3, 0, 0, 0
4, 0, 0, 0
5, 0, 0, 0
6, 0, 0, 0
7, 0, 0, 0
8, 0, 0, 0
9, 0, 0, 0
10, 0, 0, 0
11, 0, 0, 0
12, 0, 0, 0
13, 0, 0, 0
14, 0, 0, 0
15, 0, 0, 0
16, 0, 0, 0
17, 0, 0, 0
18, 0, 0, 0
19, 0, 0, 0
20, 0, 0, 0
21, 0, 0, 0
22, 0, 0, 0
23, 0, 0, 0
24, 0, 0, 0
25, 0, 0, 0
26, 0, 0, 0
27, 0, 0, 0
28, 0, 0, 0
29, 0, 0, 0
30, 0, 0, 0
31, 0, 0, 0
32, 0, 0, 0
33, 0, 0, 0
34, 0, 0, 0
35, 0, 0, 0
36, 0, 0, 0
37, 0, 0, 0
38, 0, 0, 0
39, 0, 0, 0
40, 0, 0, 0
41, 0, 0, 0
42, 0, 0, 0
43, 0, 0, 0
44, 0, 0, 0
45, 0, 0, 0
46, 0, 0, 0
47, 0, 0, 0
48, 0, 0, 0
49, 0, 0, 0
50, 0, 0, 0
51, 0, 0, 0
52, 0, 0, 0
53, 0, 0, 0
54, 0, 0, 0
55, 0, 0, 0
56, 0, 0, 0
57, 0, 0, 0
58, 0, 0, 0
59, 0, 0, 0
60, 0, 0, 0
61, 0, 0, 0
62, 0, 0, 0
63, 0, 0, 0
64, 0, 0, 0
65, 0, 0, 0
66, 0, 0, 10.52252292633057
67, 0, 0, 6.476674556732178
68, 0, 0, 23.16620826721191
69, 0, 0, 137.71533203125
70, 0, 0, 236.9603271484375
71, 0, 0, 332.0304565429688
72, 0, 0, 435.697509765625
73, 0, 0, 375.564453125
74, 0, 0, 303.4300842285156
75, 0, 0, 272.7277221679688
76, 0, 0, 243.8905029296875
77, 0, 0, 221.7901458740234
78, 0, 0, 208.6710357666016
79, 0, 0, 195.5123901367188
80, 0, 0, 184.3374481201172
81, 0, 0, 177.0296325683594
82, 0, 0, 168.7994384765625
83, 0, 0, 161.6198425292969
84, 0, 0, 157.1173095703125
85, 0, 0, 153.7820281982422
86, 0, 0, 148.5651550292969
87, 0, 0, 144.1764068603516
88, 0, 0, 140.2413024902344
89, 0, 0, 136.91845703125
90, 0, 0, 132.02734375
91, 0, 0, 129.7942047119141
92, 0, 0, 129.0446929931641
93, 0, 0, 125.4714965820312
94, 0, 0, 123.8587188720703
95, 0, 0, 120.0784530639648
96, 0, 0, 115.3471221923828
97, 0, 0, 117.8675994873047
98, 0, 0, 115.854248046875
99, 0, 0, 112.5848007202148
100, 0, 0, 111.7737350463867
101, 0, 0, 108.6320114135742
102, 0, 0, 108.4055557250977
103, 0, 0, 107.5928649902344
104, 0, 0, 106.1349945068359
105, 0, 0, 105.2160186767578
106, 0, 0, 101.7366638183594
107, 0, 0, 100.8871765136719
108, 0, 0, 100.6273880004883
109, 0, 0, 99.69161224365234
110, 0, 0, 99.33692932128906
111, 0, 0, 96.68244171142578
112, 0, 0, 95.99122619628906
113, 0, 0, 95.51874542236328
114, 0, 0, 92.55464935302734
115, 0, 0, 92.64912414550781
116, 0, 0, 93.79993438720703
117, 0, 0, 91.23668670654297
118, 0, 0, 90.36058044433594
119, 0, 0, 90.28273773193359
120, 0, 0, 89.46164703369141
121, 0, 0, 88.0208740234375
122, 0, 0, 88.83319091796875
123, 0, 0, 87.39611053466797
124, 0, 0, 87.76448059082031
125, 0, 0, 86.35743713378906
126, 0, 0, 84.52748107910156
127, 0, 0, 82.80496215820312
128, 0, 0, 83.29901885986328
129, 0, 0, 82.60352325439453
130, 0, 0, 82.13796997070312
131, 0, 0, 81.69828033447266
132, 0, 0, 85.85380554199219
133, 0, 0, 81.97920989990234
134, 0, 0, 80.66520690917969
135, 0, 0, 79.67276763916016
136, 0, 0, 81.71762847900391
137, 0, 0, 78.2574462890625
138, 0, 0, 78.82524108886719
139, 0, 0, 76.27505493164062
140, 0, 0, 78.13066101074219
141, 0, 0, 78.51960754394531
142, 0, 0, 77.00173187255859
143, 0, 0, 75.61790466308594
144, 0, 0, 76.79447174072266
145, 0, 0, 75.60144805908203
146, 0, 0, 75.27870178222656
147, 0, 0, 73.33652496337891
148, 0, 0, 72.18339538574219
149, 0, 0, 73.96599578857422
150, 0, 0, 73.63185882568359
151, 0, 0, 75.33506011962891
152, 0, 0, 72.52011871337891
153, 0, 0, 70.59564208984375
154, 0, 0, 72.48209381103516
155, 0, 0, 71.93280792236328
156, 0, 0, 71.58055877685547
157, 0, 0, 72.55693817138672
158, 0, 0, 70.55656433105469
159, 0, 0, 69.58240509033203
160, 0, 0, 70.77465057373047
161, 0, 0, 68.23367309570312
162, 0, 0, 70.16059875488281
163, 0, 0, 70.45858764648438
164, 0, 0, 68.59497833251953
165, 0, 0, 68.41191101074219
166, 0, 0, 68.39919281005859
167, 0, 0, 68.38467407226562
168, 0, 0, 69.65741729736328
169, 0, 0, 66.55152893066406
170, 0, 0, 67.27474212646484
171, 0, 0, 68.11611175537109
172, 0, 0, 66.87448120117188
173, 0, 0, 64.34375762939453
174, 0, 0, 67.54305267333984
175, 0, 0, 66.88838958740234
176, 0, 0, 64.34810638427734
177, 0, 0, 63.79186248779297
178, 0, 0, 66.63285064697266
179, 0, 0, 67.7388916015625
