# TOPAS Version: 3.3.p1
# Parameter File: Test.txt
# Results for scorer MLIC_Scorer
# Scored in component: MLIC
# X in 180 bins of 0.177778 cm
# Y in 1 bin  of 10 cm
# Z in 1 bin  of 10 cm
# EnergyDeposit ( MeV ) : Sum   
0, 0, 0, 0
1, 0, 0, 0
2, 0, 0, 0
3, 0, 0, 0
4, 0, 0, 0
5, 0, 0, 0
6, 0, 0, 0
7, 0, 0, 0
8, 0, 0, 0
9, 0, 0, 0
10, 0, 0, 0
11, 0, 0, 0
12, 0, 0, 0
13, 0, 0, 0
14, 0, 0, 0
15, 0, 0, 0
16, 0, 0, 0
17, 0, 0, 0
18, 0, 0, 0
19, 0, 0, 0
20, 0, 0, 0
21, 0, 0, 0
22, 0, 0, 0
23, 0, 0, 0
24, 0, 0, 0
25, 0, 0, 0
26, 0, 0, 0
27, 0, 0, 0
28, 0, 0, 0
29, 0, 0, 0
30, 0, 0, 0
31, 0, 0, 0
32, 0, 0, 0
33, 0, 0, 0
34, 0, 0, 0
35, 0, 0, 0
36, 0, 0, 0
37, 0, 0, 0
38, 0, 0, 0
39, 0, 0, 0
40, 0, 0, 0
41, 0, 0, 0
42, 0, 0, 0
43, 0, 0, 0
44, 0, 0, 0
45, 0, 0, 0
46, 0, 0, 0
47, 0, 0, 0
48, 0, 0, 0
49, 0, 0, 0
50, 0, 0, 0
51, 0, 0, 0
52, 0, 0, 0
53, 0, 0, 0
54, 0, 0, 0
55, 0, 0, 0.02780703268945217
56, 0, 0, 0
57, 0, 0, 0
58, 0, 0, 0
59, 0, 0, 0
60, 0, 0, 0
61, 0, 0, 0
62, 0, 0, 0
63, 0, 0, 0
64, 0, 0, 0
65, 0, 0, 0
66, 0, 0, 0
67, 0, 0, 0
68, 0, 0, 0
69, 0, 0, 0
70, 0, 0, 0
71, 0, 0, 0
72, 0, 0, 0
73, 0, 0, 0
74, 0, 0, 0
75, 0, 0, 0
76, 0, 0, 0
77, 0, 0, 0
78, 0, 0, 0.003897145856171846
79, 0, 0, 0
80, 0, 0, 0
81, 0, 0, 0
82, 0, 0, 0.01206564251333475
83, 0, 0, 0
84, 0, 0, 0.004602361470460892
85, 0, 0, 0
86, 0, 0, 0
87, 0, 0, 0.001690991804935038
88, 0, 0, 0
89, 0, 0, 5.893166065216064
90, 0, 0, 8.209358215332031
91, 0, 0, 72.34961700439453
92, 0, 0, 225.4078369140625
93, 0, 0, 908.8539428710938
94, 0, 0, 2107.51513671875
95, 0, 0, 3484.093994140625
96, 0, 0, 4390.7314453125
97, 0, 0, 4767.2373046875
98, 0, 0, 4772.751953125
99, 0, 0, 4400.484375
100, 0, 0, 3851.631591796875
101, 0, 0, 3420.061279296875
102, 0, 0, 3096.0107421875
103, 0, 0, 2870.853759765625
104, 0, 0, 2686.003173828125
105, 0, 0, 2550.19482421875
106, 0, 0, 2427.97607421875
107, 0, 0, 2326.61376953125
108, 0, 0, 2239.027099609375
109, 0, 0, 2160.745849609375
110, 0, 0, 2096.072509765625
111, 0, 0, 2030.734741210938
112, 0, 0, 1973.663208007812
113, 0, 0, 1926.293334960938
114, 0, 0, 1871.348999023438
115, 0, 0, 1833.714233398438
116, 0, 0, 1788.488403320312
117, 0, 0, 1754.140747070312
118, 0, 0, 1715.705932617188
119, 0, 0, 1690.3603515625
120, 0, 0, 1648.841064453125
121, 0, 0, 1624.493041992188
122, 0, 0, 1602.017333984375
123, 0, 0, 1571.097045898438
124, 0, 0, 1551.31884765625
125, 0, 0, 1518.976684570312
126, 0, 0, 1505.247802734375
127, 0, 0, 1486.568603515625
128, 0, 0, 1472.399291992188
129, 0, 0, 1450.3212890625
130, 0, 0, 1431.40966796875
131, 0, 0, 1404.912963867188
132, 0, 0, 1396.901123046875
133, 0, 0, 1382.132690429688
134, 0, 0, 1366.93115234375
135, 0, 0, 1340.97607421875
136, 0, 0, 1328.944580078125
137, 0, 0, 1315.267700195312
138, 0, 0, 1309.050415039062
139, 0, 0, 1294.95361328125
140, 0, 0, 1281.208618164062
141, 0, 0, 1266.754028320312
142, 0, 0, 1257.746826171875
143, 0, 0, 1248.893310546875
144, 0, 0, 1235.764770507812
145, 0, 0, 1225.37548828125
146, 0, 0, 1206.281860351562
147, 0, 0, 1193.65673828125
148, 0, 0, 1195.958251953125
149, 0, 0, 1183.6826171875
150, 0, 0, 1175.525756835938
151, 0, 0, 1166.722778320312
152, 0, 0, 1156.225341796875
153, 0, 0, 1154.667846679688
154, 0, 0, 1147.237060546875
155, 0, 0, 1146.718139648438
156, 0, 0, 1124.596923828125
157, 0, 0, 1123.89990234375
158, 0, 0, 1114.856079101562
159, 0, 0, 1098.734497070312
160, 0, 0, 1101.117065429688
161, 0, 0, 1088.551025390625
162, 0, 0, 1083.8134765625
163, 0, 0, 1071.03564453125
164, 0, 0, 1067.2099609375
165, 0, 0, 1068.510375976562
166, 0, 0, 1052.661499023438
167, 0, 0, 1056.432250976562
168, 0, 0, 1044.2451171875
169, 0, 0, 1035.845947265625
170, 0, 0, 1024.489135742188
171, 0, 0, 1035.62451171875
172, 0, 0, 1018.472229003906
173, 0, 0, 1016.001892089844
174, 0, 0, 1007.427490234375
175, 0, 0, 1011.455749511719
176, 0, 0, 1007.903564453125
177, 0, 0, 997.6429443359375
178, 0, 0, 992.248291015625
179, 0, 0, 993.1142578125
