# TOPAS Version: 3.3.p1
# Parameter File: Test.txt
# Results for scorer MLIC_Scorer
# Scored in component: MLIC
# X in 180 bins of 0.177778 cm
# Y in 1 bin  of 10 cm
# Z in 1 bin  of 10 cm
# EnergyDeposit ( MeV ) : Sum   
0, 0, 0, 0
1, 0, 0, 0
2, 0, 0, 0
3, 0, 0, 0
4, 0, 0, 0
5, 0, 0, 0
6, 0, 0, 0
7, 0, 0, 0
8, 0, 0, 0
9, 0, 0, 0
10, 0, 0, 0
11, 0, 0, 0
12, 0, 0, 0
13, 0, 0, 0
14, 0, 0, 0
15, 0, 0, 0
16, 0, 0, 0
17, 0, 0, 0
18, 0, 0, 0
19, 0, 0, 0
20, 0, 0, 0
21, 0, 0, 0
22, 0, 0, 0
23, 0, 0, 0
24, 0, 0, 0
25, 0, 0, 0
26, 0, 0, 0
27, 0, 0, 0
28, 0, 0, 0
29, 0, 0, 0
30, 0, 0, 0
31, 0, 0, 0
32, 0, 0, 0
33, 0, 0, 0
34, 0, 0, 0
35, 0, 0, 0
36, 0, 0, 0.03285351395606995
37, 0, 0, 0
38, 0, 0, 0
39, 0, 0, 0
40, 0, 0, 0
41, 0, 0, 0
42, 0, 0, 0.00508496817201376
43, 0, 0, 0
44, 0, 0, 0
45, 0, 0, 0
46, 0, 0, 0
47, 0, 0, 0
48, 0, 0, 10.41047763824463
49, 0, 0, 138.0296630859375
50, 0, 0, 471.1726379394531
51, 0, 0, 1374.228271484375
52, 0, 0, 2671.785400390625
53, 0, 0, 4178.658203125
54, 0, 0, 4791.13916015625
55, 0, 0, 4985.61328125
56, 0, 0, 4633.763671875
57, 0, 0, 4054.273681640625
58, 0, 0, 3569.306640625
59, 0, 0, 3214.11767578125
60, 0, 0, 2964.107666015625
61, 0, 0, 2759.40283203125
62, 0, 0, 2608.24609375
63, 0, 0, 2479.476318359375
64, 0, 0, 2370.66259765625
65, 0, 0, 2277.836181640625
66, 0, 0, 2196.083251953125
67, 0, 0, 2117.881591796875
68, 0, 0, 2054.393798828125
69, 0, 0, 2006.501586914062
70, 0, 0, 1945.298461914062
71, 0, 0, 1891.947631835938
72, 0, 0, 1855.22607421875
73, 0, 0, 1807.80029296875
74, 0, 0, 1768.357788085938
75, 0, 0, 1730.26123046875
76, 0, 0, 1697.683227539062
77, 0, 0, 1659.181396484375
78, 0, 0, 1635.486083984375
79, 0, 0, 1611.800659179688
80, 0, 0, 1589.19384765625
81, 0, 0, 1563.678588867188
82, 0, 0, 1535.8212890625
83, 0, 0, 1510.789916992188
84, 0, 0, 1491.450927734375
85, 0, 0, 1471.04052734375
86, 0, 0, 1455.015502929688
87, 0, 0, 1447.801635742188
88, 0, 0, 1413.850341796875
89, 0, 0, 1402.856079101562
90, 0, 0, 1387.586059570312
91, 0, 0, 1365.71337890625
92, 0, 0, 1358.789916992188
93, 0, 0, 1339.947265625
94, 0, 0, 1324.267700195312
95, 0, 0, 1313.838745117188
96, 0, 0, 1297.6044921875
97, 0, 0, 1288.412963867188
98, 0, 0, 1274.693115234375
99, 0, 0, 1258.844360351562
100, 0, 0, 1248.51220703125
101, 0, 0, 1247.945556640625
102, 0, 0, 1228.489379882812
103, 0, 0, 1218.005859375
104, 0, 0, 1202.290893554688
105, 0, 0, 1196.116577148438
106, 0, 0, 1184.85595703125
107, 0, 0, 1175.978515625
108, 0, 0, 1171.948364257812
109, 0, 0, 1160.775634765625
110, 0, 0, 1156.626586914062
111, 0, 0, 1139.299072265625
112, 0, 0, 1138.495849609375
113, 0, 0, 1129.32666015625
114, 0, 0, 1129.1142578125
115, 0, 0, 1110.511840820312
116, 0, 0, 1106.298583984375
117, 0, 0, 1105.18896484375
118, 0, 0, 1096.086303710938
119, 0, 0, 1083.899658203125
120, 0, 0, 1081.668090820312
121, 0, 0, 1074.718994140625
122, 0, 0, 1064.760009765625
123, 0, 0, 1060.337524414062
124, 0, 0, 1055.091796875
125, 0, 0, 1045.429077148438
126, 0, 0, 1030.567626953125
127, 0, 0, 1045.238159179688
128, 0, 0, 1031.324340820312
129, 0, 0, 1022.665954589844
130, 0, 0, 1022.434631347656
131, 0, 0, 1014.964965820312
132, 0, 0, 1008.377502441406
133, 0, 0, 1004.966979980469
134, 0, 0, 1001.225708007812
135, 0, 0, 990.505615234375
136, 0, 0, 994.79736328125
137, 0, 0, 990.367919921875
138, 0, 0, 980.657958984375
139, 0, 0, 972.3717041015625
140, 0, 0, 970.7271728515625
141, 0, 0, 964.3677368164062
142, 0, 0, 960.8644409179688
143, 0, 0, 950.6488037109375
144, 0, 0, 952.330810546875
145, 0, 0, 959.4711303710938
146, 0, 0, 952.217529296875
147, 0, 0, 941.2899780273438
148, 0, 0, 941.1221313476562
149, 0, 0, 936.9873046875
150, 0, 0, 926.1748046875
151, 0, 0, 930.474853515625
152, 0, 0, 924.319091796875
153, 0, 0, 920.7559204101562
154, 0, 0, 910.180419921875
155, 0, 0, 918.6717529296875
156, 0, 0, 911.4248657226562
157, 0, 0, 912.2210083007812
158, 0, 0, 897.8941650390625
159, 0, 0, 902.7938842773438
160, 0, 0, 904.4095458984375
161, 0, 0, 889.5913696289062
162, 0, 0, 890.2708740234375
163, 0, 0, 886.2742309570312
164, 0, 0, 880.8257446289062
165, 0, 0, 886.1682739257812
166, 0, 0, 875.0714111328125
167, 0, 0, 878.9984130859375
168, 0, 0, 868.4439697265625
169, 0, 0, 870.1552124023438
170, 0, 0, 873.8812255859375
171, 0, 0, 873.0457763671875
172, 0, 0, 855.4019165039062
173, 0, 0, 854.9442138671875
174, 0, 0, 851.717041015625
175, 0, 0, 856.5260009765625
176, 0, 0, 850.7132568359375
177, 0, 0, 845.97216796875
178, 0, 0, 839.8004150390625
179, 0, 0, 842.9321899414062
