# TOPAS Version: 3.3.p1
# Parameter File: Test.txt
# Results for scorer MLIC_Scorer
# Scored in component: MLIC
# X in 180 bins of 0.177778 cm
# Y in 1 bin  of 10 cm
# Z in 1 bin  of 10 cm
# EnergyDeposit ( MeV ) : Sum   
0, 0, 0, 0
1, 0, 0, 0
2, 0, 0, 0
3, 0, 0, 0
4, 0, 0, 0
5, 0, 0, 0
6, 0, 0, 0
7, 0, 0, 0
8, 0, 0, 0
9, 0, 0, 0
10, 0, 0, 0
11, 0, 0, 0
12, 0, 0, 0
13, 0, 0, 0
14, 0, 0, 0
15, 0, 0, 0
16, 0, 0, 0
17, 0, 0, 0
18, 0, 0, 0
19, 0, 0, 0
20, 0, 0, 0
21, 0, 0, 0
22, 0, 0, 0
23, 0, 0, 8.455192565917969
24, 0, 0, 24.0546875
25, 0, 0, 97.09832000732422
26, 0, 0, 427.1792907714844
27, 0, 0, 1195.689086914062
28, 0, 0, 2345.40771484375
29, 0, 0, 3789.459716796875
30, 0, 0, 4729.83447265625
31, 0, 0, 4846.724609375
32, 0, 0, 4717.83349609375
33, 0, 0, 4175.14111328125
34, 0, 0, 3678.595458984375
35, 0, 0, 3288.56982421875
36, 0, 0, 3015.94140625
37, 0, 0, 2810.38232421875
38, 0, 0, 2641.557861328125
39, 0, 0, 2508.970703125
40, 0, 0, 2398.849609375
41, 0, 0, 2296.28125
42, 0, 0, 2209.64892578125
43, 0, 0, 2134.20849609375
44, 0, 0, 2069.076416015625
45, 0, 0, 2010.440551757812
46, 0, 0, 1959.4140625
47, 0, 0, 1902.284790039062
48, 0, 0, 1863.1484375
49, 0, 0, 1809.27392578125
50, 0, 0, 1776.839965820312
51, 0, 0, 1743.125854492188
52, 0, 0, 1704.6640625
53, 0, 0, 1670.235229492188
54, 0, 0, 1643.580932617188
55, 0, 0, 1617.717529296875
56, 0, 0, 1588.105834960938
57, 0, 0, 1568.698364257812
58, 0, 0, 1536.137817382812
59, 0, 0, 1523.603515625
60, 0, 0, 1499.252807617188
61, 0, 0, 1482.710815429688
62, 0, 0, 1452.201171875
63, 0, 0, 1437.922485351562
64, 0, 0, 1420.889892578125
65, 0, 0, 1408.1806640625
66, 0, 0, 1384.94482421875
67, 0, 0, 1377.199829101562
68, 0, 0, 1368.693603515625
69, 0, 0, 1346.241577148438
70, 0, 0, 1326.711791992188
71, 0, 0, 1316.927856445312
72, 0, 0, 1300.500610351562
73, 0, 0, 1287.64013671875
74, 0, 0, 1275.549072265625
75, 0, 0, 1259.4375
76, 0, 0, 1257.32568359375
77, 0, 0, 1244.157958984375
78, 0, 0, 1229.97509765625
79, 0, 0, 1218.25537109375
80, 0, 0, 1209.383056640625
81, 0, 0, 1196.43701171875
82, 0, 0, 1188.49853515625
83, 0, 0, 1188.83642578125
84, 0, 0, 1173.215454101562
85, 0, 0, 1166.774047851562
86, 0, 0, 1159.538330078125
87, 0, 0, 1148.483520507812
88, 0, 0, 1144.18115234375
89, 0, 0, 1130.05859375
90, 0, 0, 1129.019165039062
91, 0, 0, 1120.661987304688
92, 0, 0, 1112.800659179688
93, 0, 0, 1100.072265625
94, 0, 0, 1096.44677734375
95, 0, 0, 1084.458129882812
96, 0, 0, 1083.138061523438
97, 0, 0, 1079.077270507812
98, 0, 0, 1072.62646484375
99, 0, 0, 1056.91162109375
100, 0, 0, 1059.286743164062
101, 0, 0, 1050.662719726562
102, 0, 0, 1051.875732421875
103, 0, 0, 1038.376953125
104, 0, 0, 1025.365966796875
105, 0, 0, 1025.062255859375
106, 0, 0, 1015.106201171875
107, 0, 0, 1022.729919433594
108, 0, 0, 1003.847290039062
109, 0, 0, 1013.048645019531
110, 0, 0, 998.1744995117188
111, 0, 0, 996.8245239257812
112, 0, 0, 986.3287963867188
113, 0, 0, 983.4391479492188
114, 0, 0, 976.2276611328125
115, 0, 0, 975.4729614257812
116, 0, 0, 973.4005126953125
117, 0, 0, 970.5091552734375
118, 0, 0, 959.512451171875
119, 0, 0, 962.2611694335938
120, 0, 0, 952.626220703125
121, 0, 0, 948.3394775390625
122, 0, 0, 949.2266845703125
123, 0, 0, 943.240966796875
124, 0, 0, 935.288818359375
125, 0, 0, 937.4650268554688
126, 0, 0, 927.0975952148438
127, 0, 0, 923.8561401367188
128, 0, 0, 923.9512939453125
129, 0, 0, 929.6220703125
130, 0, 0, 918.2348022460938
131, 0, 0, 914.2671508789062
132, 0, 0, 909.7112426757812
133, 0, 0, 901.171142578125
134, 0, 0, 908.687255859375
135, 0, 0, 903.7625122070312
136, 0, 0, 903.0187377929688
137, 0, 0, 892.81494140625
138, 0, 0, 893.1248168945312
139, 0, 0, 889.68310546875
140, 0, 0, 888.0890502929688
141, 0, 0, 879.8603515625
142, 0, 0, 878.9999389648438
143, 0, 0, 875.3916625976562
144, 0, 0, 872.0217895507812
145, 0, 0, 865.7685546875
146, 0, 0, 871.1378173828125
147, 0, 0, 866.9589233398438
148, 0, 0, 860.6043701171875
149, 0, 0, 850.7858276367188
150, 0, 0, 857.2308349609375
151, 0, 0, 856.8676147460938
152, 0, 0, 849.427978515625
153, 0, 0, 844.7875366210938
154, 0, 0, 837.4751586914062
155, 0, 0, 837.914306640625
156, 0, 0, 835.6060791015625
157, 0, 0, 834.9270629882812
158, 0, 0, 832.9547119140625
159, 0, 0, 835.7698364257812
160, 0, 0, 831.5191040039062
161, 0, 0, 817.593505859375
162, 0, 0, 818.3433227539062
163, 0, 0, 823.6993408203125
164, 0, 0, 815.2672729492188
165, 0, 0, 817.91015625
166, 0, 0, 817.9529418945312
167, 0, 0, 816.1629638671875
168, 0, 0, 810.7254638671875
169, 0, 0, 812.8343505859375
170, 0, 0, 806.6585083007812
171, 0, 0, 808.99609375
172, 0, 0, 801.2030029296875
173, 0, 0, 801.4108276367188
174, 0, 0, 799.1937866210938
175, 0, 0, 796.0847778320312
176, 0, 0, 794.857666015625
177, 0, 0, 790.4617919921875
178, 0, 0, 781.1939086914062
179, 0, 0, 795.4494018554688
