# TOPAS Version: 3.3.p1
# Parameter File: Test.txt
# Results for scorer MLIC_Scorer
# Scored in component: MLIC
# X in 180 bins of 0.177778 cm
# Y in 1 bin  of 10 cm
# Z in 1 bin  of 10 cm
# EnergyDeposit ( MeV ) : Sum   
0, 0, 0, 0
1, 0, 0, 0
2, 0, 0, 0
3, 0, 0, 0
4, 0, 0, 0
5, 0, 0, 0
6, 0, 0, 0
7, 0, 0, 0
8, 0, 0, 0
9, 0, 0, 0
10, 0, 0, 0
11, 0, 0, 0
12, 0, 0, 0
13, 0, 0, 0
14, 0, 0, 0
15, 0, 0, 0
16, 0, 0, 0
17, 0, 0, 0
18, 0, 0, 0
19, 0, 0, 0
20, 0, 0, 0
21, 0, 0, 0
22, 0, 0, 0.0005951920174993575
23, 0, 0, 0
24, 0, 0, 0
25, 0, 0, 0
26, 0, 0, 0
27, 0, 0, 0
28, 0, 0, 0
29, 0, 0, 0
30, 0, 0, 0
31, 0, 0, 0
32, 0, 0, 0
33, 0, 0, 0
34, 0, 0, 0
35, 0, 0, 0
36, 0, 0, 0
37, 0, 0, 0
38, 0, 0, 0.0009837578982114792
39, 0, 0, 0.02247368916869164
40, 0, 0, 0.03544605895876884
41, 0, 0, 0
42, 0, 0, 23.11050033569336
43, 0, 0, 183.2684173583984
44, 0, 0, 580.7875366210938
45, 0, 0, 1562.190673828125
46, 0, 0, 3004.234619140625
47, 0, 0, 4374.1494140625
48, 0, 0, 5275.14013671875
49, 0, 0, 5064.94921875
50, 0, 0, 4421.6591796875
51, 0, 0, 3879.29443359375
52, 0, 0, 3426.164306640625
53, 0, 0, 3138.040283203125
54, 0, 0, 2895.718017578125
55, 0, 0, 2716.355224609375
56, 0, 0, 2571.923095703125
57, 0, 0, 2448.174560546875
58, 0, 0, 2352.429931640625
59, 0, 0, 2253.146728515625
60, 0, 0, 2168.599853515625
61, 0, 0, 2106.418212890625
62, 0, 0, 2046.592163085938
63, 0, 0, 1976.930297851562
64, 0, 0, 1932.051879882812
65, 0, 0, 1881.607299804688
66, 0, 0, 1839.012329101562
67, 0, 0, 1797.931518554688
68, 0, 0, 1766.4990234375
69, 0, 0, 1719.4228515625
70, 0, 0, 1692.494262695312
71, 0, 0, 1657.034057617188
72, 0, 0, 1634.727172851562
73, 0, 0, 1596.809814453125
74, 0, 0, 1580.734008789062
75, 0, 0, 1557.627807617188
76, 0, 0, 1540.693115234375
77, 0, 0, 1507.048095703125
78, 0, 0, 1485.220581054688
79, 0, 0, 1474.423706054688
80, 0, 0, 1448.482788085938
81, 0, 0, 1429.205688476562
82, 0, 0, 1419.9150390625
83, 0, 0, 1399.608520507812
84, 0, 0, 1379.19970703125
85, 0, 0, 1362.223510742188
86, 0, 0, 1349.160888671875
87, 0, 0, 1344.567993164062
88, 0, 0, 1319.70166015625
89, 0, 0, 1309.646118164062
90, 0, 0, 1299.5263671875
91, 0, 0, 1282.887817382812
92, 0, 0, 1271.165771484375
93, 0, 0, 1262.976196289062
94, 0, 0, 1240.749633789062
95, 0, 0, 1242.387084960938
96, 0, 0, 1228.204345703125
97, 0, 0, 1213.328125
98, 0, 0, 1202.997802734375
99, 0, 0, 1197.03662109375
100, 0, 0, 1185.469482421875
101, 0, 0, 1183.52001953125
102, 0, 0, 1168.715942382812
103, 0, 0, 1160.468872070312
104, 0, 0, 1147.120361328125
105, 0, 0, 1138.046020507812
106, 0, 0, 1136.128540039062
107, 0, 0, 1131.986206054688
108, 0, 0, 1130.530883789062
109, 0, 0, 1111.717163085938
110, 0, 0, 1106.561157226562
111, 0, 0, 1097.4052734375
112, 0, 0, 1088.483520507812
113, 0, 0, 1086.328491210938
114, 0, 0, 1079.761962890625
115, 0, 0, 1065.981689453125
116, 0, 0, 1062.981689453125
117, 0, 0, 1064.800903320312
118, 0, 0, 1052.600219726562
119, 0, 0, 1046.853881835938
120, 0, 0, 1041.490112304688
121, 0, 0, 1035.80859375
122, 0, 0, 1027.081787109375
123, 0, 0, 1020.356994628906
124, 0, 0, 1018.123291015625
125, 0, 0, 1012.245849609375
126, 0, 0, 1009.759582519531
127, 0, 0, 999.263671875
128, 0, 0, 1000.137634277344
129, 0, 0, 999.1376342773438
130, 0, 0, 989.6362915039062
131, 0, 0, 979.0596313476562
132, 0, 0, 980.2394409179688
133, 0, 0, 979.3063354492188
134, 0, 0, 974.2520141601562
135, 0, 0, 964.7902221679688
136, 0, 0, 955.493408203125
137, 0, 0, 957.6024780273438
138, 0, 0, 957.5838012695312
139, 0, 0, 949.1565551757812
140, 0, 0, 952.1209106445312
141, 0, 0, 939.5110473632812
142, 0, 0, 933.5376586914062
143, 0, 0, 934.8133544921875
144, 0, 0, 927.602294921875
145, 0, 0, 919.968505859375
146, 0, 0, 928.859130859375
147, 0, 0, 925.53271484375
148, 0, 0, 911.745849609375
149, 0, 0, 913.8770751953125
150, 0, 0, 906.9517822265625
151, 0, 0, 908.2448120117188
152, 0, 0, 894.8178100585938
153, 0, 0, 902.3953247070312
154, 0, 0, 892.369873046875
155, 0, 0, 887.0868530273438
156, 0, 0, 882.548095703125
157, 0, 0, 878.5699462890625
158, 0, 0, 886.533935546875
159, 0, 0, 879.2487182617188
160, 0, 0, 880.4501342773438
161, 0, 0, 876.9072265625
162, 0, 0, 876.2158813476562
163, 0, 0, 877.49755859375
164, 0, 0, 862.374755859375
165, 0, 0, 867.6683959960938
166, 0, 0, 860.0167846679688
167, 0, 0, 856.4646606445312
168, 0, 0, 858.0786743164062
169, 0, 0, 848.4815063476562
170, 0, 0, 850.629638671875
171, 0, 0, 848.4139404296875
172, 0, 0, 841.6046752929688
173, 0, 0, 840.0291137695312
174, 0, 0, 838.09912109375
175, 0, 0, 841.8421020507812
176, 0, 0, 834.5083618164062
177, 0, 0, 828.9754638671875
178, 0, 0, 827.688232421875
179, 0, 0, 822.6254272460938
