# TOPAS Version: 3.3.p1
# Parameter File: Test.txt
# Results for scorer MLIC_Scorer
# Scored in component: MLIC
# X in 180 bins of 0.177778 cm
# Y in 1 bin  of 10 cm
# Z in 1 bin  of 10 cm
# EnergyDeposit ( MeV ) : Sum   
0, 0, 0, 0
1, 0, 0, 0
2, 0, 0, 0
3, 0, 0, 0
4, 0, 0, 0
5, 0, 0, 0
6, 0, 0, 0
7, 0, 0, 0
8, 0, 0, 0
9, 0, 0, 0
10, 0, 0, 0
11, 0, 0, 0
12, 0, 0, 0
13, 0, 0, 0
14, 0, 0, 0
15, 0, 0, 0
16, 0, 0, 0
17, 0, 0, 0
18, 0, 0, 0
19, 0, 0, 0
20, 0, 0, 0
21, 0, 0, 0.00699723232537508
22, 0, 0, 0.00377850397489965
23, 0, 0, 0.001769534079357982
24, 0, 0, 0
25, 0, 0, 0
26, 0, 0, 0.0006167204701341689
27, 0, 0, 0
28, 0, 0, 0.003126953961327672
29, 0, 0, 0.00237017497420311
30, 0, 0, 6.977770805358887
31, 0, 0, 8.463375091552734
32, 0, 0, 37.54233932495117
33, 0, 0, 223.9203948974609
34, 0, 0, 722.6708984375
35, 0, 0, 1674.694946289062
36, 0, 0, 3063.573974609375
37, 0, 0, 4133.6103515625
38, 0, 0, 4824.3701171875
39, 0, 0, 4904.294921875
40, 0, 0, 4451.5810546875
41, 0, 0, 4004.861083984375
42, 0, 0, 3491.551025390625
43, 0, 0, 3156.8095703125
44, 0, 0, 2911.756103515625
45, 0, 0, 2725.28857421875
46, 0, 0, 2583.72900390625
47, 0, 0, 2453.357666015625
48, 0, 0, 2350.4169921875
49, 0, 0, 2257.513916015625
50, 0, 0, 2172.74609375
51, 0, 0, 2106.893310546875
52, 0, 0, 2042.951782226562
53, 0, 0, 1984.045776367188
54, 0, 0, 1932.372924804688
55, 0, 0, 1889.43505859375
56, 0, 0, 1845.009033203125
57, 0, 0, 1797.095458984375
58, 0, 0, 1764.007934570312
59, 0, 0, 1728.541137695312
60, 0, 0, 1689.405639648438
61, 0, 0, 1665.593627929688
62, 0, 0, 1634.760009765625
63, 0, 0, 1603.369750976562
64, 0, 0, 1581.796264648438
65, 0, 0, 1550.623291015625
66, 0, 0, 1528.464721679688
67, 0, 0, 1513.1181640625
68, 0, 0, 1488.266723632812
69, 0, 0, 1468.952392578125
70, 0, 0, 1447.1865234375
71, 0, 0, 1435.765869140625
72, 0, 0, 1410.406005859375
73, 0, 0, 1391.382690429688
74, 0, 0, 1382.0927734375
75, 0, 0, 1363.851440429688
76, 0, 0, 1349.456176757812
77, 0, 0, 1335.070922851562
78, 0, 0, 1322.816650390625
79, 0, 0, 1309.090576171875
80, 0, 0, 1293.375854492188
81, 0, 0, 1282.675415039062
82, 0, 0, 1274.987915039062
83, 0, 0, 1257.109008789062
84, 0, 0, 1250.07421875
85, 0, 0, 1237.315063476562
86, 0, 0, 1230.311645507812
87, 0, 0, 1220.111328125
88, 0, 0, 1202.306518554688
89, 0, 0, 1195.480346679688
90, 0, 0, 1182.970458984375
91, 0, 0, 1182.444213867188
92, 0, 0, 1169.128295898438
93, 0, 0, 1168.385009765625
94, 0, 0, 1154.980590820312
95, 0, 0, 1148.056396484375
96, 0, 0, 1134.2841796875
97, 0, 0, 1129.577270507812
98, 0, 0, 1132.679809570312
99, 0, 0, 1112.179077148438
100, 0, 0, 1104.876586914062
101, 0, 0, 1096.71533203125
102, 0, 0, 1090.860473632812
103, 0, 0, 1089.830688476562
104, 0, 0, 1080.348388671875
105, 0, 0, 1073.63623046875
106, 0, 0, 1067.251586914062
107, 0, 0, 1064.435913085938
108, 0, 0, 1050.96728515625
109, 0, 0, 1047.619384765625
110, 0, 0, 1043.097534179688
111, 0, 0, 1031.159790039062
112, 0, 0, 1027.074462890625
113, 0, 0, 1034.594848632812
114, 0, 0, 1014.851806640625
115, 0, 0, 1014.654357910156
116, 0, 0, 1010.420166015625
117, 0, 0, 1006.441528320312
118, 0, 0, 996.6605224609375
119, 0, 0, 1005.09912109375
120, 0, 0, 992.7620849609375
121, 0, 0, 986.2741088867188
122, 0, 0, 979.9112548828125
123, 0, 0, 975.2755737304688
124, 0, 0, 975.2559204101562
125, 0, 0, 965.5567016601562
126, 0, 0, 959.4271240234375
127, 0, 0, 958.1856689453125
128, 0, 0, 956.0740356445312
129, 0, 0, 944.023193359375
130, 0, 0, 954.8347778320312
131, 0, 0, 947.203125
132, 0, 0, 943.0426025390625
133, 0, 0, 928.3695068359375
134, 0, 0, 932.968017578125
135, 0, 0, 926.2723999023438
136, 0, 0, 919.5789184570312
137, 0, 0, 923.1280517578125
138, 0, 0, 915.2263793945312
139, 0, 0, 916.38623046875
140, 0, 0, 913.398681640625
141, 0, 0, 904.9443359375
142, 0, 0, 908.8085327148438
143, 0, 0, 897.9191284179688
144, 0, 0, 892.322265625
145, 0, 0, 897.771240234375
146, 0, 0, 893.9680786132812
147, 0, 0, 887.4579467773438
148, 0, 0, 878.1701049804688
149, 0, 0, 878.640869140625
150, 0, 0, 871.8283081054688
151, 0, 0, 875.7670288085938
152, 0, 0, 877.7713012695312
153, 0, 0, 868.8543090820312
154, 0, 0, 861.78515625
155, 0, 0, 870.2174682617188
156, 0, 0, 858.2462768554688
157, 0, 0, 854.7483520507812
158, 0, 0, 851.4822387695312
159, 0, 0, 855.3155517578125
160, 0, 0, 846.3033447265625
161, 0, 0, 843.4140014648438
162, 0, 0, 837.2317504882812
163, 0, 0, 836.4481811523438
164, 0, 0, 835.8939208984375
165, 0, 0, 827.3604736328125
166, 0, 0, 829.0199584960938
167, 0, 0, 831.4425659179688
168, 0, 0, 834.6494750976562
169, 0, 0, 829.769287109375
170, 0, 0, 822.470458984375
171, 0, 0, 815.2681884765625
172, 0, 0, 815.925048828125
173, 0, 0, 813.2967529296875
174, 0, 0, 812.294921875
175, 0, 0, 823.0576782226562
176, 0, 0, 810.027587890625
177, 0, 0, 799.7554321289062
178, 0, 0, 804.8793334960938
179, 0, 0, 802.7308959960938
