# TOPAS Version: 3.3.p1
# Parameter File: Test.txt
# Results for scorer MLIC_Scorer
# Scored in component: MLIC
# X in 165 bins of 0.2 cm
# Y in 1 bin  of 10 cm
# Z in 1 bin  of 10 cm
# EnergyDeposit ( MeV ) : Sum   
0, 0, 0, 0
1, 0, 0, 0
2, 0, 0, 0
3, 0, 0, 0
4, 0, 0, 0
5, 0, 0, 0
6, 0, 0, 0
7, 0, 0, 0
8, 0, 0, 0
9, 0, 0, 0
10, 0, 0, 0
11, 0, 0, 0
12, 0, 0, 0
13, 0, 0, 0
14, 0, 0, 0
15, 0, 0, 0
16, 0, 0, 0
17, 0, 0, 0
18, 0, 0, 0
19, 0, 0, 0.005477592814713717
20, 0, 0, 0
21, 0, 0, 0
22, 0, 0, 0
23, 0, 0, 0
24, 0, 0, 0
25, 0, 0, 0
26, 0, 0, 0
27, 0, 0, 0
28, 0, 0, 0
29, 0, 0, 0
30, 0, 0, 0
31, 0, 0, 0
32, 0, 0, 0
33, 0, 0, 0.01189475040882826
34, 0, 0, 0
35, 0, 0, 0
36, 0, 0, 0
37, 0, 0, 0
38, 0, 0, 0
39, 0, 0, 0
40, 0, 0, 3.375669479370117
41, 0, 0, 11.98463821411133
42, 0, 0, 57.42863082885742
43, 0, 0, 196.3865203857422
44, 0, 0, 560.0487670898438
45, 0, 0, 1485.155029296875
46, 0, 0, 3144.96337890625
47, 0, 0, 4507.611328125
48, 0, 0, 5408.17529296875
49, 0, 0, 5380.0849609375
50, 0, 0, 4751.53125
51, 0, 0, 4281.44970703125
52, 0, 0, 3757.38037109375
53, 0, 0, 3375.693115234375
54, 0, 0, 3115.358154296875
55, 0, 0, 2926.9873046875
56, 0, 0, 2751.885009765625
57, 0, 0, 2628.580322265625
58, 0, 0, 2518.103759765625
59, 0, 0, 2415.8310546875
60, 0, 0, 2326.068115234375
61, 0, 0, 2258.254150390625
62, 0, 0, 2194.231689453125
63, 0, 0, 2119.9951171875
64, 0, 0, 2060.836669921875
65, 0, 0, 2022.684692382812
66, 0, 0, 1967.374633789062
67, 0, 0, 1930.205688476562
68, 0, 0, 1886.103393554688
69, 0, 0, 1844.721435546875
70, 0, 0, 1808.09228515625
71, 0, 0, 1777.687622070312
72, 0, 0, 1740.965454101562
73, 0, 0, 1718.012817382812
74, 0, 0, 1695.270385742188
75, 0, 0, 1662.595581054688
76, 0, 0, 1636.38232421875
77, 0, 0, 1622.134155273438
78, 0, 0, 1595.554077148438
79, 0, 0, 1573.355590820312
80, 0, 0, 1550.9873046875
81, 0, 0, 1526.762084960938
82, 0, 0, 1512.11962890625
83, 0, 0, 1498.004028320312
84, 0, 0, 1476.002563476562
85, 0, 0, 1466.678466796875
86, 0, 0, 1447.168701171875
87, 0, 0, 1435.563720703125
88, 0, 0, 1413.344360351562
89, 0, 0, 1396.619750976562
90, 0, 0, 1392.903198242188
91, 0, 0, 1374.619384765625
92, 0, 0, 1362.810424804688
93, 0, 0, 1345.387817382812
94, 0, 0, 1328.639282226562
95, 0, 0, 1326.974731445312
96, 0, 0, 1313.67431640625
97, 0, 0, 1299.228637695312
98, 0, 0, 1294.83203125
99, 0, 0, 1283.518798828125
100, 0, 0, 1273.383911132812
101, 0, 0, 1270.96240234375
102, 0, 0, 1252.78662109375
103, 0, 0, 1245.824096679688
104, 0, 0, 1236.433715820312
105, 0, 0, 1228.946166992188
106, 0, 0, 1219.348754882812
107, 0, 0, 1203.807006835938
108, 0, 0, 1202.29052734375
109, 0, 0, 1190.652465820312
110, 0, 0, 1185.361083984375
111, 0, 0, 1186.705688476562
112, 0, 0, 1169.92919921875
113, 0, 0, 1167.38720703125
114, 0, 0, 1161.8955078125
115, 0, 0, 1152.03564453125
116, 0, 0, 1143.593872070312
117, 0, 0, 1137.921997070312
118, 0, 0, 1131.903930664062
119, 0, 0, 1120.067626953125
120, 0, 0, 1118.93701171875
121, 0, 0, 1117.253784179688
122, 0, 0, 1113.934204101562
123, 0, 0, 1101.812133789062
124, 0, 0, 1088.519165039062
125, 0, 0, 1079.8603515625
126, 0, 0, 1073.396362304688
127, 0, 0, 1079.484375
128, 0, 0, 1075.415405273438
129, 0, 0, 1067.567016601562
130, 0, 0, 1055.947875976562
131, 0, 0, 1060.88916015625
132, 0, 0, 1047.650390625
133, 0, 0, 1048.57080078125
134, 0, 0, 1048.870239257812
135, 0, 0, 1036.372192382812
136, 0, 0, 1037.57177734375
137, 0, 0, 1033.8212890625
138, 0, 0, 1031.481689453125
139, 0, 0, 1021.968139648438
140, 0, 0, 1013.033203125
141, 0, 0, 1011.317504882812
142, 0, 0, 1009.450134277344
143, 0, 0, 1003.262939453125
144, 0, 0, 999.54150390625
145, 0, 0, 996.4222412109375
146, 0, 0, 997.1845703125
147, 0, 0, 993.9346923828125
148, 0, 0, 980.8296508789062
149, 0, 0, 979.0169067382812
150, 0, 0, 985.9830322265625
151, 0, 0, 979.9007568359375
152, 0, 0, 973.6006469726562
153, 0, 0, 963.6643676757812
154, 0, 0, 962.2731323242188
155, 0, 0, 958.732177734375
156, 0, 0, 956.2298583984375
157, 0, 0, 958.532470703125
158, 0, 0, 955.8333740234375
159, 0, 0, 954.3660888671875
160, 0, 0, 936.923828125
161, 0, 0, 936.8323974609375
162, 0, 0, 935.5648193359375
163, 0, 0, 933.59423828125
164, 0, 0, 922.8134155273438
