# TOPAS Version: 3.3.p1
# Parameter File: Test.txt
# Results for scorer MLIC_Scorer
# Scored in component: MLIC
# X in 180 bins of 0.177778 cm
# Y in 1 bin  of 10 cm
# Z in 1 bin  of 10 cm
# EnergyDeposit ( MeV ) : Sum   
0, 0, 0, 0
1, 0, 0, 0
2, 0, 0, 0
3, 0, 0, 0
4, 0, 0, 0
5, 0, 0, 0
6, 0, 0, 0
7, 0, 0, 0
8, 0, 0, 0
9, 0, 0, 0
10, 0, 0, 0
11, 0, 0, 0
12, 0, 0, 0
13, 0, 0, 0
14, 0, 0, 0
15, 0, 0, 0
16, 0, 0, 0
17, 0, 0, 0
18, 0, 0, 0
19, 0, 0, 0
20, 0, 0, 0
21, 0, 0, 0
22, 0, 0, 0
23, 0, 0, 0
24, 0, 0, 0
25, 0, 0, 0
26, 0, 0, 0
27, 0, 0, 0
28, 0, 0, 0
29, 0, 0, 0
30, 0, 0, 0
31, 0, 0, 0
32, 0, 0, 0
33, 0, 0, 0
34, 0, 0, 0
35, 0, 0, 0
36, 0, 0, 0
37, 0, 0, 0
38, 0, 0, 0
39, 0, 0, 0
40, 0, 0, 0
41, 0, 0, 0
42, 0, 0, 0
43, 0, 0, 0.03650449588894844
44, 0, 0, 0
45, 0, 0, 0
46, 0, 0, 0
47, 0, 0, 0
48, 0, 0, 10.86182403564453
49, 0, 0, 9.523138046264648
50, 0, 0, 96.35648345947266
51, 0, 0, 364.1953735351562
52, 0, 0, 934.359130859375
53, 0, 0, 2213.39599609375
54, 0, 0, 3978.02490234375
55, 0, 0, 4825.08154296875
56, 0, 0, 5040.193359375
57, 0, 0, 4740.205078125
58, 0, 0, 4197.140625
59, 0, 0, 3646.579833984375
60, 0, 0, 3286.82861328125
61, 0, 0, 3009.737548828125
62, 0, 0, 2799.5546875
63, 0, 0, 2634.390625
64, 0, 0, 2503.0146484375
65, 0, 0, 2387.944091796875
66, 0, 0, 2303.04296875
67, 0, 0, 2216.680908203125
68, 0, 0, 2129.165771484375
69, 0, 0, 2071.442626953125
70, 0, 0, 2016.2958984375
71, 0, 0, 1952.54541015625
72, 0, 0, 1906.962524414062
73, 0, 0, 1862.977416992188
74, 0, 0, 1829.098388671875
75, 0, 0, 1780.446533203125
76, 0, 0, 1747.950317382812
77, 0, 0, 1710.680053710938
78, 0, 0, 1676.547119140625
79, 0, 0, 1642.7099609375
80, 0, 0, 1618.72607421875
81, 0, 0, 1589.000610351562
82, 0, 0, 1564.63525390625
83, 0, 0, 1542.986450195312
84, 0, 0, 1526.321166992188
85, 0, 0, 1493.350341796875
86, 0, 0, 1475.351318359375
87, 0, 0, 1461.728637695312
88, 0, 0, 1434.20068359375
89, 0, 0, 1417.428588867188
90, 0, 0, 1402.954711914062
91, 0, 0, 1390.058715820312
92, 0, 0, 1372.434326171875
93, 0, 0, 1362.671630859375
94, 0, 0, 1344.915161132812
95, 0, 0, 1330.17919921875
96, 0, 0, 1304.741821289062
97, 0, 0, 1307.0908203125
98, 0, 0, 1291.78759765625
99, 0, 0, 1277.615356445312
100, 0, 0, 1267.058471679688
101, 0, 0, 1255.326416015625
102, 0, 0, 1239.769653320312
103, 0, 0, 1233.99609375
104, 0, 0, 1220.785522460938
105, 0, 0, 1203.208740234375
106, 0, 0, 1206.858764648438
107, 0, 0, 1192.177001953125
108, 0, 0, 1185.339965820312
109, 0, 0, 1164.214233398438
110, 0, 0, 1167.831298828125
111, 0, 0, 1155.973999023438
112, 0, 0, 1149.716430664062
113, 0, 0, 1143.956420898438
114, 0, 0, 1136.059326171875
115, 0, 0, 1119.155883789062
116, 0, 0, 1115.788940429688
117, 0, 0, 1097.9228515625
118, 0, 0, 1098.748168945312
119, 0, 0, 1103.737426757812
120, 0, 0, 1085.865356445312
121, 0, 0, 1082.85205078125
122, 0, 0, 1074.240356445312
123, 0, 0, 1068.9716796875
124, 0, 0, 1064.123168945312
125, 0, 0, 1051.111450195312
126, 0, 0, 1069.32666015625
127, 0, 0, 1038.544677734375
128, 0, 0, 1041.856689453125
129, 0, 0, 1031.015625
130, 0, 0, 1021.552429199219
131, 0, 0, 1020.211853027344
132, 0, 0, 1018.993896484375
133, 0, 0, 1011.954956054688
134, 0, 0, 1011.718688964844
135, 0, 0, 1004.889831542969
136, 0, 0, 991.8604736328125
137, 0, 0, 990.1582641601562
138, 0, 0, 986.3656005859375
139, 0, 0, 988.7685546875
140, 0, 0, 974.1528930664062
141, 0, 0, 972.586669921875
142, 0, 0, 967.1654663085938
143, 0, 0, 969.8148803710938
144, 0, 0, 954.8323974609375
145, 0, 0, 963.9435424804688
146, 0, 0, 950.0767822265625
147, 0, 0, 953.78564453125
148, 0, 0, 946.6358642578125
149, 0, 0, 942.3532104492188
150, 0, 0, 941.587890625
151, 0, 0, 931.311767578125
152, 0, 0, 920.2676391601562
153, 0, 0, 917.8223266601562
154, 0, 0, 921.85693359375
155, 0, 0, 912.8197021484375
156, 0, 0, 913.7626953125
157, 0, 0, 908.815185546875
158, 0, 0, 916.1694946289062
159, 0, 0, 897.7930297851562
160, 0, 0, 905.0464477539062
161, 0, 0, 892.6790771484375
162, 0, 0, 893.144775390625
163, 0, 0, 889.7342529296875
164, 0, 0, 886.4594116210938
165, 0, 0, 882.4111328125
166, 0, 0, 889.0543212890625
167, 0, 0, 881.9880981445312
168, 0, 0, 873.0779418945312
169, 0, 0, 876.27099609375
170, 0, 0, 869.1613159179688
171, 0, 0, 867.32861328125
172, 0, 0, 861.8753051757812
173, 0, 0, 865.0026245117188
174, 0, 0, 858.362548828125
175, 0, 0, 857.0607299804688
176, 0, 0, 854.2884521484375
177, 0, 0, 852.494873046875
178, 0, 0, 840.4660034179688
179, 0, 0, 852.2489624023438
