# TOPAS Version: 3.3.p1
# Parameter File: Test.txt
# Results for scorer MLIC_Scorer
# Scored in component: MLIC
# X in 165 bins of 0.2 cm
# Y in 1 bin  of 10 cm
# Z in 1 bin  of 10 cm
# EnergyDeposit ( MeV ) : Sum   
0, 0, 0, 0
1, 0, 0, 0
2, 0, 0, 0
3, 0, 0, 0
4, 0, 0, 0
5, 0, 0, 0
6, 0, 0, 0
7, 0, 0, 0
8, 0, 0, 0
9, 0, 0, 0
10, 0, 0, 0
11, 0, 0, 0
12, 0, 0, 3.974136352539062
13, 0, 0, 70.96379852294922
14, 0, 0, 158.5454406738281
15, 0, 0, 605.898193359375
16, 0, 0, 1408.028442382812
17, 0, 0, 2974.870361328125
18, 0, 0, 4536.0498046875
19, 0, 0, 5221.18408203125
20, 0, 0, 5325.80078125
21, 0, 0, 4799.59423828125
22, 0, 0, 4264.9853515625
23, 0, 0, 3799.10888671875
24, 0, 0, 3415.274169921875
25, 0, 0, 3147.707275390625
26, 0, 0, 2939.174560546875
27, 0, 0, 2780.6787109375
28, 0, 0, 2645.01123046875
29, 0, 0, 2523.808349609375
30, 0, 0, 2426.939208984375
31, 0, 0, 2346.05615234375
32, 0, 0, 2263.669677734375
33, 0, 0, 2198.564697265625
34, 0, 0, 2127.1123046875
35, 0, 0, 2069.447509765625
36, 0, 0, 2016.901000976562
37, 0, 0, 1978.444580078125
38, 0, 0, 1937.251953125
39, 0, 0, 1890.949951171875
40, 0, 0, 1865.292724609375
41, 0, 0, 1816.298950195312
42, 0, 0, 1773.471435546875
43, 0, 0, 1754.328491210938
44, 0, 0, 1719.685791015625
45, 0, 0, 1688.792846679688
46, 0, 0, 1670.323120117188
47, 0, 0, 1645.40185546875
48, 0, 0, 1610.972290039062
49, 0, 0, 1600.857788085938
50, 0, 0, 1572.105590820312
51, 0, 0, 1556.529418945312
52, 0, 0, 1537.570922851562
53, 0, 0, 1518.9833984375
54, 0, 0, 1500.544799804688
55, 0, 0, 1483.3408203125
56, 0, 0, 1463.353271484375
57, 0, 0, 1446.935791015625
58, 0, 0, 1428.878662109375
59, 0, 0, 1417.09765625
60, 0, 0, 1394.489013671875
61, 0, 0, 1393.36376953125
62, 0, 0, 1375.684692382812
63, 0, 0, 1371.381103515625
64, 0, 0, 1348.514526367188
65, 0, 0, 1339.962280273438
66, 0, 0, 1328.11669921875
67, 0, 0, 1314.151000976562
68, 0, 0, 1313.810791015625
69, 0, 0, 1294.959228515625
70, 0, 0, 1281.957153320312
71, 0, 0, 1265.694702148438
72, 0, 0, 1258.567138671875
73, 0, 0, 1249.719970703125
74, 0, 0, 1245.55712890625
75, 0, 0, 1241.307006835938
76, 0, 0, 1225.530883789062
77, 0, 0, 1216.70361328125
78, 0, 0, 1222.116577148438
79, 0, 0, 1203.632202148438
80, 0, 0, 1200.716552734375
81, 0, 0, 1187.428100585938
82, 0, 0, 1181.287719726562
83, 0, 0, 1172.605712890625
84, 0, 0, 1167.100830078125
85, 0, 0, 1153.149169921875
86, 0, 0, 1152.550537109375
87, 0, 0, 1142.780639648438
88, 0, 0, 1143.657592773438
89, 0, 0, 1140.967529296875
90, 0, 0, 1124.477416992188
91, 0, 0, 1119.260620117188
92, 0, 0, 1105.720581054688
93, 0, 0, 1106.53173828125
94, 0, 0, 1102.768676757812
95, 0, 0, 1099.138916015625
96, 0, 0, 1094.504272460938
97, 0, 0, 1082.182861328125
98, 0, 0, 1084.588134765625
99, 0, 0, 1078.27197265625
100, 0, 0, 1071.366577148438
101, 0, 0, 1065.146606445312
102, 0, 0, 1060.694213867188
103, 0, 0, 1058.473388671875
104, 0, 0, 1036.593139648438
105, 0, 0, 1045.762817382812
106, 0, 0, 1035.431884765625
107, 0, 0, 1033.233764648438
108, 0, 0, 1030.930297851562
109, 0, 0, 1032.553466796875
110, 0, 0, 1020.283996582031
111, 0, 0, 1013.483337402344
112, 0, 0, 1014.681274414062
113, 0, 0, 1015.048034667969
114, 0, 0, 1010.21533203125
115, 0, 0, 1005.728271484375
116, 0, 0, 998.7619018554688
117, 0, 0, 999.9652709960938
118, 0, 0, 984.0203247070312
119, 0, 0, 984.59326171875
120, 0, 0, 980.9072875976562
121, 0, 0, 971.02587890625
122, 0, 0, 967.756103515625
123, 0, 0, 974.8355712890625
124, 0, 0, 970.58203125
125, 0, 0, 960.5657958984375
126, 0, 0, 965.6370239257812
127, 0, 0, 957.1369018554688
128, 0, 0, 947.9279174804688
129, 0, 0, 946.8342895507812
130, 0, 0, 951.8130493164062
131, 0, 0, 944.2798461914062
132, 0, 0, 943.2732543945312
133, 0, 0, 940.97119140625
134, 0, 0, 933.326171875
135, 0, 0, 933.4011840820312
136, 0, 0, 924.772705078125
137, 0, 0, 930.5112915039062
138, 0, 0, 919.3954467773438
139, 0, 0, 915.4708251953125
140, 0, 0, 912.6227416992188
141, 0, 0, 913.429443359375
142, 0, 0, 914.6591186523438
143, 0, 0, 901.501953125
144, 0, 0, 902.008544921875
145, 0, 0, 897.4384765625
146, 0, 0, 900.8284301757812
147, 0, 0, 895.0476684570312
148, 0, 0, 896.2152709960938
149, 0, 0, 896.2066650390625
150, 0, 0, 891.7003173828125
151, 0, 0, 888.8741455078125
152, 0, 0, 887.9830322265625
153, 0, 0, 885.6388549804688
154, 0, 0, 874.1053466796875
155, 0, 0, 876.2448120117188
156, 0, 0, 873.6893310546875
157, 0, 0, 876.0606689453125
158, 0, 0, 870.8556518554688
159, 0, 0, 865.4713745117188
160, 0, 0, 862.3441772460938
161, 0, 0, 865.699951171875
162, 0, 0, 865.4689331054688
163, 0, 0, 847.171142578125
164, 0, 0, 851.7880249023438
