# TOPAS Version: 3.3.p1
# Parameter File: Test.txt
# Results for scorer MLIC_Scorer
# Scored in component: MLIC
# X in 180 bins of 0.222222 cm
# Y in 1 bin  of 10 cm
# Z in 1 bin  of 10 cm
# EnergyDeposit ( MeV ) : Sum   
0, 0, 0, 0
1, 0, 0, 0
2, 0, 0, 0
3, 0, 0, 0
4, 0, 0, 0
5, 0, 0, 0
6, 0, 0, 0
7, 0, 0, 0
8, 0, 0, 0
9, 0, 0, 0
10, 0, 0, 0
11, 0, 0, 0
12, 0, 0, 0
13, 0, 0, 0
14, 0, 0, 0
15, 0, 0, 0
16, 0, 0, 0
17, 0, 0, 0
18, 0, 0, 0
19, 0, 0, 0
20, 0, 0, 0
21, 0, 0, 0
22, 0, 0, 0
23, 0, 0, 0
24, 0, 0, 0
25, 0, 0, 0
26, 0, 0, 0
27, 0, 0, 0
28, 0, 0, 0
29, 0, 0, 0
30, 0, 0, 0
31, 0, 0, 0
32, 0, 0, 0
33, 0, 0, 0
34, 0, 0, 0
35, 0, 0, 0
36, 0, 0, 0
37, 0, 0, 0
38, 0, 0, 0
39, 0, 0, 0
40, 0, 0, 0
41, 0, 0, 0
42, 0, 0, 0
43, 0, 0, 0
44, 0, 0, 0
45, 0, 0, 0
46, 0, 0, 0
47, 0, 0, 0
48, 0, 0, 0
49, 0, 0, 0
50, 0, 0, 0
51, 0, 0, 0
52, 0, 0, 0
53, 0, 0, 0
54, 0, 0, 0
55, 0, 0, 0
56, 0, 0, 0
57, 0, 0, 0
58, 0, 0, 0
59, 0, 0, 0
60, 0, 0, 0
61, 0, 0, 0
62, 0, 0, 0
63, 0, 0, 0
64, 0, 0, 0
65, 0, 0, 0
66, 0, 0, 0
67, 0, 0, 0
68, 0, 0, 0
69, 0, 0, 0
70, 0, 0, 0
71, 0, 0, 0
72, 0, 0, 0
73, 0, 0, 0
74, 0, 0, 0
75, 0, 0, 0
76, 0, 0, 0.002062593353912234
77, 0, 0, 0
78, 0, 0, 0
79, 0, 0, 26.56035041809082
80, 0, 0, 160.0458526611328
81, 0, 0, 777.33154296875
82, 0, 0, 2225.114501953125
83, 0, 0, 4405.4248046875
84, 0, 0, 5983.5830078125
85, 0, 0, 6213.125
86, 0, 0, 5512.4931640625
87, 0, 0, 4647.92919921875
88, 0, 0, 4077.4501953125
89, 0, 0, 3682.024658203125
90, 0, 0, 3381.052978515625
91, 0, 0, 3163.900146484375
92, 0, 0, 2986.99658203125
93, 0, 0, 2833.57568359375
94, 0, 0, 2712.990966796875
95, 0, 0, 2602.49951171875
96, 0, 0, 2503.59765625
97, 0, 0, 2419.9423828125
98, 0, 0, 2344.7275390625
99, 0, 0, 2279.09912109375
100, 0, 0, 2217.8837890625
101, 0, 0, 2171.878662109375
102, 0, 0, 2115.232666015625
103, 0, 0, 2066.231201171875
104, 0, 0, 2019.783081054688
105, 0, 0, 1982.937622070312
106, 0, 0, 1941.985229492188
107, 0, 0, 1908.267822265625
108, 0, 0, 1867.515502929688
109, 0, 0, 1841.3740234375
110, 0, 0, 1808.537475585938
111, 0, 0, 1781.757690429688
112, 0, 0, 1758.65966796875
113, 0, 0, 1728.521240234375
114, 0, 0, 1704.556762695312
115, 0, 0, 1682.5439453125
116, 0, 0, 1654.888305664062
117, 0, 0, 1635.03955078125
118, 0, 0, 1613.802001953125
119, 0, 0, 1592.234497070312
120, 0, 0, 1570.60302734375
121, 0, 0, 1570.140258789062
122, 0, 0, 1549.97119140625
123, 0, 0, 1531.195190429688
124, 0, 0, 1516.5634765625
125, 0, 0, 1502.3916015625
126, 0, 0, 1488.427368164062
127, 0, 0, 1467.713500976562
128, 0, 0, 1457.835815429688
129, 0, 0, 1440.169677734375
130, 0, 0, 1422.158813476562
131, 0, 0, 1412.919067382812
132, 0, 0, 1404.53662109375
133, 0, 0, 1383.53515625
134, 0, 0, 1381.247924804688
135, 0, 0, 1369.348999023438
136, 0, 0, 1353.881958007812
137, 0, 0, 1354.23974609375
138, 0, 0, 1330.095581054688
139, 0, 0, 1331.18603515625
140, 0, 0, 1325.708618164062
141, 0, 0, 1309.561645507812
142, 0, 0, 1299.880249023438
143, 0, 0, 1295.778564453125
144, 0, 0, 1277.299926757812
145, 0, 0, 1271.5908203125
146, 0, 0, 1270.344848632812
147, 0, 0, 1256.3701171875
148, 0, 0, 1254.085327148438
149, 0, 0, 1239.533447265625
150, 0, 0, 1226.794311523438
151, 0, 0, 1232.4990234375
152, 0, 0, 1227.172485351562
153, 0, 0, 1214.806396484375
154, 0, 0, 1207.337890625
155, 0, 0, 1206.163330078125
156, 0, 0, 1194.288940429688
157, 0, 0, 1182.3603515625
158, 0, 0, 1185.2705078125
159, 0, 0, 1179.593994140625
160, 0, 0, 1169.612670898438
161, 0, 0, 1160.681030273438
162, 0, 0, 1158.884521484375
163, 0, 0, 1152.49365234375
164, 0, 0, 1146.1943359375
165, 0, 0, 1135.946044921875
166, 0, 0, 1142.376098632812
167, 0, 0, 1130.562255859375
168, 0, 0, 1125.544555664062
169, 0, 0, 1118.946533203125
170, 0, 0, 1121.682495117188
171, 0, 0, 1106.928833007812
172, 0, 0, 1108.850952148438
173, 0, 0, 1094.26708984375
174, 0, 0, 1091.969482421875
175, 0, 0, 1095.135986328125
176, 0, 0, 1088.701049804688
177, 0, 0, 1086.12939453125
178, 0, 0, 1075.888671875
179, 0, 0, 1068.463256835938
