# TOPAS Version: 3.3.p1
# Parameter File: Test.txt
# Results for scorer MLIC_Scorer
# Scored in component: MLIC
# X in 180 bins of 0.222222 cm
# Y in 1 bin  of 10 cm
# Z in 1 bin  of 10 cm
# EnergyDeposit ( MeV ) : Sum   
0, 0, 0, 0
1, 0, 0, 0
2, 0, 0, 0
3, 0, 0, 0
4, 0, 0, 0
5, 0, 0, 0
6, 0, 0, 0
7, 0, 0, 0
8, 0, 0, 0
9, 0, 0, 0
10, 0, 0, 0
11, 0, 0, 0
12, 0, 0, 0
13, 0, 0, 0
14, 0, 0, 0
15, 0, 0, 0
16, 0, 0, 0
17, 0, 0, 0
18, 0, 0, 0
19, 0, 0, 0
20, 0, 0, 0
21, 0, 0, 0
22, 0, 0, 0
23, 0, 0, 0
24, 0, 0, 0
25, 0, 0, 0
26, 0, 0, 0
27, 0, 0, 0
28, 0, 0, 0
29, 0, 0, 0
30, 0, 0, 0
31, 0, 0, 0
32, 0, 0, 0
33, 0, 0, 0
34, 0, 0, 0
35, 0, 0, 0
36, 0, 0, 0
37, 0, 0, 0
38, 0, 0, 0
39, 0, 0, 0
40, 0, 0, 0
41, 0, 0, 0
42, 0, 0, 0
43, 0, 0, 0
44, 0, 0, 0
45, 0, 0, 0
46, 0, 0, 0
47, 0, 0, 0
48, 0, 0, 0
49, 0, 0, 0
50, 0, 0, 0
51, 0, 0, 0
52, 0, 0, 0
53, 0, 0, 0
54, 0, 0, 0
55, 0, 0, 0
56, 0, 0, 0
57, 0, 0, 0
58, 0, 0, 0
59, 0, 0, 0
60, 0, 0, 0
61, 0, 0, 0
62, 0, 0, 0
63, 0, 0, 0
64, 0, 0, 0
65, 0, 0, 0
66, 0, 0, 0
67, 0, 0, 0
68, 0, 0, 0
69, 0, 0, 0
70, 0, 0, 0
71, 0, 0, 0
72, 0, 0, 0
73, 0, 0, 0
74, 0, 0, 0
75, 0, 0, 5.079065322875977
76, 0, 0, 180.3164367675781
77, 0, 0, 641.3762817382812
78, 0, 0, 2288.9912109375
79, 0, 0, 4505.9541015625
80, 0, 0, 6046.9658203125
81, 0, 0, 6205.92236328125
82, 0, 0, 5567.810546875
83, 0, 0, 4661.44384765625
84, 0, 0, 4043.447509765625
85, 0, 0, 3653.0556640625
86, 0, 0, 3382.2236328125
87, 0, 0, 3148.3896484375
88, 0, 0, 2979.167236328125
89, 0, 0, 2828.50341796875
90, 0, 0, 2703.77685546875
91, 0, 0, 2594.29296875
92, 0, 0, 2520.29638671875
93, 0, 0, 2423.072509765625
94, 0, 0, 2346.44384765625
95, 0, 0, 2282.031005859375
96, 0, 0, 2218.077392578125
97, 0, 0, 2167.260009765625
98, 0, 0, 2101.755859375
99, 0, 0, 2064.156982421875
100, 0, 0, 2020.9345703125
101, 0, 0, 1982.684814453125
102, 0, 0, 1934.427612304688
103, 0, 0, 1909.578247070312
104, 0, 0, 1870.832397460938
105, 0, 0, 1837.018432617188
106, 0, 0, 1804.945678710938
107, 0, 0, 1777.043212890625
108, 0, 0, 1751.480712890625
109, 0, 0, 1727.859375
110, 0, 0, 1710.353759765625
111, 0, 0, 1679.087646484375
112, 0, 0, 1658.8193359375
113, 0, 0, 1641.937377929688
114, 0, 0, 1622.648803710938
115, 0, 0, 1595.852905273438
116, 0, 0, 1580.609008789062
117, 0, 0, 1564.923828125
118, 0, 0, 1550.453369140625
119, 0, 0, 1527.643432617188
120, 0, 0, 1504.261108398438
121, 0, 0, 1499.565673828125
122, 0, 0, 1484.9326171875
123, 0, 0, 1467.81396484375
124, 0, 0, 1457.656494140625
125, 0, 0, 1439.787109375
126, 0, 0, 1429.591796875
127, 0, 0, 1414.054077148438
128, 0, 0, 1411.2294921875
129, 0, 0, 1393.971923828125
130, 0, 0, 1377.43701171875
131, 0, 0, 1366.781860351562
132, 0, 0, 1356.134521484375
133, 0, 0, 1357.820434570312
134, 0, 0, 1346.227905273438
135, 0, 0, 1331.42138671875
136, 0, 0, 1318.901000976562
137, 0, 0, 1306.503784179688
138, 0, 0, 1302.041137695312
139, 0, 0, 1296.0380859375
140, 0, 0, 1291.806274414062
141, 0, 0, 1272.81298828125
142, 0, 0, 1262.869384765625
143, 0, 0, 1267.165405273438
144, 0, 0, 1252.110717773438
145, 0, 0, 1235.501220703125
146, 0, 0, 1230.406494140625
147, 0, 0, 1232.099731445312
148, 0, 0, 1212.700073242188
149, 0, 0, 1202.234130859375
150, 0, 0, 1210.343139648438
151, 0, 0, 1205.484375
152, 0, 0, 1192.874389648438
153, 0, 0, 1185.720458984375
154, 0, 0, 1183.261962890625
155, 0, 0, 1178.128295898438
156, 0, 0, 1165.146850585938
157, 0, 0, 1159.541381835938
158, 0, 0, 1156.20849609375
159, 0, 0, 1152.379272460938
160, 0, 0, 1146.884155273438
161, 0, 0, 1146.494995117188
162, 0, 0, 1135.8740234375
163, 0, 0, 1134.177612304688
164, 0, 0, 1132.830932617188
165, 0, 0, 1117.529663085938
166, 0, 0, 1119.400512695312
167, 0, 0, 1108.157470703125
168, 0, 0, 1111.748168945312
169, 0, 0, 1097.750732421875
170, 0, 0, 1099.883422851562
171, 0, 0, 1085.704833984375
172, 0, 0, 1085.004272460938
173, 0, 0, 1078.93408203125
174, 0, 0, 1070.70849609375
175, 0, 0, 1074.467407226562
176, 0, 0, 1061.048461914062
177, 0, 0, 1065.41162109375
178, 0, 0, 1060.514038085938
179, 0, 0, 1054.975830078125
