# TOPAS Version: 3.3.p1
# Parameter File: Test.txt
# Results for scorer MLIC_Scorer
# Scored in component: MLIC
# X in 180 bins of 0.177778 cm
# Y in 1 bin  of 10 cm
# Z in 1 bin  of 10 cm
# EnergyDeposit ( MeV ) : Sum   
0, 0, 0, 0
1, 0, 0, 0
2, 0, 0, 0
3, 0, 0, 0
4, 0, 0, 0
5, 0, 0, 0
6, 0, 0, 0
7, 0, 0, 0
8, 0, 0, 0
9, 0, 0, 0
10, 0, 0, 0
11, 0, 0, 0
12, 0, 0, 0
13, 0, 0, 0
14, 0, 0, 0
15, 0, 0, 0
16, 0, 0, 0
17, 0, 0, 0
18, 0, 0, 0
19, 0, 0, 0
20, 0, 0, 0
21, 0, 0, 0
22, 0, 0, 0
23, 0, 0, 0
24, 0, 0, 0
25, 0, 0, 0
26, 0, 0, 0
27, 0, 0, 0
28, 0, 0, 0
29, 0, 0, 0
30, 0, 0, 0
31, 0, 0, 0
32, 0, 0, 0
33, 0, 0, 0
34, 0, 0, 0
35, 0, 0, 0
36, 0, 0, 0
37, 0, 0, 0
38, 0, 0, 0
39, 0, 0, 0
40, 0, 0, 0
41, 0, 0, 0
42, 0, 0, 0
43, 0, 0, 0
44, 0, 0, 0
45, 0, 0, 0
46, 0, 0, 0
47, 0, 0, 0
48, 0, 0, 0
49, 0, 0, 0
50, 0, 0, 0
51, 0, 0, 0
52, 0, 0, 0
53, 0, 0, 0
54, 0, 0, 0
55, 0, 0, 0
56, 0, 0, 0
57, 0, 0, 0
58, 0, 0, 0
59, 0, 0, 0
60, 0, 0, 0
61, 0, 0, 0
62, 0, 0, 0
63, 0, 0, 0
64, 0, 0, 0
65, 0, 0, 0
66, 0, 0, 0
67, 0, 0, 0
68, 0, 0, 0
69, 0, 0, 0
70, 0, 0, 0
71, 0, 0, 0
72, 0, 0, 0
73, 0, 0, 0
74, 0, 0, 0
75, 0, 0, 0
76, 0, 0, 0
77, 0, 0, 0
78, 0, 0, 0
79, 0, 0, 0
80, 0, 0, 0
81, 0, 0, 0
82, 0, 0, 0
83, 0, 0, 0
84, 0, 0, 0
85, 0, 0, 0
86, 0, 0, 0
87, 0, 0, 0
88, 0, 0, 0
89, 0, 0, 0
90, 0, 0, 0
91, 0, 0, 0
92, 0, 0, 0
93, 0, 0, 0
94, 0, 0, 0
95, 0, 0, 0
96, 0, 0, 0
97, 0, 0, 0
98, 0, 0, 0
99, 0, 0, 0
100, 0, 0, 0
101, 0, 0, 0
102, 0, 0, 0
103, 0, 0, 0
104, 0, 0, 0
105, 0, 0, 0
106, 0, 0, 0
107, 0, 0, 0
108, 0, 0, 0
109, 0, 0, 0
110, 0, 0, 0
111, 0, 0, 0
112, 0, 0, 0
113, 0, 0, 0
114, 0, 0, 0
115, 0, 0, 0
116, 0, 0, 0
117, 0, 0, 0
118, 0, 0, 0
119, 0, 0, 0
120, 0, 0, 0
121, 0, 0, 0
122, 0, 0, 0.003121135290712118
123, 0, 0, 0
124, 0, 0, 0.001171670039184391
125, 0, 0, 0
126, 0, 0, 0
127, 0, 0, 0
128, 0, 0, 0
129, 0, 0, 0
130, 0, 0, 0
131, 0, 0, 0
132, 0, 0, 0
133, 0, 0, 0
134, 0, 0, 0
135, 0, 0, 0
136, 0, 0, 16.97895050048828
137, 0, 0, 53.48126983642578
138, 0, 0, 293.776611328125
139, 0, 0, 686.2146606445312
140, 0, 0, 1558.465454101562
141, 0, 0, 2783.510009765625
142, 0, 0, 4305.94775390625
143, 0, 0, 4896.7763671875
144, 0, 0, 4972.751953125
145, 0, 0, 4560.79541015625
146, 0, 0, 3941.0068359375
147, 0, 0, 3486.957763671875
148, 0, 0, 3155.838623046875
149, 0, 0, 2911.86669921875
150, 0, 0, 2722.301025390625
151, 0, 0, 2576.52197265625
152, 0, 0, 2456.1357421875
153, 0, 0, 2354.89013671875
154, 0, 0, 2257.37255859375
155, 0, 0, 2175.02587890625
156, 0, 0, 2108.86865234375
157, 0, 0, 2040.117919921875
158, 0, 0, 1987.477172851562
159, 0, 0, 1934.942626953125
160, 0, 0, 1886.214111328125
161, 0, 0, 1840.679931640625
162, 0, 0, 1798.95703125
163, 0, 0, 1762.267333984375
164, 0, 0, 1734.96728515625
165, 0, 0, 1694.573120117188
166, 0, 0, 1666.482666015625
167, 0, 0, 1627.700805664062
168, 0, 0, 1610.34423828125
169, 0, 0, 1574.736572265625
170, 0, 0, 1553.364990234375
171, 0, 0, 1530.09814453125
172, 0, 0, 1510.339233398438
173, 0, 0, 1482.759033203125
174, 0, 0, 1464.790893554688
175, 0, 0, 1446.726196289062
176, 0, 0, 1427.621459960938
177, 0, 0, 1422.084594726562
178, 0, 0, 1398.024536132812
179, 0, 0, 1376.721069335938
