# TOPAS Version: 3.3.p1
# Parameter File: Test.txt
# Results for scorer MLIC_Scorer
# Scored in component: MLIC
# X in 180 bins of 0.177778 cm
# Y in 1 bin  of 10 cm
# Z in 1 bin  of 10 cm
# EnergyDeposit ( MeV ) : Sum   
0, 0, 0, 0
1, 0, 0, 0
2, 0, 0, 0
3, 0, 0, 0
4, 0, 0, 0
5, 0, 0, 0
6, 0, 0, 0
7, 0, 0, 0
8, 0, 0, 0
9, 0, 0, 0
10, 0, 0, 0.004990369081497192
11, 0, 0, 0.003492508083581924
12, 0, 0, 0.001742168213240802
13, 0, 0, 0
14, 0, 0, 0
15, 0, 0, 0
16, 0, 0, 0
17, 0, 0, 0
18, 0, 0, 0
19, 0, 0, 0
20, 0, 0, 0.0003693659091368318
21, 0, 0, 0
22, 0, 0, 0
23, 0, 0, 0
24, 0, 0, 0.001208832953125238
25, 0, 0, 0.02009846270084381
26, 0, 0, 15.39176940917969
27, 0, 0, 80.54789733886719
28, 0, 0, 223.4288635253906
29, 0, 0, 634.0814819335938
30, 0, 0, 1608.031127929688
31, 0, 0, 2998.56494140625
32, 0, 0, 4104.91796875
33, 0, 0, 4808.22265625
34, 0, 0, 4909.6083984375
35, 0, 0, 4521.44873046875
36, 0, 0, 4017.995361328125
37, 0, 0, 3510.52001953125
38, 0, 0, 3172.212890625
39, 0, 0, 2921.997802734375
40, 0, 0, 2736.5888671875
41, 0, 0, 2580.291259765625
42, 0, 0, 2463.560546875
43, 0, 0, 2362.786376953125
44, 0, 0, 2254.607177734375
45, 0, 0, 2185.126953125
46, 0, 0, 2105.792236328125
47, 0, 0, 2044.908325195312
48, 0, 0, 1992.464477539062
49, 0, 0, 1931.294067382812
50, 0, 0, 1884.790405273438
51, 0, 0, 1844.273315429688
52, 0, 0, 1805.307983398438
53, 0, 0, 1764.274047851562
54, 0, 0, 1728.652709960938
55, 0, 0, 1698.39501953125
56, 0, 0, 1665.46533203125
57, 0, 0, 1635.467041015625
58, 0, 0, 1606.52587890625
59, 0, 0, 1584.520263671875
60, 0, 0, 1561.818969726562
61, 0, 0, 1530.842041015625
62, 0, 0, 1508.024780273438
63, 0, 0, 1495.063842773438
64, 0, 0, 1470.981811523438
65, 0, 0, 1454.652221679688
66, 0, 0, 1427.279907226562
67, 0, 0, 1412.2333984375
68, 0, 0, 1399.130859375
69, 0, 0, 1379.318603515625
70, 0, 0, 1366.023071289062
71, 0, 0, 1350.057983398438
72, 0, 0, 1339.2578125
73, 0, 0, 1313.884887695312
74, 0, 0, 1311.936279296875
75, 0, 0, 1300.730346679688
76, 0, 0, 1287.9697265625
77, 0, 0, 1261.415283203125
78, 0, 0, 1257.701049804688
79, 0, 0, 1245.692749023438
80, 0, 0, 1231.010375976562
81, 0, 0, 1230.555908203125
82, 0, 0, 1220.274169921875
83, 0, 0, 1208.738891601562
84, 0, 0, 1197.821411132812
85, 0, 0, 1186.119873046875
86, 0, 0, 1176.944946289062
87, 0, 0, 1167.486694335938
88, 0, 0, 1168.714599609375
89, 0, 0, 1145.472778320312
90, 0, 0, 1143.088012695312
91, 0, 0, 1139.077758789062
92, 0, 0, 1123.219970703125
93, 0, 0, 1123.770874023438
94, 0, 0, 1119.953491210938
95, 0, 0, 1105.152221679688
96, 0, 0, 1101.463500976562
97, 0, 0, 1094.091674804688
98, 0, 0, 1091.688720703125
99, 0, 0, 1082.151733398438
100, 0, 0, 1080.322387695312
101, 0, 0, 1060.048217773438
102, 0, 0, 1060.217041015625
103, 0, 0, 1055.14453125
104, 0, 0, 1049.312377929688
105, 0, 0, 1047.933837890625
106, 0, 0, 1036.657470703125
107, 0, 0, 1028.287841796875
108, 0, 0, 1027.36083984375
109, 0, 0, 1017.494995117188
110, 0, 0, 1007.521301269531
111, 0, 0, 1015.412780761719
112, 0, 0, 1004.017700195312
113, 0, 0, 997.695068359375
114, 0, 0, 998.115478515625
115, 0, 0, 991.5971069335938
116, 0, 0, 988.2777099609375
117, 0, 0, 980.6650390625
118, 0, 0, 979.0610961914062
119, 0, 0, 971.4794921875
120, 0, 0, 971.4290771484375
121, 0, 0, 964.668212890625
122, 0, 0, 952.3308715820312
123, 0, 0, 956.7849731445312
124, 0, 0, 952.3692016601562
125, 0, 0, 946.7536010742188
126, 0, 0, 942.6224975585938
127, 0, 0, 940.61181640625
128, 0, 0, 933.6882934570312
129, 0, 0, 933.177001953125
130, 0, 0, 924.9501342773438
131, 0, 0, 928.2769165039062
132, 0, 0, 914.5908813476562
133, 0, 0, 920.4330444335938
134, 0, 0, 914.991943359375
135, 0, 0, 904.6586303710938
136, 0, 0, 905.4254150390625
137, 0, 0, 902.5692749023438
138, 0, 0, 900.8475341796875
139, 0, 0, 893.4586181640625
140, 0, 0, 892.6671142578125
141, 0, 0, 888.089111328125
142, 0, 0, 876.8358154296875
143, 0, 0, 881.1470336914062
144, 0, 0, 875.5728149414062
145, 0, 0, 878.6493530273438
146, 0, 0, 873.8956909179688
147, 0, 0, 860.6094360351562
148, 0, 0, 873.854736328125
149, 0, 0, 869.521240234375
150, 0, 0, 863.7738037109375
151, 0, 0, 871.1237182617188
152, 0, 0, 865.466552734375
153, 0, 0, 855.3303833007812
154, 0, 0, 844.6478881835938
155, 0, 0, 849.0658569335938
156, 0, 0, 848.1146850585938
157, 0, 0, 838.1062622070312
158, 0, 0, 838.49609375
159, 0, 0, 842.778564453125
160, 0, 0, 840.5132446289062
161, 0, 0, 839.9676513671875
162, 0, 0, 832.9793090820312
163, 0, 0, 825.4402465820312
164, 0, 0, 826.0989379882812
165, 0, 0, 828.0759887695312
166, 0, 0, 823.4757690429688
167, 0, 0, 824.70166015625
168, 0, 0, 820.8358764648438
169, 0, 0, 816.0619506835938
170, 0, 0, 811.580322265625
171, 0, 0, 811.2972412109375
172, 0, 0, 806.282958984375
173, 0, 0, 806.732666015625
174, 0, 0, 806.8565063476562
175, 0, 0, 799.2647094726562
176, 0, 0, 802.6680297851562
177, 0, 0, 797.73681640625
178, 0, 0, 796.6246948242188
179, 0, 0, 802.9976196289062
