# TOPAS Version: 3.3.p1
# Parameter File: Test.txt
# Results for scorer MLIC_Scorer
# Scored in component: MLIC
# X in 180 bins of 0.177778 cm
# Y in 1 bin  of 10 cm
# Z in 1 bin  of 10 cm
# EnergyDeposit ( MeV ) : Sum   
0, 0, 0, 0
1, 0, 0, 0
2, 0, 0, 0
3, 0, 0, 0
4, 0, 0, 0
5, 0, 0, 0
6, 0, 0, 0
7, 0, 0, 0
8, 0, 0, 0
9, 0, 0, 0
10, 0, 0, 0
11, 0, 0, 0
12, 0, 0, 0
13, 0, 0, 0
14, 0, 0, 0
15, 0, 0, 0
16, 0, 0, 0
17, 0, 0, 0
18, 0, 0, 0
19, 0, 0, 0
20, 0, 0, 0
21, 0, 0, 0
22, 0, 0, 0
23, 0, 0, 0
24, 0, 0, 0
25, 0, 0, 0
26, 0, 0, 0
27, 0, 0, 0
28, 0, 0, 0
29, 0, 0, 0
30, 0, 0, 0
31, 0, 0, 0
32, 0, 0, 0
33, 0, 0, 0
34, 0, 0, 0
35, 0, 0, 0
36, 0, 0, 0
37, 0, 0, 0
38, 0, 0, 0
39, 0, 0, 0
40, 0, 0, 0
41, 0, 0, 0
42, 0, 0, 0
43, 0, 0, 0
44, 0, 0, 0
45, 0, 0, 0
46, 0, 0, 0
47, 0, 0, 0
48, 0, 0, 0
49, 0, 0, 0
50, 0, 0, 0
51, 0, 0, 0
52, 0, 0, 0
53, 0, 0, 0
54, 0, 0, 0
55, 0, 0, 0
56, 0, 0, 0
57, 0, 0, 0
58, 0, 0, 0
59, 0, 0, 0
60, 0, 0, 0
61, 0, 0, 0
62, 0, 0, 0
63, 0, 0, 0
64, 0, 0, 0
65, 0, 0, 0
66, 0, 0, 0
67, 0, 0, 0
68, 0, 0, 0
69, 0, 0, 0
70, 0, 0, 0
71, 0, 0, 0
72, 0, 0, 0
73, 0, 0, 0
74, 0, 0, 0
75, 0, 0, 0
76, 0, 0, 0
77, 0, 0, 0
78, 0, 0, 0
79, 0, 0, 0
80, 0, 0, 0
81, 0, 0, 0
82, 0, 0, 0
83, 0, 0, 0
84, 0, 0, 0
85, 0, 0, 0.003688517026603222
86, 0, 0, 0.005192483309656382
87, 0, 0, 0
88, 0, 0, 0
89, 0, 0, 0
90, 0, 0, 0.00743424566462636
91, 0, 0, 0
92, 0, 0, 0
93, 0, 0, 0
94, 0, 0, 0
95, 0, 0, 0.003077182685956359
96, 0, 0, 60.38167190551758
97, 0, 0, 254.5738677978516
98, 0, 0, 799.7901000976562
99, 0, 0, 1913.22265625
100, 0, 0, 3324.21826171875
101, 0, 0, 4353.44775390625
102, 0, 0, 4895.5595703125
103, 0, 0, 4872.89990234375
104, 0, 0, 4387.97216796875
105, 0, 0, 3862.815185546875
106, 0, 0, 3450.0908203125
107, 0, 0, 3110.47998046875
108, 0, 0, 2873.631591796875
109, 0, 0, 2699.63232421875
110, 0, 0, 2563.69384765625
111, 0, 0, 2432.900390625
112, 0, 0, 2335.397705078125
113, 0, 0, 2249.33740234375
114, 0, 0, 2164.15087890625
115, 0, 0, 2100.134521484375
116, 0, 0, 2036.343994140625
117, 0, 0, 1977.575317382812
118, 0, 0, 1917.12158203125
119, 0, 0, 1879.668212890625
120, 0, 0, 1831.485595703125
121, 0, 0, 1790.345581054688
122, 0, 0, 1748.03173828125
123, 0, 0, 1718.943237304688
124, 0, 0, 1687.313110351562
125, 0, 0, 1654.977172851562
126, 0, 0, 1629.543579101562
127, 0, 0, 1598.3271484375
128, 0, 0, 1575.972778320312
129, 0, 0, 1545.326416015625
130, 0, 0, 1525.907348632812
131, 0, 0, 1510.693115234375
132, 0, 0, 1484.622802734375
133, 0, 0, 1474.609252929688
134, 0, 0, 1448.429443359375
135, 0, 0, 1427.254760742188
136, 0, 0, 1417.869140625
137, 0, 0, 1394.265258789062
138, 0, 0, 1386.545166015625
139, 0, 0, 1365.305541992188
140, 0, 0, 1340.184692382812
141, 0, 0, 1340.647094726562
142, 0, 0, 1318.827880859375
143, 0, 0, 1312.362915039062
144, 0, 0, 1299.354248046875
145, 0, 0, 1274.769287109375
146, 0, 0, 1270.396728515625
147, 0, 0, 1255.858764648438
148, 0, 0, 1242.1220703125
149, 0, 0, 1236.309936523438
150, 0, 0, 1224.819458007812
151, 0, 0, 1215.347045898438
152, 0, 0, 1208.781005859375
153, 0, 0, 1200.7529296875
154, 0, 0, 1188.233520507812
155, 0, 0, 1184.536376953125
156, 0, 0, 1162.451293945312
157, 0, 0, 1162.7646484375
158, 0, 0, 1146.013061523438
159, 0, 0, 1141.827514648438
160, 0, 0, 1129.92919921875
161, 0, 0, 1121.316040039062
162, 0, 0, 1116.526000976562
163, 0, 0, 1107.319091796875
164, 0, 0, 1107.196166992188
165, 0, 0, 1096.3935546875
166, 0, 0, 1089.373901367188
167, 0, 0, 1077.792724609375
168, 0, 0, 1078.811279296875
169, 0, 0, 1066.759643554688
170, 0, 0, 1063.861328125
171, 0, 0, 1056.082641601562
172, 0, 0, 1053.933715820312
173, 0, 0, 1054.133178710938
174, 0, 0, 1050.700073242188
175, 0, 0, 1035.271118164062
176, 0, 0, 1034.5224609375
177, 0, 0, 1024.278564453125
178, 0, 0, 1024.290893554688
179, 0, 0, 1010.212036132812
