# TOPAS Version: 3.3.p1
# Parameter File: Test.txt
# Results for scorer MLIC_Scorer
# Scored in component: MLIC
# X in 180 bins of 0.222222 cm
# Y in 1 bin  of 10 cm
# Z in 1 bin  of 10 cm
# EnergyDeposit ( MeV ) : Sum   
0, 0, 0, 0
1, 0, 0, 0
2, 0, 0, 0
3, 0, 0, 0
4, 0, 0, 0
5, 0, 0, 0
6, 0, 0, 0
7, 0, 0, 0
8, 0, 0, 0
9, 0, 0, 0
10, 0, 0, 0
11, 0, 0, 0
12, 0, 0, 0
13, 0, 0, 0
14, 0, 0, 0
15, 0, 0, 0
16, 0, 0, 0
17, 0, 0, 0
18, 0, 0, 0
19, 0, 0, 0
20, 0, 0, 0
21, 0, 0, 0
22, 0, 0, 0
23, 0, 0, 0
24, 0, 0, 0
25, 0, 0, 0
26, 0, 0, 0
27, 0, 0, 0
28, 0, 0, 0
29, 0, 0, 0
30, 0, 0, 0
31, 0, 0, 0
32, 0, 0, 0
33, 0, 0, 0
34, 0, 0, 0
35, 0, 0, 0
36, 0, 0, 0
37, 0, 0, 0
38, 0, 0, 0
39, 0, 0, 0
40, 0, 0, 0
41, 0, 0, 0
42, 0, 0, 0
43, 0, 0, 0
44, 0, 0, 0
45, 0, 0, 0
46, 0, 0, 0
47, 0, 0, 0
48, 0, 0, 0
49, 0, 0, 0
50, 0, 0, 0
51, 0, 0, 0
52, 0, 0, 0
53, 0, 0, 0
54, 0, 0, 0
55, 0, 0, 0
56, 0, 0, 0
57, 0, 0, 0
58, 0, 0, 0
59, 0, 0, 0
60, 0, 0, 0
61, 0, 0, 0
62, 0, 0, 0
63, 0, 0, 0
64, 0, 0, 0
65, 0, 0, 0
66, 0, 0, 0
67, 0, 0, 0
68, 0, 0, 0
69, 0, 0, 0
70, 0, 0, 0
71, 0, 0, 0
72, 0, 0, 6.826653003692627
73, 0, 0, 21.63424110412598
74, 0, 0, 165.3731079101562
75, 0, 0, 742.3340454101562
76, 0, 0, 2261.92236328125
77, 0, 0, 4579.56689453125
78, 0, 0, 6164.53125
79, 0, 0, 6122.0234375
80, 0, 0, 5459.42822265625
81, 0, 0, 4640.0009765625
82, 0, 0, 4031.31591796875
83, 0, 0, 3630.728271484375
84, 0, 0, 3358.363037109375
85, 0, 0, 3150.40625
86, 0, 0, 2967.101806640625
87, 0, 0, 2824.288818359375
88, 0, 0, 2705.595458984375
89, 0, 0, 2592.31298828125
90, 0, 0, 2500.021240234375
91, 0, 0, 2407.82275390625
92, 0, 0, 2338.616943359375
93, 0, 0, 2282.427490234375
94, 0, 0, 2215.88134765625
95, 0, 0, 2165.945556640625
96, 0, 0, 2110.537841796875
97, 0, 0, 2052.0693359375
98, 0, 0, 2022.797241210938
99, 0, 0, 1967.956787109375
100, 0, 0, 1935.338256835938
101, 0, 0, 1904.93896484375
102, 0, 0, 1864.783569335938
103, 0, 0, 1842.366333007812
104, 0, 0, 1814.972534179688
105, 0, 0, 1776.767700195312
106, 0, 0, 1755.371459960938
107, 0, 0, 1729.918701171875
108, 0, 0, 1702.7626953125
109, 0, 0, 1685.282958984375
110, 0, 0, 1659.721069335938
111, 0, 0, 1625.531372070312
112, 0, 0, 1612.318481445312
113, 0, 0, 1590.088012695312
114, 0, 0, 1570.634521484375
115, 0, 0, 1558.636840820312
116, 0, 0, 1547.892333984375
117, 0, 0, 1532.588012695312
118, 0, 0, 1515.051635742188
119, 0, 0, 1496.468139648438
120, 0, 0, 1477.165283203125
121, 0, 0, 1471.553344726562
122, 0, 0, 1458.700073242188
123, 0, 0, 1436.123413085938
124, 0, 0, 1422.785278320312
125, 0, 0, 1416.827514648438
126, 0, 0, 1410.766357421875
127, 0, 0, 1392.08251953125
128, 0, 0, 1379.173095703125
129, 0, 0, 1362.819702148438
130, 0, 0, 1360.486694335938
131, 0, 0, 1346.677001953125
132, 0, 0, 1328.759887695312
133, 0, 0, 1342.343872070312
134, 0, 0, 1317.313842773438
135, 0, 0, 1308.658081054688
136, 0, 0, 1300.048583984375
137, 0, 0, 1289.625244140625
138, 0, 0, 1289.947631835938
139, 0, 0, 1280.208374023438
140, 0, 0, 1263.620849609375
141, 0, 0, 1253.6064453125
142, 0, 0, 1252.93896484375
143, 0, 0, 1238.994018554688
144, 0, 0, 1236.431030273438
145, 0, 0, 1230.160888671875
146, 0, 0, 1217.513671875
147, 0, 0, 1214.086791992188
148, 0, 0, 1209.610473632812
149, 0, 0, 1196.467163085938
150, 0, 0, 1185.066528320312
151, 0, 0, 1193.003295898438
152, 0, 0, 1181.723876953125
153, 0, 0, 1171.606567382812
154, 0, 0, 1168.011596679688
155, 0, 0, 1164.8837890625
156, 0, 0, 1152.888427734375
157, 0, 0, 1153.911865234375
158, 0, 0, 1143.717651367188
159, 0, 0, 1136.541381835938
160, 0, 0, 1140.137329101562
161, 0, 0, 1127.786010742188
162, 0, 0, 1125.473266601562
163, 0, 0, 1120.478393554688
164, 0, 0, 1108.609985351562
165, 0, 0, 1108.213256835938
166, 0, 0, 1107.645141601562
167, 0, 0, 1106.344848632812
168, 0, 0, 1101.616088867188
169, 0, 0, 1083.059326171875
170, 0, 0, 1082.004150390625
171, 0, 0, 1079.107177734375
172, 0, 0, 1090.416748046875
173, 0, 0, 1067.266967773438
174, 0, 0, 1067.376098632812
175, 0, 0, 1063.05615234375
176, 0, 0, 1058.318969726562
177, 0, 0, 1056.23095703125
178, 0, 0, 1049.677978515625
179, 0, 0, 1039.689819335938
