# TOPAS Version: 3.3.p1
# Parameter File: Test.txt
# Results for scorer MLIC_Scorer
# Scored in component: MLIC
# X in 180 bins of 0.177778 cm
# Y in 1 bin  of 10 cm
# Z in 1 bin  of 10 cm
# EnergyDeposit ( MeV ) : Sum   
0, 0, 0, 0
1, 0, 0, 0
2, 0, 0, 0
3, 0, 0, 0
4, 0, 0, 0
5, 0, 0, 0
6, 0, 0, 0
7, 0, 0, 0
8, 0, 0, 0
9, 0, 0, 0
10, 0, 0, 0
11, 0, 0, 0
12, 0, 0, 0
13, 0, 0, 0
14, 0, 0, 0
15, 0, 0, 0
16, 0, 0, 0
17, 0, 0, 0
18, 0, 0, 0
19, 0, 0, 0
20, 0, 0, 0
21, 0, 0, 0
22, 0, 0, 0
23, 0, 0, 0
24, 0, 0, 0
25, 0, 0, 0
26, 0, 0, 0
27, 0, 0, 0
28, 0, 0, 0
29, 0, 0, 0
30, 0, 0, 0
31, 0, 0, 0
32, 0, 0, 0
33, 0, 0, 0
34, 0, 0, 0.01597518287599087
35, 0, 0, 0
36, 0, 0, 0
37, 0, 0, 0
38, 0, 0, 0
39, 0, 0, 0
40, 0, 0, 0
41, 0, 0, 0
42, 0, 0, 0
43, 0, 0, 0.006687077227979898
44, 0, 0, 0
45, 0, 0, 0.0167499203234911
46, 0, 0, 0.003354195971041918
47, 0, 0, 0
48, 0, 0, 0
49, 0, 0, 0.003497212426736951
50, 0, 0, 0
51, 0, 0, 16.10259819030762
52, 0, 0, 244.1369476318359
53, 0, 0, 848.1427001953125
54, 0, 0, 2067.6572265625
55, 0, 0, 3531.942626953125
56, 0, 0, 4548.74853515625
57, 0, 0, 4967.6396484375
58, 0, 0, 4886.29736328125
59, 0, 0, 4259.26123046875
60, 0, 0, 3774.32568359375
61, 0, 0, 3402.979248046875
62, 0, 0, 3083.864501953125
63, 0, 0, 2851.23046875
64, 0, 0, 2686.813232421875
65, 0, 0, 2542.521240234375
66, 0, 0, 2418.232666015625
67, 0, 0, 2326.193603515625
68, 0, 0, 2229.309326171875
69, 0, 0, 2157.916015625
70, 0, 0, 2090.440673828125
71, 0, 0, 2024.736938476562
72, 0, 0, 1969.72216796875
73, 0, 0, 1915.181640625
74, 0, 0, 1873.919555664062
75, 0, 0, 1827.40966796875
76, 0, 0, 1795.160766601562
77, 0, 0, 1747.860229492188
78, 0, 0, 1718.946655273438
79, 0, 0, 1686.420654296875
80, 0, 0, 1653.47119140625
81, 0, 0, 1621.235595703125
82, 0, 0, 1600.228515625
83, 0, 0, 1576.074584960938
84, 0, 0, 1544.717651367188
85, 0, 0, 1526.085083007812
86, 0, 0, 1496.10009765625
87, 0, 0, 1487.567260742188
88, 0, 0, 1461.916137695312
89, 0, 0, 1439.457397460938
90, 0, 0, 1424.078002929688
91, 0, 0, 1410.13427734375
92, 0, 0, 1392.631225585938
93, 0, 0, 1371.417724609375
94, 0, 0, 1365.484497070312
95, 0, 0, 1345.378295898438
96, 0, 0, 1339.845336914062
97, 0, 0, 1316.666748046875
98, 0, 0, 1303.439575195312
99, 0, 0, 1290.631958007812
100, 0, 0, 1280.943603515625
101, 0, 0, 1268.728515625
102, 0, 0, 1255.67041015625
103, 0, 0, 1244.425415039062
104, 0, 0, 1231.347778320312
105, 0, 0, 1230.336547851562
106, 0, 0, 1207.7529296875
107, 0, 0, 1205.532348632812
108, 0, 0, 1196.35009765625
109, 0, 0, 1181.439331054688
110, 0, 0, 1183.224731445312
111, 0, 0, 1170.026489257812
112, 0, 0, 1164.115478515625
113, 0, 0, 1156.737548828125
114, 0, 0, 1138.973876953125
115, 0, 0, 1126.741455078125
116, 0, 0, 1128.6845703125
117, 0, 0, 1119.001220703125
118, 0, 0, 1114.98193359375
119, 0, 0, 1101.5498046875
120, 0, 0, 1103.763061523438
121, 0, 0, 1082.224975585938
122, 0, 0, 1084.361083984375
123, 0, 0, 1078.631713867188
124, 0, 0, 1071.86083984375
125, 0, 0, 1066.979248046875
126, 0, 0, 1052.26953125
127, 0, 0, 1052.737915039062
128, 0, 0, 1054.940307617188
129, 0, 0, 1046.154418945312
130, 0, 0, 1025.736083984375
131, 0, 0, 1028.518432617188
132, 0, 0, 1026.030883789062
133, 0, 0, 1010.096069335938
134, 0, 0, 1005.037658691406
135, 0, 0, 1002.12939453125
136, 0, 0, 998.2068481445312
137, 0, 0, 996.8601684570312
138, 0, 0, 996.3628540039062
139, 0, 0, 988.3433837890625
140, 0, 0, 986.5377197265625
141, 0, 0, 980.6004638671875
142, 0, 0, 974.2346801757812
143, 0, 0, 973.0123291015625
144, 0, 0, 969.440673828125
145, 0, 0, 962.9910278320312
146, 0, 0, 960.4118041992188
147, 0, 0, 956.228271484375
148, 0, 0, 952.9852905273438
149, 0, 0, 947.48974609375
150, 0, 0, 933.03857421875
151, 0, 0, 935.2222900390625
152, 0, 0, 932.9067993164062
153, 0, 0, 930.883056640625
154, 0, 0, 926.8201904296875
155, 0, 0, 929.3137817382812
156, 0, 0, 931.1103515625
157, 0, 0, 920.5082397460938
158, 0, 0, 917.211181640625
159, 0, 0, 907.6572875976562
160, 0, 0, 902.6998901367188
161, 0, 0, 905.9284057617188
162, 0, 0, 904.022705078125
163, 0, 0, 893.3414916992188
164, 0, 0, 903.3135375976562
165, 0, 0, 901.9757080078125
166, 0, 0, 887.947021484375
167, 0, 0, 885.9203491210938
168, 0, 0, 874.3111572265625
169, 0, 0, 871.3051147460938
170, 0, 0, 866.392578125
171, 0, 0, 869.6906127929688
172, 0, 0, 862.4999389648438
173, 0, 0, 863.7967529296875
174, 0, 0, 856.9959106445312
175, 0, 0, 855.9537963867188
176, 0, 0, 857.7078247070312
177, 0, 0, 849.8434448242188
178, 0, 0, 853.89501953125
179, 0, 0, 848.3197631835938
