# TOPAS Version: 3.3.p1
# Parameter File: Test.txt
# Results for scorer MLIC_Scorer
# Scored in component: MLIC
# X in 180 bins of 0.177778 cm
# Y in 1 bin  of 10 cm
# Z in 1 bin  of 10 cm
# EnergyDeposit ( MeV ) : Sum   
0, 0, 0, 0
1, 0, 0, 0
2, 0, 0, 0
3, 0, 0, 0
4, 0, 0, 0
5, 0, 0, 0
6, 0, 0, 0
7, 0, 0, 0
8, 0, 0, 0
9, 0, 0, 0
10, 0, 0, 0
11, 0, 0, 0
12, 0, 0, 0
13, 0, 0, 0
14, 0, 0, 0
15, 0, 0, 0
16, 0, 0, 0
17, 0, 0, 0
18, 0, 0, 0
19, 0, 0, 0
20, 0, 0, 0
21, 0, 0, 0
22, 0, 0, 0
23, 0, 0, 0
24, 0, 0, 0
25, 0, 0, 0
26, 0, 0, 0
27, 0, 0, 0
28, 0, 0, 0
29, 0, 0, 0
30, 0, 0, 0
31, 0, 0, 0
32, 0, 0, 0
33, 0, 0, 0
34, 0, 0, 0
35, 0, 0, 0
36, 0, 0, 0
37, 0, 0, 0
38, 0, 0, 0
39, 0, 0, 0
40, 0, 0, 0
41, 0, 0, 0
42, 0, 0, 0
43, 0, 0, 0
44, 0, 0, 0
45, 0, 0, 0
46, 0, 0, 0
47, 0, 0, 0
48, 0, 0, 0
49, 0, 0, 0
50, 0, 0, 0
51, 0, 0, 0
52, 0, 0, 0
53, 0, 0, 0
54, 0, 0, 0
55, 0, 0, 0
56, 0, 0, 0
57, 0, 0, 0
58, 0, 0, 0
59, 0, 0, 0
60, 0, 0, 0
61, 0, 0, 0.03694842010736465
62, 0, 0, 0
63, 0, 0, 0
64, 0, 0, 0
65, 0, 0, 0
66, 0, 0, 0.03197024762630463
67, 0, 0, 0
68, 0, 0, 0
69, 0, 0, 0
70, 0, 0, 0
71, 0, 0, 0
72, 0, 0, 0
73, 0, 0, 0
74, 0, 0, 0
75, 0, 0, 0
76, 0, 0, 0
77, 0, 0, 0
78, 0, 0, 0
79, 0, 0, 2.836356639862061
80, 0, 0, 23.01052474975586
81, 0, 0, 93.53775787353516
82, 0, 0, 277.6776428222656
83, 0, 0, 918.1964721679688
84, 0, 0, 2124.464599609375
85, 0, 0, 3312.799072265625
86, 0, 0, 4541.1884765625
87, 0, 0, 5028.73974609375
88, 0, 0, 4844.26513671875
89, 0, 0, 4357.25830078125
90, 0, 0, 3782.522705078125
91, 0, 0, 3366.24658203125
92, 0, 0, 3065.69970703125
93, 0, 0, 2854.009765625
94, 0, 0, 2677.259033203125
95, 0, 0, 2541.699951171875
96, 0, 0, 2413.85693359375
97, 0, 0, 2320.4541015625
98, 0, 0, 2231.658935546875
99, 0, 0, 2152.6025390625
100, 0, 0, 2081.214111328125
101, 0, 0, 2028.857421875
102, 0, 0, 1969.49365234375
103, 0, 0, 1913.080444335938
104, 0, 0, 1875.5576171875
105, 0, 0, 1832.7236328125
106, 0, 0, 1793.538940429688
107, 0, 0, 1744.166748046875
108, 0, 0, 1718.473754882812
109, 0, 0, 1681.859619140625
110, 0, 0, 1651.90576171875
111, 0, 0, 1622.801025390625
112, 0, 0, 1595.51123046875
113, 0, 0, 1575.014282226562
114, 0, 0, 1550.272338867188
115, 0, 0, 1520.725219726562
116, 0, 0, 1507.882202148438
117, 0, 0, 1485.823608398438
118, 0, 0, 1460.2783203125
119, 0, 0, 1446.108276367188
120, 0, 0, 1426.953125
121, 0, 0, 1411.304321289062
122, 0, 0, 1395.015014648438
123, 0, 0, 1376.471069335938
124, 0, 0, 1362.4306640625
125, 0, 0, 1345.798950195312
126, 0, 0, 1334.552856445312
127, 0, 0, 1322.02392578125
128, 0, 0, 1303.033569335938
129, 0, 0, 1290.758056640625
130, 0, 0, 1275.39404296875
131, 0, 0, 1270.341430664062
132, 0, 0, 1262.64794921875
133, 0, 0, 1243.644897460938
134, 0, 0, 1232.136474609375
135, 0, 0, 1226.68701171875
136, 0, 0, 1212.710815429688
137, 0, 0, 1213.996337890625
138, 0, 0, 1194.660400390625
139, 0, 0, 1182.80322265625
140, 0, 0, 1174.290893554688
141, 0, 0, 1164.921630859375
142, 0, 0, 1153.4833984375
143, 0, 0, 1146.587280273438
144, 0, 0, 1146.003662109375
145, 0, 0, 1138.22314453125
146, 0, 0, 1124.335693359375
147, 0, 0, 1116.095336914062
148, 0, 0, 1106.919311523438
149, 0, 0, 1102.687377929688
150, 0, 0, 1094.977905273438
151, 0, 0, 1094.44580078125
152, 0, 0, 1087.166381835938
153, 0, 0, 1079.890625
154, 0, 0, 1068.71826171875
155, 0, 0, 1061.113891601562
156, 0, 0, 1055.11767578125
157, 0, 0, 1050.2236328125
158, 0, 0, 1047.01708984375
159, 0, 0, 1038.081420898438
160, 0, 0, 1029.414672851562
161, 0, 0, 1029.740966796875
162, 0, 0, 1019.336853027344
163, 0, 0, 1018.201843261719
164, 0, 0, 1020.825866699219
165, 0, 0, 1009.277954101562
166, 0, 0, 1005.941711425781
167, 0, 0, 993.8260498046875
168, 0, 0, 995.4284057617188
169, 0, 0, 983.8035278320312
170, 0, 0, 983.150390625
171, 0, 0, 975.1661376953125
172, 0, 0, 972.1192626953125
173, 0, 0, 971.0313720703125
174, 0, 0, 968.4579467773438
175, 0, 0, 957.578125
176, 0, 0, 959.5192260742188
177, 0, 0, 949.95166015625
178, 0, 0, 947.607177734375
179, 0, 0, 942.9379272460938
