# TOPAS Version: 3.3.p1
# Parameter File: Test.txt
# Results for scorer MLIC_Scorer
# Scored in component: MLIC
# X in 180 bins of 0.183333 cm
# Y in 1 bin  of 10 cm
# Z in 1 bin  of 10 cm
# EnergyDeposit ( MeV ) : Sum   
0, 0, 0, 0
1, 0, 0, 0
2, 0, 0, 0
3, 0, 0, 0
4, 0, 0, 0
5, 0, 0, 0
6, 0, 0, 0
7, 0, 0, 0
8, 0, 0, 0
9, 0, 0, 0
10, 0, 0, 0
11, 0, 0, 0
12, 0, 0, 0
13, 0, 0, 0
14, 0, 0, 0
15, 0, 0, 0
16, 0, 0, 0
17, 0, 0, 0
18, 0, 0, 0
19, 0, 0, 0
20, 0, 0, 0
21, 0, 0, 0
22, 0, 0, 0
23, 0, 0, 0
24, 0, 0, 0
25, 0, 0, 0
26, 0, 0, 0
27, 0, 0, 0
28, 0, 0, 0
29, 0, 0, 0
30, 0, 0, 0
31, 0, 0, 0
32, 0, 0, 0
33, 0, 0, 0
34, 0, 0, 0
35, 0, 0, 0
36, 0, 0, 0
37, 0, 0, 0
38, 0, 0, 0
39, 0, 0, 0
40, 0, 0, 0
41, 0, 0, 0
42, 0, 0, 0
43, 0, 0, 0
44, 0, 0, 0
45, 0, 0, 0
46, 0, 0, 0
47, 0, 0, 0
48, 0, 0, 0
49, 0, 0, 0
50, 0, 0, 0
51, 0, 0, 0
52, 0, 0, 0
53, 0, 0, 0
54, 0, 0, 0
55, 0, 0, 0
56, 0, 0, 0
57, 0, 0, 0
58, 0, 0, 0
59, 0, 0, 0
60, 0, 0, 0
61, 0, 0, 0
62, 0, 0, 0
63, 0, 0, 0
64, 0, 0, 0
65, 0, 0, 0
66, 0, 0, 0.002990389009937644
67, 0, 0, 0
68, 0, 0, 0.003035951405763626
69, 0, 0, 0
70, 0, 0, 0
71, 0, 0, 0
72, 0, 0, 5.508989810943604
73, 0, 0, 31.54754638671875
74, 0, 0, 224.9013366699219
75, 0, 0, 800.3839721679688
76, 0, 0, 2093.54833984375
77, 0, 0, 3658.75537109375
78, 0, 0, 4823.75
79, 0, 0, 5225.17822265625
80, 0, 0, 4955.4013671875
81, 0, 0, 4326.6689453125
82, 0, 0, 3819.15185546875
83, 0, 0, 3398.56591796875
84, 0, 0, 3096.8505859375
85, 0, 0, 2883.23193359375
86, 0, 0, 2710.753662109375
87, 0, 0, 2560.411376953125
88, 0, 0, 2453.35693359375
89, 0, 0, 2354.34814453125
90, 0, 0, 2269.336669921875
91, 0, 0, 2186.795166015625
92, 0, 0, 2117.289306640625
93, 0, 0, 2064.474365234375
94, 0, 0, 2006.068725585938
95, 0, 0, 1952.258911132812
96, 0, 0, 1908.761840820312
97, 0, 0, 1859.010620117188
98, 0, 0, 1813.187133789062
99, 0, 0, 1779.175170898438
100, 0, 0, 1741.245727539062
101, 0, 0, 1712.848022460938
102, 0, 0, 1677.52490234375
103, 0, 0, 1650.139892578125
104, 0, 0, 1628.280639648438
105, 0, 0, 1596.446411132812
106, 0, 0, 1570.1474609375
107, 0, 0, 1555.261840820312
108, 0, 0, 1532.628051757812
109, 0, 0, 1506.686401367188
110, 0, 0, 1484.382202148438
111, 0, 0, 1466.7041015625
112, 0, 0, 1449.056030273438
113, 0, 0, 1425.626098632812
114, 0, 0, 1414.494384765625
115, 0, 0, 1398.347045898438
116, 0, 0, 1386.343872070312
117, 0, 0, 1371.693481445312
118, 0, 0, 1356.634521484375
119, 0, 0, 1342.637451171875
120, 0, 0, 1324.371337890625
121, 0, 0, 1316.369750976562
122, 0, 0, 1306.971801757812
123, 0, 0, 1287.746215820312
124, 0, 0, 1283.774536132812
125, 0, 0, 1268.205322265625
126, 0, 0, 1264.5546875
127, 0, 0, 1243.458740234375
128, 0, 0, 1233.492797851562
129, 0, 0, 1232.50439453125
130, 0, 0, 1214.3818359375
131, 0, 0, 1207.193237304688
132, 0, 0, 1195.058715820312
133, 0, 0, 1185.672119140625
134, 0, 0, 1180.503662109375
135, 0, 0, 1172.664184570312
136, 0, 0, 1163.149536132812
137, 0, 0, 1160.432006835938
138, 0, 0, 1144.233154296875
139, 0, 0, 1137.491821289062
140, 0, 0, 1127.260131835938
141, 0, 0, 1123.681884765625
142, 0, 0, 1119.315307617188
143, 0, 0, 1114.319213867188
144, 0, 0, 1106.612182617188
145, 0, 0, 1094.671020507812
146, 0, 0, 1092.349487304688
147, 0, 0, 1087.654907226562
148, 0, 0, 1072.620239257812
149, 0, 0, 1066.755737304688
150, 0, 0, 1063.234497070312
151, 0, 0, 1060.401245117188
152, 0, 0, 1053.721801757812
153, 0, 0, 1039.503173828125
154, 0, 0, 1045.93115234375
155, 0, 0, 1037.374145507812
156, 0, 0, 1030.935424804688
157, 0, 0, 1013.666076660156
158, 0, 0, 1018.176147460938
159, 0, 0, 1018.118103027344
160, 0, 0, 1007.68701171875
161, 0, 0, 1015.927917480469
162, 0, 0, 1000.136657714844
163, 0, 0, 995.6561279296875
164, 0, 0, 989.2047119140625
165, 0, 0, 989.5455932617188
166, 0, 0, 991.7814331054688
167, 0, 0, 983.5648803710938
168, 0, 0, 978.4773559570312
169, 0, 0, 974.6795043945312
170, 0, 0, 965.7130126953125
171, 0, 0, 961.6516723632812
172, 0, 0, 957.9181518554688
173, 0, 0, 951.6470336914062
174, 0, 0, 953.3419799804688
175, 0, 0, 947.2666625976562
176, 0, 0, 945.0208129882812
177, 0, 0, 938.6321411132812
178, 0, 0, 945.0407104492188
179, 0, 0, 933.4633178710938
