# TOPAS Version: 3.3.p1
# Parameter File: Test.txt
# Results for scorer MLIC_Scorer
# Scored in component: MLIC
# X in 180 bins of 0.177778 cm
# Y in 1 bin  of 10 cm
# Z in 1 bin  of 10 cm
# EnergyDeposit ( MeV ) : Sum   
0, 0, 0, 0
1, 0, 0, 0
2, 0, 0, 0
3, 0, 0, 0
4, 0, 0, 0
5, 0, 0, 0
6, 0, 0, 0
7, 0, 0, 0
8, 0, 0, 0
9, 0, 0, 0
10, 0, 0, 0
11, 0, 0, 0
12, 0, 0, 0
13, 0, 0, 0
14, 0, 0, 0
15, 0, 0, 0
16, 0, 0, 0
17, 0, 0, 0
18, 0, 0, 0
19, 0, 0, 0
20, 0, 0, 0
21, 0, 0, 0
22, 0, 0, 0
23, 0, 0, 0
24, 0, 0, 0
25, 0, 0, 0
26, 0, 0, 0
27, 0, 0, 0
28, 0, 0, 0
29, 0, 0, 0
30, 0, 0, 0
31, 0, 0, 0
32, 0, 0, 0
33, 0, 0, 0
34, 0, 0, 0
35, 0, 0, 0
36, 0, 0, 0
37, 0, 0, 0
38, 0, 0, 0
39, 0, 0, 0
40, 0, 0, 0
41, 0, 0, 0
42, 0, 0, 0
43, 0, 0, 0
44, 0, 0, 0
45, 0, 0, 0
46, 0, 0, 0
47, 0, 0, 0
48, 0, 0, 0
49, 0, 0, 0
50, 0, 0, 0
51, 0, 0, 0
52, 0, 0, 0
53, 0, 0, 0
54, 0, 0, 0
55, 0, 0, 0
56, 0, 0, 0
57, 0, 0, 0
58, 0, 0, 0
59, 0, 0, 0
60, 0, 0, 0
61, 0, 0, 0
62, 0, 0, 0
63, 0, 0, 0
64, 0, 0, 0
65, 0, 0, 0
66, 0, 0, 0
67, 0, 0, 0
68, 0, 0, 0
69, 0, 0, 0
70, 0, 0, 0
71, 0, 0, 0
72, 0, 0, 0
73, 0, 0, 0
74, 0, 0, 0
75, 0, 0, 0
76, 0, 0, 0
77, 0, 0, 0
78, 0, 0, 0
79, 0, 0, 0
80, 0, 0, 0
81, 0, 0, 0
82, 0, 0, 0
83, 0, 0, 0
84, 0, 0, 0
85, 0, 0, 0
86, 0, 0, 0
87, 0, 0, 0
88, 0, 0, 0
89, 0, 0, 0
90, 0, 0, 0
91, 0, 0, 0
92, 0, 0, 0
93, 0, 0, 0
94, 0, 0, 0
95, 0, 0, 0
96, 0, 0, 0
97, 0, 0, 0
98, 0, 0, 0
99, 0, 0, 0
100, 0, 0, 0
101, 0, 0, 0
102, 0, 0, 0
103, 0, 0, 0
104, 0, 0, 0
105, 0, 0, 0
106, 0, 0, 0
107, 0, 0, 0
108, 0, 0, 0
109, 0, 0, 0
110, 0, 0, 0
111, 0, 0, 0
112, 0, 0, 0
113, 0, 0, 0
114, 0, 0, 0
115, 0, 0, 0
116, 0, 0, 0.0385330356657505
117, 0, 0, 0
118, 0, 0, 0
119, 0, 0, 0
120, 0, 0, 0
121, 0, 0, 0
122, 0, 0, 0.01213646680116653
123, 0, 0, 0.003709189360961318
124, 0, 0, 0.0102409990504384
125, 0, 0, 0
126, 0, 0, 0
127, 0, 0, 0
128, 0, 0, 0.02733032591640949
129, 0, 0, 0
130, 0, 0, 1.449870705604553
131, 0, 0, 37.53255081176758
132, 0, 0, 236.8591461181641
133, 0, 0, 857.7819213867188
134, 0, 0, 1841.1494140625
135, 0, 0, 3337.081787109375
136, 0, 0, 4524.41748046875
137, 0, 0, 4968.25537109375
138, 0, 0, 4889.404296875
139, 0, 0, 4355.9091796875
140, 0, 0, 3850.33349609375
141, 0, 0, 3397.18017578125
142, 0, 0, 3093.9697265625
143, 0, 0, 2869.55908203125
144, 0, 0, 2700.476806640625
145, 0, 0, 2562.987548828125
146, 0, 0, 2435.387939453125
147, 0, 0, 2331.4189453125
148, 0, 0, 2241.0703125
149, 0, 0, 2157.5458984375
150, 0, 0, 2087.9248046875
151, 0, 0, 2025.307861328125
152, 0, 0, 1970.090209960938
153, 0, 0, 1924.736572265625
154, 0, 0, 1875.495849609375
155, 0, 0, 1838.758178710938
156, 0, 0, 1793.546142578125
157, 0, 0, 1762.240234375
158, 0, 0, 1720.730712890625
159, 0, 0, 1686.306274414062
160, 0, 0, 1657.33935546875
161, 0, 0, 1618.541748046875
162, 0, 0, 1608.885620117188
163, 0, 0, 1569.545654296875
164, 0, 0, 1547.429931640625
165, 0, 0, 1529.746459960938
166, 0, 0, 1506.627197265625
167, 0, 0, 1478.504150390625
168, 0, 0, 1473.919311523438
169, 0, 0, 1445.823608398438
170, 0, 0, 1425.288330078125
171, 0, 0, 1414.377075195312
172, 0, 0, 1395.811279296875
173, 0, 0, 1371.728881835938
174, 0, 0, 1359.34912109375
175, 0, 0, 1350.005737304688
176, 0, 0, 1339.208618164062
177, 0, 0, 1316.094482421875
178, 0, 0, 1302.310302734375
179, 0, 0, 1288.129272460938
