# TOPAS Version: 3.3.p1
# Parameter File: Test.txt
# Results for scorer MLIC_Scorer
# Scored in component: MLIC
# X in 180 bins of 0.177778 cm
# Y in 1 bin  of 10 cm
# Z in 1 bin  of 10 cm
# EnergyDeposit ( MeV ) : Sum   
0, 0, 0, 0
1, 0, 0, 0
2, 0, 0, 0
3, 0, 0, 0
4, 0, 0, 0
5, 0, 0, 0
6, 0, 0, 0
7, 0, 0, 0
8, 0, 0, 0
9, 0, 0, 0
10, 0, 0, 0
11, 0, 0, 0
12, 0, 0, 0
13, 0, 0, 0
14, 0, 0, 0
15, 0, 0, 0
16, 0, 0, 0
17, 0, 0, 0
18, 0, 0, 0
19, 0, 0, 0
20, 0, 0, 0
21, 0, 0, 0
22, 0, 0, 0
23, 0, 0, 0
24, 0, 0, 0
25, 0, 0, 0
26, 0, 0, 0
27, 0, 0, 0
28, 0, 0, 0
29, 0, 0, 0
30, 0, 0, 0
31, 0, 0, 0
32, 0, 0, 0
33, 0, 0, 0
34, 0, 0, 0
35, 0, 0, 0
36, 0, 0, 0
37, 0, 0, 0
38, 0, 0, 0
39, 0, 0, 0
40, 0, 0, 0
41, 0, 0, 0
42, 0, 0, 0
43, 0, 0, 0
44, 0, 0, 0
45, 0, 0, 0
46, 0, 0, 0
47, 0, 0, 0
48, 0, 0, 0
49, 0, 0, 0
50, 0, 0, 0
51, 0, 0, 0
52, 0, 0, 0
53, 0, 0, 0
54, 0, 0, 0
55, 0, 0, 0
56, 0, 0, 0
57, 0, 0, 0
58, 0, 0, 0
59, 0, 0, 0
60, 0, 0, 0
61, 0, 0, 0
62, 0, 0, 0
63, 0, 0, 0
64, 0, 0, 0
65, 0, 0, 0
66, 0, 0, 0
67, 0, 0, 0
68, 0, 0, 0.03079427219927311
69, 0, 0, 0
70, 0, 0, 0
71, 0, 0, 0
72, 0, 0, 0
73, 0, 0, 0
74, 0, 0, 0
75, 0, 0, 0
76, 0, 0, 0
77, 0, 0, 0
78, 0, 0, 0
79, 0, 0, 0
80, 0, 0, 0
81, 0, 0, 0
82, 0, 0, 0
83, 0, 0, 0
84, 0, 0, 0
85, 0, 0, 0
86, 0, 0, 0
87, 0, 0, 0
88, 0, 0, 0
89, 0, 0, 0
90, 0, 0, 0
91, 0, 0, 0
92, 0, 0, 0.01972624473273754
93, 0, 0, 42.25784683227539
94, 0, 0, 163.1184997558594
95, 0, 0, 438.6668701171875
96, 0, 0, 1363.123413085938
97, 0, 0, 2562.600341796875
98, 0, 0, 4012.28466796875
99, 0, 0, 4977.970703125
100, 0, 0, 5021.29931640625
101, 0, 0, 4642.45849609375
102, 0, 0, 4066.493896484375
103, 0, 0, 3577.326416015625
104, 0, 0, 3215.173583984375
105, 0, 0, 2949.999267578125
106, 0, 0, 2760.736083984375
107, 0, 0, 2605.113037109375
108, 0, 0, 2478.615234375
109, 0, 0, 2372.122314453125
110, 0, 0, 2288.033203125
111, 0, 0, 2201.9541015625
112, 0, 0, 2121.163818359375
113, 0, 0, 2054.394287109375
114, 0, 0, 1995.689208984375
115, 0, 0, 1935.567749023438
116, 0, 0, 1896.289794921875
117, 0, 0, 1847.330688476562
118, 0, 0, 1811.498779296875
119, 0, 0, 1773.876953125
120, 0, 0, 1736.97509765625
121, 0, 0, 1698.335083007812
122, 0, 0, 1668.390625
123, 0, 0, 1636.486083984375
124, 0, 0, 1612.485107421875
125, 0, 0, 1588.218505859375
126, 0, 0, 1561.059814453125
127, 0, 0, 1530.76806640625
128, 0, 0, 1513.982543945312
129, 0, 0, 1492.749877929688
130, 0, 0, 1477.014282226562
131, 0, 0, 1451.826171875
132, 0, 0, 1436.390869140625
133, 0, 0, 1419.78955078125
134, 0, 0, 1398.185546875
135, 0, 0, 1385.102905273438
136, 0, 0, 1365.498291015625
137, 0, 0, 1353.432373046875
138, 0, 0, 1340.503662109375
139, 0, 0, 1321.59814453125
140, 0, 0, 1311.323364257812
141, 0, 0, 1289.994018554688
142, 0, 0, 1284.337646484375
143, 0, 0, 1270.955444335938
144, 0, 0, 1257.803100585938
145, 0, 0, 1248.366821289062
146, 0, 0, 1239.965087890625
147, 0, 0, 1227.8310546875
148, 0, 0, 1214.6337890625
149, 0, 0, 1203.5859375
150, 0, 0, 1201.166137695312
151, 0, 0, 1195.248046875
152, 0, 0, 1184.264892578125
153, 0, 0, 1171.012573242188
154, 0, 0, 1165.296142578125
155, 0, 0, 1160.73486328125
156, 0, 0, 1150.24755859375
157, 0, 0, 1134.426635742188
158, 0, 0, 1127.650634765625
159, 0, 0, 1115.357055664062
160, 0, 0, 1117.51953125
161, 0, 0, 1107.602416992188
162, 0, 0, 1104.119262695312
163, 0, 0, 1098.17138671875
164, 0, 0, 1089.72021484375
165, 0, 0, 1077.656005859375
166, 0, 0, 1074.431640625
167, 0, 0, 1064.839721679688
168, 0, 0, 1061.358032226562
169, 0, 0, 1053.773315429688
170, 0, 0, 1047.423217773438
171, 0, 0, 1047.333251953125
172, 0, 0, 1037.214599609375
173, 0, 0, 1034.23291015625
174, 0, 0, 1028.957397460938
175, 0, 0, 1019.388305664062
176, 0, 0, 1013.327392578125
177, 0, 0, 1004.919616699219
178, 0, 0, 998.7311401367188
179, 0, 0, 1009.99169921875
