# TOPAS Version: 3.3.p1
# Parameter File: Test.txt
# Results for scorer MLIC_Scorer
# Scored in component: MLIC
# X in 165 bins of 0.2 cm
# Y in 1 bin  of 10 cm
# Z in 1 bin  of 10 cm
# EnergyDeposit ( MeV ) : Sum   
0, 0, 0, 0
1, 0, 0, 0
2, 0, 0, 0
3, 0, 0, 0
4, 0, 0, 0
5, 0, 0, 0
6, 0, 0, 0
7, 0, 0, 0
8, 0, 0, 0
9, 0, 0, 0
10, 0, 0, 0
11, 0, 0, 0
12, 0, 0, 0
13, 0, 0, 0
14, 0, 0, 0
15, 0, 0, 0
16, 0, 0, 0
17, 0, 0, 0
18, 0, 0, 0
19, 0, 0, 0
20, 0, 0, 0
21, 0, 0, 0
22, 0, 0, 0
23, 0, 0, 0
24, 0, 0, 0
25, 0, 0, 0.05287614092230797
26, 0, 0, 0
27, 0, 0, 0
28, 0, 0, 0
29, 0, 0, 0
30, 0, 0, 0
31, 0, 0, 0.02279607951641083
32, 0, 0, 0
33, 0, 0, 0
34, 0, 0, 0
35, 0, 0, 0
36, 0, 0, 0
37, 0, 0, 0
38, 0, 0, 0
39, 0, 0, 28.50085067749023
40, 0, 0, 178.0261077880859
41, 0, 0, 710.9324340820312
42, 0, 0, 1571.268798828125
43, 0, 0, 3125.2080078125
44, 0, 0, 4610.38818359375
45, 0, 0, 5417.10107421875
46, 0, 0, 5341.5078125
47, 0, 0, 4751.97607421875
48, 0, 0, 4187.27197265625
49, 0, 0, 3711.614501953125
50, 0, 0, 3377.18212890625
51, 0, 0, 3111.02783203125
52, 0, 0, 2910.40234375
53, 0, 0, 2762.61865234375
54, 0, 0, 2623.840576171875
55, 0, 0, 2508.39599609375
56, 0, 0, 2417.396240234375
57, 0, 0, 2321.392333984375
58, 0, 0, 2256.8046875
59, 0, 0, 2182.116943359375
60, 0, 0, 2120.40625
61, 0, 0, 2068.170166015625
62, 0, 0, 2026.312255859375
63, 0, 0, 1967.695922851562
64, 0, 0, 1926.814331054688
65, 0, 0, 1884.474609375
66, 0, 0, 1844.030395507812
67, 0, 0, 1816.236694335938
68, 0, 0, 1777.777221679688
69, 0, 0, 1754.686889648438
70, 0, 0, 1721.098022460938
71, 0, 0, 1688.482543945312
72, 0, 0, 1663.051025390625
73, 0, 0, 1645.843627929688
74, 0, 0, 1608.302490234375
75, 0, 0, 1597.437866210938
76, 0, 0, 1570.236694335938
77, 0, 0, 1547.39892578125
78, 0, 0, 1533.135498046875
79, 0, 0, 1507.30126953125
80, 0, 0, 1495.947509765625
81, 0, 0, 1481.391357421875
82, 0, 0, 1461.174682617188
83, 0, 0, 1447.511840820312
84, 0, 0, 1431.50439453125
85, 0, 0, 1418.396118164062
86, 0, 0, 1401.107421875
87, 0, 0, 1387.521362304688
88, 0, 0, 1378.70849609375
89, 0, 0, 1355.782348632812
90, 0, 0, 1354.438720703125
91, 0, 0, 1335.657104492188
92, 0, 0, 1324.242431640625
93, 0, 0, 1315.795043945312
94, 0, 0, 1305.163452148438
95, 0, 0, 1303.209106445312
96, 0, 0, 1281.98779296875
97, 0, 0, 1269.473876953125
98, 0, 0, 1261.080688476562
99, 0, 0, 1249.274047851562
100, 0, 0, 1245.123901367188
101, 0, 0, 1229.606079101562
102, 0, 0, 1221.122192382812
103, 0, 0, 1213.772094726562
104, 0, 0, 1205.76953125
105, 0, 0, 1205.312866210938
106, 0, 0, 1196.232421875
107, 0, 0, 1176.293334960938
108, 0, 0, 1177.94384765625
109, 0, 0, 1175.368774414062
110, 0, 0, 1164.652465820312
111, 0, 0, 1148.987426757812
112, 0, 0, 1146.679931640625
113, 0, 0, 1142.213134765625
114, 0, 0, 1145.257080078125
115, 0, 0, 1127.673583984375
116, 0, 0, 1126.341064453125
117, 0, 0, 1120.067138671875
118, 0, 0, 1107.058349609375
119, 0, 0, 1101.91650390625
120, 0, 0, 1103.951904296875
121, 0, 0, 1086.912353515625
122, 0, 0, 1092.658935546875
123, 0, 0, 1084.8388671875
124, 0, 0, 1081.285278320312
125, 0, 0, 1072.965209960938
126, 0, 0, 1062.184204101562
127, 0, 0, 1065.241577148438
128, 0, 0, 1065.423706054688
129, 0, 0, 1052.373901367188
130, 0, 0, 1052.671875
131, 0, 0, 1047.206176757812
132, 0, 0, 1034.169799804688
133, 0, 0, 1033.756591796875
134, 0, 0, 1036.219360351562
135, 0, 0, 1025.721313476562
136, 0, 0, 1026.557250976562
137, 0, 0, 1009.970764160156
138, 0, 0, 1007.303955078125
139, 0, 0, 1012.119384765625
140, 0, 0, 1005.734252929688
141, 0, 0, 998.21875
142, 0, 0, 995.4627685546875
143, 0, 0, 988.082763671875
144, 0, 0, 987.7354736328125
145, 0, 0, 981.69482421875
146, 0, 0, 984.9038696289062
147, 0, 0, 969.500732421875
148, 0, 0, 976.7989501953125
149, 0, 0, 971.1110229492188
150, 0, 0, 969.149658203125
151, 0, 0, 960.0615844726562
152, 0, 0, 957.797607421875
153, 0, 0, 951.295166015625
154, 0, 0, 950.513671875
155, 0, 0, 951.93212890625
156, 0, 0, 945.0266723632812
157, 0, 0, 940.2731323242188
158, 0, 0, 941.77734375
159, 0, 0, 935.7850341796875
160, 0, 0, 925.9003295898438
161, 0, 0, 933.9732666015625
162, 0, 0, 929.3418579101562
163, 0, 0, 921.1863403320312
164, 0, 0, 929.2408447265625
