# TOPAS Version: 3.3.p1
# Parameter File: Test.txt
# Results for scorer MLIC_Scorer
# Scored in component: MLIC
# X in 180 bins of 0.177778 cm
# Y in 1 bin  of 10 cm
# Z in 1 bin  of 10 cm
# EnergyDeposit ( MeV ) : Sum   
0, 0, 0, 0
1, 0, 0, 0
2, 0, 0, 0
3, 0, 0, 0
4, 0, 0, 0
5, 0, 0, 0
6, 0, 0, 0
7, 0, 0, 0
8, 0, 0, 0
9, 0, 0, 0
10, 0, 0, 0
11, 0, 0, 0
12, 0, 0, 0
13, 0, 0, 0
14, 0, 0, 0
15, 0, 0, 0
16, 0, 0, 0
17, 0, 0, 0
18, 0, 0, 0
19, 0, 0, 0
20, 0, 0, 0
21, 0, 0, 0
22, 0, 0, 0
23, 0, 0, 0
24, 0, 0, 0
25, 0, 0, 0
26, 0, 0, 0
27, 0, 0, 0
28, 0, 0, 0
29, 0, 0, 0
30, 0, 0, 0
31, 0, 0, 0
32, 0, 0, 0
33, 0, 0, 0
34, 0, 0, 0
35, 0, 0, 0
36, 0, 0, 0
37, 0, 0, 0
38, 0, 0, 0
39, 0, 0, 0
40, 0, 0, 0
41, 0, 0, 0
42, 0, 0, 0
43, 0, 0, 0
44, 0, 0, 0
45, 0, 0, 0
46, 0, 0, 0
47, 0, 0, 0
48, 0, 0, 0
49, 0, 0, 0
50, 0, 0, 0
51, 0, 0, 0
52, 0, 0, 0
53, 0, 0, 0
54, 0, 0, 0
55, 0, 0, 0
56, 0, 0, 0
57, 0, 0, 0
58, 0, 0, 0
59, 0, 0, 0
60, 0, 0, 0
61, 0, 0, 35.07181930541992
62, 0, 0, 113.6271057128906
63, 0, 0, 227.8779907226562
64, 0, 0, 318.3477783203125
65, 0, 0, 365.6761779785156
66, 0, 0, 395.7923889160156
67, 0, 0, 368.4443969726562
68, 0, 0, 347.7561645507812
69, 0, 0, 308.3566284179688
70, 0, 0, 280.3916625976562
71, 0, 0, 250.8376312255859
72, 0, 0, 234.4976806640625
73, 0, 0, 218.2051849365234
74, 0, 0, 209.2379913330078
75, 0, 0, 200.4739532470703
76, 0, 0, 189.3419036865234
77, 0, 0, 184.6169738769531
78, 0, 0, 177.583984375
79, 0, 0, 170.1650848388672
80, 0, 0, 166.5914306640625
81, 0, 0, 162.3563079833984
82, 0, 0, 160.13427734375
83, 0, 0, 153.3662719726562
84, 0, 0, 151.1193542480469
85, 0, 0, 146.2313537597656
86, 0, 0, 144.4580688476562
87, 0, 0, 143.1958312988281
88, 0, 0, 139.9271392822266
89, 0, 0, 137.7862243652344
90, 0, 0, 134.2238311767578
91, 0, 0, 131.8117828369141
92, 0, 0, 130.0860900878906
93, 0, 0, 129.1880493164062
94, 0, 0, 126.8246917724609
95, 0, 0, 127.1154861450195
96, 0, 0, 122.1381454467773
97, 0, 0, 120.3905868530273
98, 0, 0, 117.9711074829102
99, 0, 0, 118.0515899658203
100, 0, 0, 116.3968505859375
101, 0, 0, 115.4072647094727
102, 0, 0, 112.9585037231445
103, 0, 0, 111.8079376220703
104, 0, 0, 111.7396621704102
105, 0, 0, 107.5882568359375
106, 0, 0, 107.1469497680664
107, 0, 0, 106.8393249511719
108, 0, 0, 106.9772872924805
109, 0, 0, 104.3801651000977
110, 0, 0, 104.2860336303711
111, 0, 0, 106.9863052368164
112, 0, 0, 101.9869079589844
113, 0, 0, 102.9166793823242
114, 0, 0, 101.9127349853516
115, 0, 0, 102.4244155883789
116, 0, 0, 97.05592346191406
117, 0, 0, 97.63059234619141
118, 0, 0, 96.92534637451172
119, 0, 0, 98.02403259277344
120, 0, 0, 98.28766632080078
121, 0, 0, 95.13191223144531
122, 0, 0, 95.31217193603516
123, 0, 0, 94.71528625488281
124, 0, 0, 95.19643402099609
125, 0, 0, 93.6754150390625
126, 0, 0, 94.21907043457031
127, 0, 0, 93.62442779541016
128, 0, 0, 92.23904418945312
129, 0, 0, 91.51051330566406
130, 0, 0, 92.14063262939453
131, 0, 0, 89.69913482666016
132, 0, 0, 89.60219573974609
133, 0, 0, 87.92458343505859
134, 0, 0, 87.00886535644531
135, 0, 0, 86.62593078613281
136, 0, 0, 88.37191772460938
137, 0, 0, 85.48978424072266
138, 0, 0, 86.25059509277344
139, 0, 0, 84.74970245361328
140, 0, 0, 84.45274353027344
141, 0, 0, 82.16593170166016
142, 0, 0, 83.94587707519531
143, 0, 0, 82.87472534179688
144, 0, 0, 83.02146148681641
145, 0, 0, 83.97025299072266
146, 0, 0, 83.84964752197266
147, 0, 0, 82.89308166503906
148, 0, 0, 82.16713714599609
149, 0, 0, 79.09181213378906
150, 0, 0, 81.10967254638672
151, 0, 0, 79.67035675048828
152, 0, 0, 80.89863586425781
153, 0, 0, 80.24188232421875
154, 0, 0, 79.26764678955078
155, 0, 0, 80.19895935058594
156, 0, 0, 78.79706573486328
157, 0, 0, 79.70926666259766
158, 0, 0, 78.89472961425781
159, 0, 0, 79.99167633056641
160, 0, 0, 78.21617126464844
161, 0, 0, 78.37030792236328
162, 0, 0, 75.47854614257812
163, 0, 0, 76.93105316162109
164, 0, 0, 76.71722412109375
165, 0, 0, 76.78782653808594
166, 0, 0, 74.74607086181641
167, 0, 0, 75.13948059082031
168, 0, 0, 74.22872924804688
169, 0, 0, 75.84376525878906
170, 0, 0, 74.92954254150391
171, 0, 0, 76.1043701171875
172, 0, 0, 76.41004943847656
173, 0, 0, 73.26872253417969
174, 0, 0, 74.623046875
175, 0, 0, 73.02061462402344
176, 0, 0, 71.80397033691406
177, 0, 0, 73.57027435302734
178, 0, 0, 72.10411071777344
179, 0, 0, 71.56989288330078
