# TOPAS Version: 3.3.p1
# Parameter File: Test.txt
# Results for scorer MLIC_Scorer
# Scored in component: MLIC
# X in 180 bins of 0.177778 cm
# Y in 1 bin  of 10 cm
# Z in 1 bin  of 10 cm
# EnergyDeposit ( MeV ) : Sum   
0, 0, 0, 0
1, 0, 0, 0
2, 0, 0, 0
3, 0, 0, 0
4, 0, 0, 0
5, 0, 0, 0
6, 0, 0, 0
7, 0, 0, 0
8, 0, 0, 0
9, 0, 0, 0
10, 0, 0, 0
11, 0, 0, 0
12, 0, 0, 0
13, 0, 0, 0
14, 0, 0, 0
15, 0, 0, 0
16, 0, 0, 0
17, 0, 0, 0
18, 0, 0, 0
19, 0, 0, 0
20, 0, 0, 0
21, 0, 0, 0
22, 0, 0, 0
23, 0, 0, 0
24, 0, 0, 0
25, 0, 0, 0
26, 0, 0, 0
27, 0, 0, 0
28, 0, 0, 0
29, 0, 0, 0
30, 0, 0, 0
31, 0, 0, 0
32, 0, 0, 0
33, 0, 0, 0
34, 0, 0, 0
35, 0, 0, 0
36, 0, 0, 0
37, 0, 0, 0
38, 0, 0, 0
39, 0, 0, 0
40, 0, 0, 0
41, 0, 0, 0
42, 0, 0, 0
43, 0, 0, 0
44, 0, 0, 0
45, 0, 0, 0
46, 0, 0, 0
47, 0, 0, 0
48, 0, 0, 0
49, 0, 0, 0
50, 0, 0, 0
51, 0, 0, 0
52, 0, 0, 0
53, 0, 0, 0
54, 0, 0, 0
55, 0, 0, 0
56, 0, 0, 0
57, 0, 0, 0
58, 0, 0, 0
59, 0, 0, 0
60, 0, 0, 0
61, 0, 0, 0
62, 0, 0, 0
63, 0, 0, 0
64, 0, 0, 0
65, 0, 0, 0
66, 0, 0, 0
67, 0, 0, 0
68, 0, 0, 0
69, 0, 0, 0
70, 0, 0, 0
71, 0, 0, 0
72, 0, 0, 0
73, 0, 0, 0
74, 0, 0, 0
75, 0, 0, 0
76, 0, 0, 0
77, 0, 0, 0
78, 0, 0, 0
79, 0, 0, 0
80, 0, 0, 0
81, 0, 0, 0
82, 0, 0, 0
83, 0, 0, 0
84, 0, 0, 0
85, 0, 0, 0
86, 0, 0, 0
87, 0, 0, 0
88, 0, 0, 0
89, 0, 0, 0
90, 0, 0, 0
91, 0, 0, 0
92, 0, 0, 0
93, 0, 0, 0
94, 0, 0, 0
95, 0, 0, 0
96, 0, 0, 0
97, 0, 0, 0
98, 0, 0, 0
99, 0, 0, 0
100, 0, 0, 0
101, 0, 0, 0
102, 0, 0, 0
103, 0, 0, 0
104, 0, 0, 0
105, 0, 0, 0
106, 0, 0, 0
107, 0, 0, 0
108, 0, 0, 0
109, 0, 0, 0
110, 0, 0, 9.23310661315918
111, 0, 0, 22.16777610778809
112, 0, 0, 113.6378173828125
113, 0, 0, 239.2457122802734
114, 0, 0, 291.2098693847656
115, 0, 0, 401.6776733398438
116, 0, 0, 475.0102233886719
117, 0, 0, 449.8216857910156
118, 0, 0, 415.5534973144531
119, 0, 0, 357.6036071777344
120, 0, 0, 312.7112121582031
121, 0, 0, 288.2391052246094
122, 0, 0, 265.8263854980469
123, 0, 0, 250.8703308105469
124, 0, 0, 236.6362152099609
125, 0, 0, 228.9060974121094
126, 0, 0, 217.8755798339844
127, 0, 0, 208.7767486572266
128, 0, 0, 203.6864929199219
129, 0, 0, 196.2916259765625
130, 0, 0, 188.7429962158203
131, 0, 0, 182.6512908935547
132, 0, 0, 180.83447265625
133, 0, 0, 175.8666381835938
134, 0, 0, 169.3455200195312
135, 0, 0, 169.2813720703125
136, 0, 0, 164.6400756835938
137, 0, 0, 160.2435760498047
138, 0, 0, 156.2378845214844
139, 0, 0, 157.8524169921875
140, 0, 0, 153.2337646484375
141, 0, 0, 149.2546539306641
142, 0, 0, 146.89306640625
143, 0, 0, 146.2595520019531
144, 0, 0, 142.1196136474609
145, 0, 0, 141.2513275146484
146, 0, 0, 141.1383361816406
147, 0, 0, 134.7603149414062
148, 0, 0, 137.0235290527344
149, 0, 0, 135.4850311279297
150, 0, 0, 132.8029327392578
151, 0, 0, 133.1751403808594
152, 0, 0, 130.6483612060547
153, 0, 0, 128.1684722900391
154, 0, 0, 126.6995849609375
155, 0, 0, 125.0839157104492
156, 0, 0, 123.735725402832
157, 0, 0, 121.6443176269531
158, 0, 0, 122.8581695556641
159, 0, 0, 121.6956405639648
160, 0, 0, 120.0944061279297
161, 0, 0, 120.556770324707
162, 0, 0, 116.7226867675781
163, 0, 0, 114.9911422729492
164, 0, 0, 116.6068649291992
165, 0, 0, 113.0655746459961
166, 0, 0, 114.093879699707
167, 0, 0, 112.3728179931641
168, 0, 0, 111.5580062866211
169, 0, 0, 112.6292190551758
170, 0, 0, 109.2811431884766
171, 0, 0, 109.1319046020508
172, 0, 0, 109.4362564086914
173, 0, 0, 107.6708831787109
174, 0, 0, 105.3727951049805
175, 0, 0, 108.0224304199219
176, 0, 0, 105.5866012573242
177, 0, 0, 103.6462020874023
178, 0, 0, 102.0232772827148
179, 0, 0, 100.0263061523438
