# TOPAS Version: 3.3.p1
# Parameter File: Test.txt
# Results for scorer MLIC_Scorer
# Scored in component: MLIC
# X in 180 bins of 0.183333 cm
# Y in 1 bin  of 10 cm
# Z in 1 bin  of 10 cm
# EnergyDeposit ( MeV ) : Sum   
0, 0, 0, 0
1, 0, 0, 0
2, 0, 0, 0
3, 0, 0, 0
4, 0, 0, 0
5, 0, 0, 0
6, 0, 0, 0
7, 0, 0, 0
8, 0, 0, 0
9, 0, 0, 0
10, 0, 0, 0
11, 0, 0, 0
12, 0, 0, 0
13, 0, 0, 0
14, 0, 0, 0
15, 0, 0, 0
16, 0, 0, 0
17, 0, 0, 0
18, 0, 0, 0
19, 0, 0, 0
20, 0, 0, 0
21, 0, 0, 0.001486352062784135
22, 0, 0, 0
23, 0, 0, 0
24, 0, 0, 0
25, 0, 0, 0
26, 0, 0, 0
27, 0, 0, 0
28, 0, 0, 0
29, 0, 0, 0
30, 0, 0, 0
31, 0, 0, 0.0394444651901722
32, 0, 0, 0
33, 0, 0, 0
34, 0, 0, 0
35, 0, 0, 0
36, 0, 0, 0.00390830310061574
37, 0, 0, 0
38, 0, 0, 0.008059403859078884
39, 0, 0, 0.04509998112916946
40, 0, 0, 0
41, 0, 0, 31.18514251708984
42, 0, 0, 147.9970092773438
43, 0, 0, 549.7625122070312
44, 0, 0, 1552.59375
45, 0, 0, 2949.6796875
46, 0, 0, 4387.53271484375
47, 0, 0, 5183.431640625
48, 0, 0, 5013.27294921875
49, 0, 0, 4675.037109375
50, 0, 0, 4008.67333984375
51, 0, 0, 3543.9267578125
52, 0, 0, 3216.01025390625
53, 0, 0, 2969.3994140625
54, 0, 0, 2773.063232421875
55, 0, 0, 2625.577880859375
56, 0, 0, 2491.3701171875
57, 0, 0, 2394.740234375
58, 0, 0, 2296.10986328125
59, 0, 0, 2217.926513671875
60, 0, 0, 2148.1865234375
61, 0, 0, 2085.71533203125
62, 0, 0, 2023.277587890625
63, 0, 0, 1966.529296875
64, 0, 0, 1919.390747070312
65, 0, 0, 1877.108154296875
66, 0, 0, 1832.930541992188
67, 0, 0, 1798.418579101562
68, 0, 0, 1751.740844726562
69, 0, 0, 1730.328369140625
70, 0, 0, 1693.263305664062
71, 0, 0, 1665.335815429688
72, 0, 0, 1630.984130859375
73, 0, 0, 1613.1015625
74, 0, 0, 1582.530639648438
75, 0, 0, 1558.438110351562
76, 0, 0, 1543.211791992188
77, 0, 0, 1514.330932617188
78, 0, 0, 1501.621704101562
79, 0, 0, 1470.909301757812
80, 0, 0, 1455.8701171875
81, 0, 0, 1443.385131835938
82, 0, 0, 1413.945556640625
83, 0, 0, 1401.9501953125
84, 0, 0, 1396.749755859375
85, 0, 0, 1383.222045898438
86, 0, 0, 1355.480224609375
87, 0, 0, 1344.3505859375
88, 0, 0, 1333.790161132812
89, 0, 0, 1317.700927734375
90, 0, 0, 1308.55712890625
91, 0, 0, 1292.20849609375
92, 0, 0, 1289.835327148438
93, 0, 0, 1281.933471679688
94, 0, 0, 1257.719360351562
95, 0, 0, 1244.912475585938
96, 0, 0, 1229.678833007812
97, 0, 0, 1229.751220703125
98, 0, 0, 1219.998413085938
99, 0, 0, 1213.829345703125
100, 0, 0, 1203.70458984375
101, 0, 0, 1185.955688476562
102, 0, 0, 1179.88916015625
103, 0, 0, 1167.718017578125
104, 0, 0, 1168.4697265625
105, 0, 0, 1155.260620117188
106, 0, 0, 1146.753173828125
107, 0, 0, 1142.333984375
108, 0, 0, 1131.396728515625
109, 0, 0, 1124.22314453125
110, 0, 0, 1110.69091796875
111, 0, 0, 1115.91162109375
112, 0, 0, 1099.464111328125
113, 0, 0, 1101.467895507812
114, 0, 0, 1094.329711914062
115, 0, 0, 1081.138671875
116, 0, 0, 1082.1689453125
117, 0, 0, 1075.038208007812
118, 0, 0, 1069.727294921875
119, 0, 0, 1065.126953125
120, 0, 0, 1055.33544921875
121, 0, 0, 1049.808471679688
122, 0, 0, 1045.159545898438
123, 0, 0, 1044.298583984375
124, 0, 0, 1037.27880859375
125, 0, 0, 1032.3046875
126, 0, 0, 1029.870727539062
127, 0, 0, 1019.228271484375
128, 0, 0, 1009.980651855469
129, 0, 0, 1009.323303222656
130, 0, 0, 999.7757568359375
131, 0, 0, 999.39111328125
132, 0, 0, 995.8355712890625
133, 0, 0, 986.0919799804688
134, 0, 0, 982.3031005859375
135, 0, 0, 974.766845703125
136, 0, 0, 985.349853515625
137, 0, 0, 977.4451293945312
138, 0, 0, 977.3023681640625
139, 0, 0, 964.9857177734375
140, 0, 0, 960.8612670898438
141, 0, 0, 960.470947265625
142, 0, 0, 956.9778442382812
143, 0, 0, 943.0421142578125
144, 0, 0, 948.8409423828125
145, 0, 0, 945.2967529296875
146, 0, 0, 935.6144409179688
147, 0, 0, 940.8416748046875
148, 0, 0, 924.774658203125
149, 0, 0, 920.6785278320312
150, 0, 0, 919.4685668945312
151, 0, 0, 913.9866333007812
152, 0, 0, 917.7396240234375
153, 0, 0, 919.3512573242188
154, 0, 0, 905.899169921875
155, 0, 0, 901.855224609375
156, 0, 0, 901.832763671875
157, 0, 0, 895.2935791015625
158, 0, 0, 894.8860473632812
159, 0, 0, 890.8478393554688
160, 0, 0, 887.05029296875
161, 0, 0, 888.9605712890625
162, 0, 0, 886.9891357421875
163, 0, 0, 886.8565673828125
164, 0, 0, 876.8638916015625
165, 0, 0, 872.1168212890625
166, 0, 0, 871.2481079101562
167, 0, 0, 867.5764770507812
168, 0, 0, 867.794921875
169, 0, 0, 857.968505859375
170, 0, 0, 860.8428955078125
171, 0, 0, 859.4188232421875
172, 0, 0, 860.9254150390625
173, 0, 0, 857.7103881835938
174, 0, 0, 859.2064819335938
175, 0, 0, 855.3131103515625
176, 0, 0, 851.8738403320312
177, 0, 0, 839.5175170898438
178, 0, 0, 844.0325317382812
179, 0, 0, 843.4434814453125
