# TOPAS Version: 3.3.p1
# Parameter File: Test.txt
# Results for scorer MLIC_Scorer
# Scored in component: MLIC
# X in 180 bins of 0.177778 cm
# Y in 1 bin  of 10 cm
# Z in 1 bin  of 10 cm
# EnergyDeposit ( MeV ) : Sum   
0, 0, 0, 0
1, 0, 0, 0
2, 0, 0, 0
3, 0, 0, 0
4, 0, 0, 0
5, 0, 0, 0
6, 0, 0, 0
7, 0, 0, 0
8, 0, 0, 0
9, 0, 0, 0
10, 0, 0, 0
11, 0, 0, 0
12, 0, 0, 0
13, 0, 0, 0
14, 0, 0, 0
15, 0, 0, 0
16, 0, 0, 0
17, 0, 0, 0
18, 0, 0, 0
19, 0, 0, 0
20, 0, 0, 0
21, 0, 0, 0
22, 0, 0, 0
23, 0, 0, 0
24, 0, 0, 0
25, 0, 0, 0
26, 0, 0, 0
27, 0, 0, 0
28, 0, 0, 0
29, 0, 0, 0
30, 0, 0, 0
31, 0, 0, 0
32, 0, 0, 0
33, 0, 0, 0
34, 0, 0, 0
35, 0, 0, 0
36, 0, 0, 0
37, 0, 0, 0
38, 0, 0, 0
39, 0, 0, 0
40, 0, 0, 0
41, 0, 0, 0
42, 0, 0, 0
43, 0, 0, 0
44, 0, 0, 0.002686789957806468
45, 0, 0, 0
46, 0, 0, 0
47, 0, 0, 0
48, 0, 0, 0.02674681134521961
49, 0, 0, 0
50, 0, 0, 0
51, 0, 0, 0
52, 0, 0, 0
53, 0, 0, 0
54, 0, 0, 0
55, 0, 0, 0
56, 0, 0, 0
57, 0, 0, 0
58, 0, 0, 0
59, 0, 0, 0
60, 0, 0, 0
61, 0, 0, 0
62, 0, 0, 0
63, 0, 0, 0
64, 0, 0, 0
65, 0, 0, 0
66, 0, 0, 0.005018376279622316
67, 0, 0, 0
68, 0, 0, 0
69, 0, 0, 0
70, 0, 0, 0.001665246905758977
71, 0, 0, 0
72, 0, 0, 0.002314766403287649
73, 0, 0, 0
74, 0, 0, 2.866291999816895
75, 0, 0, 10.02695178985596
76, 0, 0, 76.92322540283203
77, 0, 0, 295.2140197753906
78, 0, 0, 844.8223876953125
79, 0, 0, 1939.53857421875
80, 0, 0, 3398.8564453125
81, 0, 0, 4603.45654296875
82, 0, 0, 5111.673828125
83, 0, 0, 4815.0341796875
84, 0, 0, 4353.26220703125
85, 0, 0, 3770.17724609375
86, 0, 0, 3345.997802734375
87, 0, 0, 3075.275146484375
88, 0, 0, 2849.57177734375
89, 0, 0, 2674.77978515625
90, 0, 0, 2537.89111328125
91, 0, 0, 2419.765380859375
92, 0, 0, 2316.6796875
93, 0, 0, 2231.008544921875
94, 0, 0, 2159.47314453125
95, 0, 0, 2083.40234375
96, 0, 0, 2017.6669921875
97, 0, 0, 1972.061767578125
98, 0, 0, 1914.110717773438
99, 0, 0, 1868.09130859375
100, 0, 0, 1827.972045898438
101, 0, 0, 1783.969116210938
102, 0, 0, 1749.043701171875
103, 0, 0, 1710.35986328125
104, 0, 0, 1685.705932617188
105, 0, 0, 1652.509033203125
106, 0, 0, 1620.830932617188
107, 0, 0, 1591.461669921875
108, 0, 0, 1566.752197265625
109, 0, 0, 1545.903930664062
110, 0, 0, 1520.86376953125
111, 0, 0, 1500.785278320312
112, 0, 0, 1486.017211914062
113, 0, 0, 1463.5537109375
114, 0, 0, 1440.541015625
115, 0, 0, 1419.833862304688
116, 0, 0, 1406.939331054688
117, 0, 0, 1391.544921875
118, 0, 0, 1380.882446289062
119, 0, 0, 1358.458129882812
120, 0, 0, 1344.36474609375
121, 0, 0, 1325.613647460938
122, 0, 0, 1320.654541015625
123, 0, 0, 1308.637451171875
124, 0, 0, 1292.455688476562
125, 0, 0, 1280.369506835938
126, 0, 0, 1265.993774414062
127, 0, 0, 1254.310302734375
128, 0, 0, 1251.888549804688
129, 0, 0, 1233.643432617188
130, 0, 0, 1222.6748046875
131, 0, 0, 1217.569458007812
132, 0, 0, 1195.6171875
133, 0, 0, 1188.20556640625
134, 0, 0, 1185.875
135, 0, 0, 1176.13134765625
136, 0, 0, 1169.27294921875
137, 0, 0, 1147.78125
138, 0, 0, 1145.350830078125
139, 0, 0, 1140.003662109375
140, 0, 0, 1130.777587890625
141, 0, 0, 1121.616333007812
142, 0, 0, 1111.717529296875
143, 0, 0, 1117.999755859375
144, 0, 0, 1112.008544921875
145, 0, 0, 1095.508544921875
146, 0, 0, 1088.755981445312
147, 0, 0, 1086.495483398438
148, 0, 0, 1080.314331054688
149, 0, 0, 1064.248657226562
150, 0, 0, 1069.637573242188
151, 0, 0, 1053.9296875
152, 0, 0, 1056.68359375
153, 0, 0, 1048.916625976562
154, 0, 0, 1046.57861328125
155, 0, 0, 1030.222290039062
156, 0, 0, 1027.86767578125
157, 0, 0, 1028.60986328125
158, 0, 0, 1022.257873535156
159, 0, 0, 1011.433837890625
160, 0, 0, 998.9028930664062
161, 0, 0, 1012.784606933594
162, 0, 0, 1005.219848632812
163, 0, 0, 992.9946899414062
164, 0, 0, 993.5526733398438
165, 0, 0, 981.5433959960938
166, 0, 0, 975.406005859375
167, 0, 0, 980.9931030273438
168, 0, 0, 965.5307006835938
169, 0, 0, 966.4697875976562
170, 0, 0, 965.7200317382812
171, 0, 0, 957.9197998046875
172, 0, 0, 949.826904296875
173, 0, 0, 951.93798828125
174, 0, 0, 945.6421508789062
175, 0, 0, 940.0130615234375
176, 0, 0, 931.48974609375
177, 0, 0, 934.5151977539062
178, 0, 0, 931.9548950195312
179, 0, 0, 925.219970703125
