# TOPAS Version: 3.3.p1
# Parameter File: Test.txt
# Results for scorer MLIC_Scorer
# Scored in component: MLIC
# X in 180 bins of 0.177778 cm
# Y in 1 bin  of 10 cm
# Z in 1 bin  of 10 cm
# EnergyDeposit ( MeV ) : Sum   
0, 0, 0, 0
1, 0, 0, 0
2, 0, 0, 0
3, 0, 0, 0
4, 0, 0, 0
5, 0, 0, 0
6, 0, 0, 0
7, 0, 0, 0
8, 0, 0, 0
9, 0, 0, 0
10, 0, 0, 0
11, 0, 0, 0
12, 0, 0, 0
13, 0, 0, 0
14, 0, 0, 0
15, 0, 0, 0
16, 0, 0, 0
17, 0, 0, 0
18, 0, 0, 0
19, 0, 0, 0
20, 0, 0, 0
21, 0, 0, 0
22, 0, 0, 0
23, 0, 0, 0
24, 0, 0, 0
25, 0, 0, 0
26, 0, 0, 0
27, 0, 0, 0
28, 0, 0, 0
29, 0, 0, 0
30, 0, 0, 0
31, 0, 0, 0
32, 0, 0, 0
33, 0, 0, 0
34, 0, 0, 0
35, 0, 0, 0
36, 0, 0, 0
37, 0, 0, 0
38, 0, 0, 0
39, 0, 0, 0
40, 0, 0, 0
41, 0, 0, 0
42, 0, 0, 0
43, 0, 0, 0
44, 0, 0, 0
45, 0, 0, 0
46, 0, 0, 0
47, 0, 0, 0
48, 0, 0, 0
49, 0, 0, 0
50, 0, 0, 0
51, 0, 0, 0
52, 0, 0, 0
53, 0, 0, 0
54, 0, 0, 0
55, 0, 0, 0
56, 0, 0, 0
57, 0, 0, 0
58, 0, 0, 0
59, 0, 0, 0
60, 0, 0, 0
61, 0, 0, 0
62, 0, 0, 0
63, 0, 0, 0
64, 0, 0, 0
65, 0, 0, 0
66, 0, 0, 0
67, 0, 0, 0
68, 0, 0, 0
69, 0, 0, 0
70, 0, 0, 0
71, 0, 0, 0
72, 0, 0, 0
73, 0, 0, 0
74, 0, 0, 0
75, 0, 0, 0
76, 0, 0, 0
77, 0, 0, 0
78, 0, 0, 0
79, 0, 0, 0
80, 0, 0, 0
81, 0, 0, 0
82, 0, 0, 0
83, 0, 0, 0
84, 0, 0, 0
85, 0, 0, 0
86, 0, 0, 0
87, 0, 0, 0
88, 0, 0, 0
89, 0, 0, 0
90, 0, 0, 0
91, 0, 0, 0
92, 0, 0, 0
93, 0, 0, 0
94, 0, 0, 0
95, 0, 0, 0
96, 0, 0, 0
97, 0, 0, 0
98, 0, 0, 0
99, 0, 0, 0
100, 0, 0, 0
101, 0, 0, 0
102, 0, 0, 0
103, 0, 0, 0
104, 0, 0, 0
105, 0, 0, 0
106, 0, 0, 0
107, 0, 0, 0
108, 0, 0, 0
109, 0, 0, 0
110, 0, 0, 0
111, 0, 0, 0
112, 0, 0, 0
113, 0, 0, 0
114, 0, 0, 0
115, 0, 0, 0
116, 0, 0, 0.02819024585187435
117, 0, 0, 0
118, 0, 0, 0
119, 0, 0, 0
120, 0, 0, 0
121, 0, 0, 33.82816314697266
122, 0, 0, 214.4251708984375
123, 0, 0, 726.4012451171875
124, 0, 0, 1799.302978515625
125, 0, 0, 3419.838623046875
126, 0, 0, 4484.4541015625
127, 0, 0, 5220.13623046875
128, 0, 0, 4820.61474609375
129, 0, 0, 4374.06640625
130, 0, 0, 3827.62841796875
131, 0, 0, 3398.4482421875
132, 0, 0, 3079.962158203125
133, 0, 0, 2860.3115234375
134, 0, 0, 2702.544921875
135, 0, 0, 2553.355224609375
136, 0, 0, 2430.273681640625
137, 0, 0, 2322.5751953125
138, 0, 0, 2247.886474609375
139, 0, 0, 2161.8955078125
140, 0, 0, 2089.97265625
141, 0, 0, 2034.434204101562
142, 0, 0, 1977.952758789062
143, 0, 0, 1928.073364257812
144, 0, 0, 1875.739624023438
145, 0, 0, 1830.052734375
146, 0, 0, 1791.921630859375
147, 0, 0, 1748.1611328125
148, 0, 0, 1725.019775390625
149, 0, 0, 1680.8046875
150, 0, 0, 1651.027221679688
151, 0, 0, 1618.644775390625
152, 0, 0, 1603.565185546875
153, 0, 0, 1575.067016601562
154, 0, 0, 1549.801391601562
155, 0, 0, 1527.197265625
156, 0, 0, 1506.438354492188
157, 0, 0, 1484.285034179688
158, 0, 0, 1461.604248046875
159, 0, 0, 1450.196533203125
160, 0, 0, 1434.706176757812
161, 0, 0, 1404.628173828125
162, 0, 0, 1386.0791015625
163, 0, 0, 1379.87451171875
164, 0, 0, 1359.075805664062
165, 0, 0, 1349.186157226562
166, 0, 0, 1329.765991210938
167, 0, 0, 1322.794555664062
168, 0, 0, 1294.906127929688
169, 0, 0, 1293.931030273438
170, 0, 0, 1287.590454101562
171, 0, 0, 1268.432373046875
172, 0, 0, 1250.76806640625
173, 0, 0, 1251.310180664062
174, 0, 0, 1232.136962890625
175, 0, 0, 1225.66552734375
176, 0, 0, 1217.4619140625
177, 0, 0, 1200.7861328125
178, 0, 0, 1188.86572265625
179, 0, 0, 1183.58349609375
