# TOPAS Version: 3.3.p1
# Parameter File: Test.txt
# Results for scorer MLIC_Scorer
# Scored in component: MLIC
# X in 180 bins of 0.177778 cm
# Y in 1 bin  of 10 cm
# Z in 1 bin  of 10 cm
# EnergyDeposit ( MeV ) : Sum   
0, 0, 0, 0
1, 0, 0, 0
2, 0, 0, 0
3, 0, 0, 0
4, 0, 0, 0
5, 0, 0, 0
6, 0, 0, 0
7, 0, 0, 0
8, 0, 0, 0
9, 0, 0, 0
10, 0, 0, 0
11, 0, 0, 0
12, 0, 0, 0
13, 0, 0, 0
14, 0, 0, 0
15, 0, 0, 0
16, 0, 0, 0
17, 0, 0, 0
18, 0, 0, 0
19, 0, 0, 0
20, 0, 0, 0
21, 0, 0, 0
22, 0, 0, 0
23, 0, 0, 0
24, 0, 0, 0
25, 0, 0, 0
26, 0, 0, 0
27, 0, 0, 0
28, 0, 0, 0
29, 0, 0, 0
30, 0, 0, 0
31, 0, 0, 0
32, 0, 0, 0
33, 0, 0, 0
34, 0, 0, 0
35, 0, 0, 0
36, 0, 0, 0
37, 0, 0, 0
38, 0, 0, 0
39, 0, 0, 0
40, 0, 0, 0
41, 0, 0, 0
42, 0, 0, 0
43, 0, 0, 0
44, 0, 0, 0
45, 0, 0, 0
46, 0, 0, 0
47, 0, 0, 0
48, 0, 0, 0
49, 0, 0, 0.003347605466842651
50, 0, 0, 0.0008983879233710468
51, 0, 0, 0
52, 0, 0, 0.02960427477955818
53, 0, 0, 0
54, 0, 0, 0.001248473883606493
55, 0, 0, 0
56, 0, 0, 0
57, 0, 0, 0
58, 0, 0, 0
59, 0, 0, 0
60, 0, 0, 0
61, 0, 0, 0
62, 0, 0, 0
63, 0, 0, 0
64, 0, 0, 0
65, 0, 0, 0.009031353518366814
66, 0, 0, 0
67, 0, 0, 0
68, 0, 0, 0
69, 0, 0, 0
70, 0, 0, 0
71, 0, 0, 0
72, 0, 0, 0.009077318012714386
73, 0, 0, 0
74, 0, 0, 2.055033445358276
75, 0, 0, 96.19602966308594
76, 0, 0, 458.4225463867188
77, 0, 0, 1221.49072265625
78, 0, 0, 2392.15869140625
79, 0, 0, 3871.552978515625
80, 0, 0, 4637.84765625
81, 0, 0, 4891.4482421875
82, 0, 0, 4708.7060546875
83, 0, 0, 4153.07470703125
84, 0, 0, 3673.710205078125
85, 0, 0, 3300.204345703125
86, 0, 0, 3013.737060546875
87, 0, 0, 2808.307861328125
88, 0, 0, 2642.813232421875
89, 0, 0, 2508.47412109375
90, 0, 0, 2395.13525390625
91, 0, 0, 2293.3701171875
92, 0, 0, 2212.655517578125
93, 0, 0, 2137.72314453125
94, 0, 0, 2072.518798828125
95, 0, 0, 2016.892700195312
96, 0, 0, 1954.902587890625
97, 0, 0, 1906.125610351562
98, 0, 0, 1855.725830078125
99, 0, 0, 1822.470336914062
100, 0, 0, 1778.271606445312
101, 0, 0, 1736.3671875
102, 0, 0, 1707.663696289062
103, 0, 0, 1677.66259765625
104, 0, 0, 1644.871459960938
105, 0, 0, 1617.339233398438
106, 0, 0, 1586.9052734375
107, 0, 0, 1567.583862304688
108, 0, 0, 1538.383178710938
109, 0, 0, 1523.908325195312
110, 0, 0, 1503.252197265625
111, 0, 0, 1470.068969726562
112, 0, 0, 1458.274780273438
113, 0, 0, 1431.424560546875
114, 0, 0, 1423.802368164062
115, 0, 0, 1407.212768554688
116, 0, 0, 1391.63525390625
117, 0, 0, 1381.115844726562
118, 0, 0, 1359.086669921875
119, 0, 0, 1349.563232421875
120, 0, 0, 1327.190185546875
121, 0, 0, 1309.128295898438
122, 0, 0, 1301.588623046875
123, 0, 0, 1290.557983398438
124, 0, 0, 1276.596557617188
125, 0, 0, 1259.6162109375
126, 0, 0, 1258.203979492188
127, 0, 0, 1240.740234375
128, 0, 0, 1228.654418945312
129, 0, 0, 1217.944946289062
130, 0, 0, 1211.030517578125
131, 0, 0, 1201.74365234375
132, 0, 0, 1187.601318359375
133, 0, 0, 1177.5478515625
134, 0, 0, 1170.813232421875
135, 0, 0, 1161.907592773438
136, 0, 0, 1149.863525390625
137, 0, 0, 1147.381469726562
138, 0, 0, 1131.758056640625
139, 0, 0, 1130.027954101562
140, 0, 0, 1126.324462890625
141, 0, 0, 1121.278930664062
142, 0, 0, 1109.36279296875
143, 0, 0, 1092.286376953125
144, 0, 0, 1096.604248046875
145, 0, 0, 1091.7705078125
146, 0, 0, 1084.819458007812
147, 0, 0, 1076.705688476562
148, 0, 0, 1069.299072265625
149, 0, 0, 1060.340209960938
150, 0, 0, 1053.275024414062
151, 0, 0, 1055.964111328125
152, 0, 0, 1041.21728515625
153, 0, 0, 1039.478881835938
154, 0, 0, 1027.294311523438
155, 0, 0, 1028.250732421875
156, 0, 0, 1017.613403320312
157, 0, 0, 1016.078491210938
158, 0, 0, 1010.562866210938
159, 0, 0, 1008.280822753906
160, 0, 0, 1009.042358398438
161, 0, 0, 991.1234741210938
162, 0, 0, 988.5657348632812
163, 0, 0, 986.8353271484375
164, 0, 0, 977.4589233398438
165, 0, 0, 971.904541015625
166, 0, 0, 975.7576293945312
167, 0, 0, 964.5771484375
168, 0, 0, 963.1965942382812
169, 0, 0, 967.5919189453125
170, 0, 0, 952.16162109375
171, 0, 0, 957.4639892578125
172, 0, 0, 946.7781982421875
173, 0, 0, 941.4548950195312
174, 0, 0, 951.1641845703125
175, 0, 0, 931.889404296875
176, 0, 0, 922.2098388671875
177, 0, 0, 922.8624267578125
178, 0, 0, 928.6756591796875
179, 0, 0, 924.3953857421875
