# TOPAS Version: 3.3.p1
# Parameter File: Test.txt
# Results for scorer MLIC_Scorer
# Scored in component: MLIC
# X in 180 bins of 0.177778 cm
# Y in 1 bin  of 10 cm
# Z in 1 bin  of 10 cm
# EnergyDeposit ( MeV ) : Sum   
0, 0, 0, 0
1, 0, 0, 0
2, 0, 0, 0
3, 0, 0, 0
4, 0, 0, 0
5, 0, 0, 0
6, 0, 0, 0
7, 0, 0, 0
8, 0, 0, 0
9, 0, 0, 0
10, 0, 0, 0
11, 0, 0, 0
12, 0, 0, 0
13, 0, 0, 0
14, 0, 0, 0
15, 0, 0, 0
16, 0, 0, 0
17, 0, 0, 0
18, 0, 0, 0
19, 0, 0, 0
20, 0, 0, 0
21, 0, 0, 0
22, 0, 0, 0
23, 0, 0, 0
24, 0, 0, 0
25, 0, 0, 0
26, 0, 0, 0
27, 0, 0, 0
28, 0, 0, 0
29, 0, 0, 0
30, 0, 0, 0
31, 0, 0, 0
32, 0, 0, 0
33, 0, 0, 0
34, 0, 0, 0
35, 0, 0, 0
36, 0, 0, 0
37, 0, 0, 0
38, 0, 0, 0
39, 0, 0, 0
40, 0, 0, 0
41, 0, 0, 0
42, 0, 0, 0
43, 0, 0, 0
44, 0, 0, 0
45, 0, 0, 0
46, 0, 0, 0
47, 0, 0, 0.8324628472328186
48, 0, 0, 30.06658172607422
49, 0, 0, 139.0374298095703
50, 0, 0, 443.5454406738281
51, 0, 0, 1432.563842773438
52, 0, 0, 2526.258056640625
53, 0, 0, 4096.0634765625
54, 0, 0, 4765.150390625
55, 0, 0, 4958.41259765625
56, 0, 0, 4566.6064453125
57, 0, 0, 4030.070556640625
58, 0, 0, 3634.4853515625
59, 0, 0, 3247.89013671875
60, 0, 0, 2978.540283203125
61, 0, 0, 2788.822509765625
62, 0, 0, 2624.102294921875
63, 0, 0, 2493.768310546875
64, 0, 0, 2384.041748046875
65, 0, 0, 2288.037109375
66, 0, 0, 2200.3232421875
67, 0, 0, 2121.776611328125
68, 0, 0, 2062.6845703125
69, 0, 0, 1998.0361328125
70, 0, 0, 1947.706665039062
71, 0, 0, 1896.751342773438
72, 0, 0, 1849.33154296875
73, 0, 0, 1809.830444335938
74, 0, 0, 1767.277099609375
75, 0, 0, 1735.158935546875
76, 0, 0, 1705.484497070312
77, 0, 0, 1663.787963867188
78, 0, 0, 1642.0068359375
79, 0, 0, 1609.871337890625
80, 0, 0, 1580.59228515625
81, 0, 0, 1563.46142578125
82, 0, 0, 1537.539184570312
83, 0, 0, 1519.663818359375
84, 0, 0, 1502.420288085938
85, 0, 0, 1469.912109375
86, 0, 0, 1453.156860351562
87, 0, 0, 1440.888427734375
88, 0, 0, 1410.949584960938
89, 0, 0, 1402.408569335938
90, 0, 0, 1383.801635742188
91, 0, 0, 1367.216064453125
92, 0, 0, 1353.001953125
93, 0, 0, 1343.175537109375
94, 0, 0, 1330.438354492188
95, 0, 0, 1318.64599609375
96, 0, 0, 1297.517822265625
97, 0, 0, 1285.66015625
98, 0, 0, 1277.120239257812
99, 0, 0, 1266.688842773438
100, 0, 0, 1252.946899414062
101, 0, 0, 1245.087890625
102, 0, 0, 1231.425415039062
103, 0, 0, 1211.569458007812
104, 0, 0, 1209.079467773438
105, 0, 0, 1188.024047851562
106, 0, 0, 1191.297241210938
107, 0, 0, 1183.49072265625
108, 0, 0, 1174.293579101562
109, 0, 0, 1162.307861328125
110, 0, 0, 1150.070190429688
111, 0, 0, 1147.391845703125
112, 0, 0, 1132.628295898438
113, 0, 0, 1129.58544921875
114, 0, 0, 1117.240966796875
115, 0, 0, 1122.330200195312
116, 0, 0, 1112.886962890625
117, 0, 0, 1101.009521484375
118, 0, 0, 1095.51416015625
119, 0, 0, 1093.696411132812
120, 0, 0, 1082.580688476562
121, 0, 0, 1068.264282226562
122, 0, 0, 1067.443725585938
123, 0, 0, 1066.633178710938
124, 0, 0, 1057.871337890625
125, 0, 0, 1043.2490234375
126, 0, 0, 1038.990356445312
127, 0, 0, 1038.954467773438
128, 0, 0, 1036.83837890625
129, 0, 0, 1026.3076171875
130, 0, 0, 1023.147705078125
131, 0, 0, 1010.867370605469
132, 0, 0, 1008.56103515625
133, 0, 0, 1000.622253417969
134, 0, 0, 1000.350280761719
135, 0, 0, 996.4954223632812
136, 0, 0, 993.3096313476562
137, 0, 0, 987.1884155273438
138, 0, 0, 982.8072509765625
139, 0, 0, 983.0617065429688
140, 0, 0, 980.273681640625
141, 0, 0, 963.9722290039062
142, 0, 0, 964.14208984375
143, 0, 0, 963.0791625976562
144, 0, 0, 954.3229370117188
145, 0, 0, 954.605712890625
146, 0, 0, 957.7084350585938
147, 0, 0, 950.5072631835938
148, 0, 0, 929.583740234375
149, 0, 0, 928.7388916015625
150, 0, 0, 930.3408813476562
151, 0, 0, 927.3165283203125
152, 0, 0, 921.3771362304688
153, 0, 0, 924.9793701171875
154, 0, 0, 915.8338623046875
155, 0, 0, 910.0081787109375
156, 0, 0, 909.9891967773438
157, 0, 0, 901.8636474609375
158, 0, 0, 896.9165649414062
159, 0, 0, 907.6121826171875
160, 0, 0, 889.7977294921875
161, 0, 0, 892.7305297851562
162, 0, 0, 893.3665161132812
163, 0, 0, 887.6624755859375
164, 0, 0, 893.09228515625
165, 0, 0, 879.6044921875
166, 0, 0, 879.32373046875
167, 0, 0, 877.854248046875
168, 0, 0, 867.7430419921875
169, 0, 0, 861.1778564453125
170, 0, 0, 864.3632202148438
171, 0, 0, 872.9588623046875
172, 0, 0, 866.2169799804688
173, 0, 0, 859.8444213867188
174, 0, 0, 856.6192626953125
175, 0, 0, 859.7825927734375
176, 0, 0, 858.9031982421875
177, 0, 0, 844.8985595703125
178, 0, 0, 850.7295532226562
179, 0, 0, 839.4082641601562
