# TOPAS Version: 3.3.p1
# Parameter File: Test.txt
# Results for scorer MLIC_Scorer
# Scored in component: MLIC
# X in 165 bins of 0.2 cm
# Y in 1 bin  of 10 cm
# Z in 1 bin  of 10 cm
# EnergyDeposit ( MeV ) : Sum   
0, 0, 0, 0
1, 0, 0, 0
2, 0, 0, 0
3, 0, 0, 0.005158722866326571
4, 0, 0, 0
5, 0, 0, 0.005063146818429232
6, 0, 0, 0
7, 0, 0, 0
8, 0, 0, 0
9, 0, 0, 0
10, 0, 0, 0
11, 0, 0, 58.01016235351562
12, 0, 0, 471.2939758300781
13, 0, 0, 1546.562744140625
14, 0, 0, 2816.412109375
15, 0, 0, 4306.8330078125
16, 0, 0, 5352.083984375
17, 0, 0, 5597.80712890625
18, 0, 0, 5022.31103515625
19, 0, 0, 4258.6396484375
20, 0, 0, 3744.457275390625
21, 0, 0, 3391.029296875
22, 0, 0, 3131.976806640625
23, 0, 0, 2939.885009765625
24, 0, 0, 2770.68798828125
25, 0, 0, 2647.95361328125
26, 0, 0, 2521.7939453125
27, 0, 0, 2431.72119140625
28, 0, 0, 2338.419921875
29, 0, 0, 2256.12744140625
30, 0, 0, 2194.21337890625
31, 0, 0, 2127.481201171875
32, 0, 0, 2075.27490234375
33, 0, 0, 2018.417114257812
34, 0, 0, 1975.14404296875
35, 0, 0, 1925.192504882812
36, 0, 0, 1887.951049804688
37, 0, 0, 1853.183837890625
38, 0, 0, 1810.833129882812
39, 0, 0, 1777.502807617188
40, 0, 0, 1755.942260742188
41, 0, 0, 1722.066528320312
42, 0, 0, 1694.767333984375
43, 0, 0, 1663.701293945312
44, 0, 0, 1639.016479492188
45, 0, 0, 1614.853759765625
46, 0, 0, 1598.402221679688
47, 0, 0, 1575.433959960938
48, 0, 0, 1561.334350585938
49, 0, 0, 1531.297973632812
50, 0, 0, 1521.18310546875
51, 0, 0, 1501.19189453125
52, 0, 0, 1483.480590820312
53, 0, 0, 1468.675415039062
54, 0, 0, 1448.8740234375
55, 0, 0, 1434.294067382812
56, 0, 0, 1423.159545898438
57, 0, 0, 1398.978881835938
58, 0, 0, 1391.260498046875
59, 0, 0, 1381.564697265625
60, 0, 0, 1368.01171875
61, 0, 0, 1361.170532226562
62, 0, 0, 1337.635498046875
63, 0, 0, 1327.911743164062
64, 0, 0, 1312.476318359375
65, 0, 0, 1306.863159179688
66, 0, 0, 1297.73291015625
67, 0, 0, 1281.204223632812
68, 0, 0, 1278.745849609375
69, 0, 0, 1265.111572265625
70, 0, 0, 1260.74169921875
71, 0, 0, 1247.743774414062
72, 0, 0, 1237.3212890625
73, 0, 0, 1226.173095703125
74, 0, 0, 1223.544189453125
75, 0, 0, 1207.179931640625
76, 0, 0, 1201.698120117188
77, 0, 0, 1197.324340820312
78, 0, 0, 1177.42822265625
79, 0, 0, 1180.934204101562
80, 0, 0, 1168.578369140625
81, 0, 0, 1165.939331054688
82, 0, 0, 1167.116577148438
83, 0, 0, 1151.35107421875
84, 0, 0, 1146.392333984375
85, 0, 0, 1142.607421875
86, 0, 0, 1128.120239257812
87, 0, 0, 1127.064331054688
88, 0, 0, 1124.151245117188
89, 0, 0, 1117.315185546875
90, 0, 0, 1114.655517578125
91, 0, 0, 1106.880859375
92, 0, 0, 1102.0498046875
93, 0, 0, 1089.967651367188
94, 0, 0, 1079.568237304688
95, 0, 0, 1082.4560546875
96, 0, 0, 1074.44677734375
97, 0, 0, 1070.391723632812
98, 0, 0, 1068.0498046875
99, 0, 0, 1059.054931640625
100, 0, 0, 1055.245971679688
101, 0, 0, 1049.630615234375
102, 0, 0, 1046.982177734375
103, 0, 0, 1040.053588867188
104, 0, 0, 1032.646240234375
105, 0, 0, 1032.536376953125
106, 0, 0, 1030.419555664062
107, 0, 0, 1019.332397460938
108, 0, 0, 1014.93896484375
109, 0, 0, 1013.486267089844
110, 0, 0, 1009.359924316406
111, 0, 0, 1007.599426269531
112, 0, 0, 1000.645751953125
113, 0, 0, 983.833251953125
114, 0, 0, 994.0209350585938
115, 0, 0, 990.565673828125
116, 0, 0, 980.7019653320312
117, 0, 0, 981.6465454101562
118, 0, 0, 974.8605346679688
119, 0, 0, 971.449951171875
120, 0, 0, 971.908935546875
121, 0, 0, 963.0232543945312
122, 0, 0, 968.5728149414062
123, 0, 0, 957.2573852539062
124, 0, 0, 958.3762817382812
125, 0, 0, 952.93212890625
126, 0, 0, 955.9320678710938
127, 0, 0, 955.1334228515625
128, 0, 0, 944.13525390625
129, 0, 0, 944.0311889648438
130, 0, 0, 934.8799438476562
131, 0, 0, 937.8685913085938
132, 0, 0, 931.7824096679688
133, 0, 0, 922.2911376953125
134, 0, 0, 933.1192626953125
135, 0, 0, 925.8428344726562
136, 0, 0, 911.7103881835938
137, 0, 0, 912.4696044921875
138, 0, 0, 912.3184814453125
139, 0, 0, 912.1182861328125
140, 0, 0, 908.6918334960938
141, 0, 0, 899.4171142578125
142, 0, 0, 902.8243408203125
143, 0, 0, 899.4569091796875
144, 0, 0, 901.7462768554688
145, 0, 0, 898.6897583007812
146, 0, 0, 891.6358032226562
147, 0, 0, 888.7413330078125
148, 0, 0, 886.845458984375
149, 0, 0, 882.833251953125
150, 0, 0, 877.8350219726562
151, 0, 0, 885.1134643554688
152, 0, 0, 885.3569946289062
153, 0, 0, 876.69287109375
154, 0, 0, 873.6041259765625
155, 0, 0, 873.481689453125
156, 0, 0, 864.2886352539062
157, 0, 0, 868.3296508789062
158, 0, 0, 874.0752563476562
159, 0, 0, 859.8252563476562
160, 0, 0, 872.3300170898438
161, 0, 0, 861.6092529296875
162, 0, 0, 853.5927124023438
163, 0, 0, 849.7689208984375
164, 0, 0, 845.8766479492188
