# TOPAS Version: 3.3.p1
# Parameter File: Test.txt
# Results for scorer MLIC_Scorer
# Scored in component: MLIC
# X in 180 bins of 0.222222 cm
# Y in 1 bin  of 10 cm
# Z in 1 bin  of 10 cm
# EnergyDeposit ( MeV ) : Sum   
0, 0, 0, 0
1, 0, 0, 0
2, 0, 0, 0
3, 0, 0, 0
4, 0, 0, 0
5, 0, 0, 0
6, 0, 0, 0
7, 0, 0, 0
8, 0, 0, 0
9, 0, 0, 0
10, 0, 0, 0
11, 0, 0, 0
12, 0, 0, 0
13, 0, 0, 0
14, 0, 0, 0
15, 0, 0, 0
16, 0, 0, 0
17, 0, 0, 0
18, 0, 0, 0
19, 0, 0, 0
20, 0, 0, 0
21, 0, 0, 0
22, 0, 0, 0
23, 0, 0, 0
24, 0, 0, 0
25, 0, 0, 0
26, 0, 0, 0
27, 0, 0, 0
28, 0, 0, 0
29, 0, 0, 0
30, 0, 0, 0
31, 0, 0, 0
32, 0, 0, 0
33, 0, 0, 0
34, 0, 0, 0
35, 0, 0, 0
36, 0, 0, 0
37, 0, 0, 0
38, 0, 0, 0
39, 0, 0, 0
40, 0, 0, 0
41, 0, 0, 0
42, 0, 0, 0
43, 0, 0, 0
44, 0, 0, 0
45, 0, 0, 0
46, 0, 0, 0
47, 0, 0, 0
48, 0, 0, 0
49, 0, 0, 0
50, 0, 0, 0
51, 0, 0, 0
52, 0, 0, 0
53, 0, 0, 0
54, 0, 0, 0
55, 0, 0, 0
56, 0, 0, 0
57, 0, 0, 0
58, 0, 0, 0
59, 0, 0, 0
60, 0, 0, 0
61, 0, 0, 0
62, 0, 0, 0
63, 0, 0, 0
64, 0, 0, 0
65, 0, 0, 0
66, 0, 0, 0
67, 0, 0, 0
68, 0, 0, 0
69, 0, 0, 0
70, 0, 0, 0
71, 0, 0, 0
72, 0, 0, 0
73, 0, 0, 0
74, 0, 0, 0
75, 0, 0, 0
76, 0, 0, 0
77, 0, 0, 0
78, 0, 0, 0
79, 0, 0, 0
80, 0, 0, 0
81, 0, 0, 0
82, 0, 0, 0
83, 0, 0, 0
84, 0, 0, 109.1914443969727
85, 0, 0, 788.4329833984375
86, 0, 0, 2209.2265625
87, 0, 0, 4429.8544921875
88, 0, 0, 5797.12158203125
89, 0, 0, 6267.3525390625
90, 0, 0, 5560.21630859375
91, 0, 0, 4676.0791015625
92, 0, 0, 4083.78564453125
93, 0, 0, 3677.999755859375
94, 0, 0, 3386.7841796875
95, 0, 0, 3159.983642578125
96, 0, 0, 2985.994384765625
97, 0, 0, 2831.093505859375
98, 0, 0, 2709.671142578125
99, 0, 0, 2604.500244140625
100, 0, 0, 2508.211181640625
101, 0, 0, 2418.692626953125
102, 0, 0, 2350.2509765625
103, 0, 0, 2281.363525390625
104, 0, 0, 2225.22705078125
105, 0, 0, 2163.88427734375
106, 0, 0, 2097.681640625
107, 0, 0, 2056.489990234375
108, 0, 0, 2018.72509765625
109, 0, 0, 1981.616943359375
110, 0, 0, 1940.739990234375
111, 0, 0, 1903.011474609375
112, 0, 0, 1870.365356445312
113, 0, 0, 1830.443115234375
114, 0, 0, 1812.309448242188
115, 0, 0, 1782.840454101562
116, 0, 0, 1749.738525390625
117, 0, 0, 1723.454833984375
118, 0, 0, 1707.1904296875
119, 0, 0, 1675.067260742188
120, 0, 0, 1667.240478515625
121, 0, 0, 1640.054321289062
122, 0, 0, 1612.474243164062
123, 0, 0, 1606.6484375
124, 0, 0, 1576.00048828125
125, 0, 0, 1569.584106445312
126, 0, 0, 1543.291015625
127, 0, 0, 1534.18701171875
128, 0, 0, 1504.156372070312
129, 0, 0, 1499.216918945312
130, 0, 0, 1488.33544921875
131, 0, 0, 1464.036010742188
132, 0, 0, 1458.1279296875
133, 0, 0, 1443.427612304688
134, 0, 0, 1423.638671875
135, 0, 0, 1416.459594726562
136, 0, 0, 1408.985107421875
137, 0, 0, 1396.395629882812
138, 0, 0, 1388.027709960938
139, 0, 0, 1376.561401367188
140, 0, 0, 1350.754638671875
141, 0, 0, 1348.731079101562
142, 0, 0, 1341.572143554688
143, 0, 0, 1337.265991210938
144, 0, 0, 1318.585571289062
145, 0, 0, 1311.229248046875
146, 0, 0, 1300.164184570312
147, 0, 0, 1295.867431640625
148, 0, 0, 1284.267700195312
149, 0, 0, 1269.6826171875
150, 0, 0, 1264.049682617188
151, 0, 0, 1258.338500976562
152, 0, 0, 1256.61328125
153, 0, 0, 1251.05517578125
154, 0, 0, 1237.488525390625
155, 0, 0, 1226.023315429688
156, 0, 0, 1222.162231445312
157, 0, 0, 1209.289306640625
158, 0, 0, 1207.032958984375
159, 0, 0, 1201.94482421875
160, 0, 0, 1195.69189453125
161, 0, 0, 1195.216796875
162, 0, 0, 1183.547485351562
163, 0, 0, 1172.639282226562
164, 0, 0, 1169.886962890625
165, 0, 0, 1166.685180664062
166, 0, 0, 1159.000366210938
167, 0, 0, 1157.394653320312
168, 0, 0, 1143.171997070312
169, 0, 0, 1142.111206054688
170, 0, 0, 1139.23046875
171, 0, 0, 1138.893920898438
172, 0, 0, 1120.255615234375
173, 0, 0, 1123.26025390625
174, 0, 0, 1124.868530273438
175, 0, 0, 1110.505249023438
176, 0, 0, 1104.72021484375
177, 0, 0, 1102.524658203125
178, 0, 0, 1103.064086914062
179, 0, 0, 1098.06103515625
