# TOPAS Version: 3.3.p1
# Parameter File: Test.txt
# Results for scorer MLIC_Scorer
# Scored in component: MLIC
# X in 180 bins of 0.183333 cm
# Y in 1 bin  of 10 cm
# Z in 1 bin  of 10 cm
# EnergyDeposit ( MeV ) : Sum   
0, 0, 0, 0
1, 0, 0, 0
2, 0, 0, 0
3, 0, 0, 0
4, 0, 0, 0
5, 0, 0, 0
6, 0, 0, 0
7, 0, 0, 0
8, 0, 0, 0
9, 0, 0, 0
10, 0, 0, 0
11, 0, 0, 0
12, 0, 0, 0
13, 0, 0, 0
14, 0, 0, 0
15, 0, 0, 0
16, 0, 0, 0
17, 0, 0, 0
18, 0, 0, 0
19, 0, 0, 0
20, 0, 0, 0
21, 0, 0, 0
22, 0, 0, 0
23, 0, 0, 0
24, 0, 0, 0
25, 0, 0, 0
26, 0, 0, 0
27, 0, 0, 0
28, 0, 0, 0
29, 0, 0, 0
30, 0, 0, 0
31, 0, 0, 0
32, 0, 0, 0
33, 0, 0, 0
34, 0, 0, 0
35, 0, 0, 0
36, 0, 0, 0
37, 0, 0, 0
38, 0, 0, 0
39, 0, 0, 0
40, 0, 0, 0
41, 0, 0, 0
42, 0, 0, 0
43, 0, 0, 0
44, 0, 0, 0
45, 0, 0, 0
46, 0, 0, 0
47, 0, 0, 0
48, 0, 0, 0
49, 0, 0, 0
50, 0, 0, 0
51, 0, 0, 0
52, 0, 0, 0
53, 0, 0, 0
54, 0, 0, 0
55, 0, 0, 0
56, 0, 0, 0
57, 0, 0, 0
58, 0, 0, 0
59, 0, 0, 0
60, 0, 0, 0
61, 0, 0, 0.001433306722901762
62, 0, 0, 0
63, 0, 0, 0
64, 0, 0, 0
65, 0, 0, 0
66, 0, 0, 0
67, 0, 0, 0
68, 0, 0, 0
69, 0, 0, 0
70, 0, 0, 0
71, 0, 0, 0
72, 0, 0, 0
73, 0, 0, 0
74, 0, 0, 0
75, 0, 0, 0
76, 0, 0, 0
77, 0, 0, 0
78, 0, 0, 0.006789504084736109
79, 0, 0, 0
80, 0, 0, 0
81, 0, 0, 0.003993348684161901
82, 0, 0, 0
83, 0, 0, 0
84, 0, 0, 0
85, 0, 0, 0.001753808697685599
86, 0, 0, 0
87, 0, 0, 0.03055164776742458
88, 0, 0, 0
89, 0, 0, 0.001466981950215995
90, 0, 0, 0
91, 0, 0, 0
92, 0, 0, 9.467013296671212e-05
93, 0, 0, 8.599327087402344
94, 0, 0, 114.6191253662109
95, 0, 0, 380.330322265625
96, 0, 0, 1059.623046875
97, 0, 0, 2312.296630859375
98, 0, 0, 3919.06103515625
99, 0, 0, 4906.0703125
100, 0, 0, 5245.44580078125
101, 0, 0, 4934.52392578125
102, 0, 0, 4257.4736328125
103, 0, 0, 3684.84765625
104, 0, 0, 3290.537841796875
105, 0, 0, 3036.235107421875
106, 0, 0, 2830.426513671875
107, 0, 0, 2670.364013671875
108, 0, 0, 2540.419921875
109, 0, 0, 2431.094482421875
110, 0, 0, 2330.3203125
111, 0, 0, 2248.171142578125
112, 0, 0, 2162.494384765625
113, 0, 0, 2104.06103515625
114, 0, 0, 2040.642944335938
115, 0, 0, 1991.401489257812
116, 0, 0, 1940.909057617188
117, 0, 0, 1888.205444335938
118, 0, 0, 1848.22265625
119, 0, 0, 1811.558837890625
120, 0, 0, 1769.658813476562
121, 0, 0, 1729.72900390625
122, 0, 0, 1699.717529296875
123, 0, 0, 1671.856079101562
124, 0, 0, 1648.074340820312
125, 0, 0, 1619.786010742188
126, 0, 0, 1594.447631835938
127, 0, 0, 1571.947021484375
128, 0, 0, 1544.718017578125
129, 0, 0, 1524.809448242188
130, 0, 0, 1499.385986328125
131, 0, 0, 1476.54541015625
132, 0, 0, 1464.053100585938
133, 0, 0, 1446.033813476562
134, 0, 0, 1430.870361328125
135, 0, 0, 1421.936889648438
136, 0, 0, 1396.789794921875
137, 0, 0, 1372.410278320312
138, 0, 0, 1371.83740234375
139, 0, 0, 1348.79833984375
140, 0, 0, 1342.282470703125
141, 0, 0, 1317.180419921875
142, 0, 0, 1312.1318359375
143, 0, 0, 1299.725830078125
144, 0, 0, 1288.1435546875
145, 0, 0, 1273.609497070312
146, 0, 0, 1264.966430664062
147, 0, 0, 1252.995361328125
148, 0, 0, 1241.527465820312
149, 0, 0, 1234.492309570312
150, 0, 0, 1219.663818359375
151, 0, 0, 1215.219116210938
152, 0, 0, 1202.691650390625
153, 0, 0, 1198.748168945312
154, 0, 0, 1192.074951171875
155, 0, 0, 1177.850830078125
156, 0, 0, 1174.42822265625
157, 0, 0, 1159.380737304688
158, 0, 0, 1146.536499023438
159, 0, 0, 1146.116577148438
160, 0, 0, 1140.659545898438
161, 0, 0, 1127.409912109375
162, 0, 0, 1123.646362304688
163, 0, 0, 1115.284912109375
164, 0, 0, 1113.417846679688
165, 0, 0, 1100.07568359375
166, 0, 0, 1096.49462890625
167, 0, 0, 1084.981079101562
168, 0, 0, 1081.352661132812
169, 0, 0, 1084.230346679688
170, 0, 0, 1074.156372070312
171, 0, 0, 1062.719482421875
172, 0, 0, 1052.410034179688
173, 0, 0, 1047.916259765625
174, 0, 0, 1047.010498046875
175, 0, 0, 1041.230224609375
176, 0, 0, 1043.347412109375
177, 0, 0, 1025.989624023438
178, 0, 0, 1022.802001953125
179, 0, 0, 1016.609252929688
