# TOPAS Version: 3.3.p1
# Parameter File: Test.txt
# Results for scorer MLIC_Scorer
# Scored in component: MLIC
# X in 180 bins of 0.183333 cm
# Y in 1 bin  of 10 cm
# Z in 1 bin  of 10 cm
# EnergyDeposit ( MeV ) : Sum   
0, 0, 0, 0
1, 0, 0, 0
2, 0, 0, 0
3, 0, 0, 0
4, 0, 0, 0
5, 0, 0, 0
6, 0, 0, 0
7, 0, 0, 0
8, 0, 0, 0
9, 0, 0, 0
10, 0, 0, 0
11, 0, 0, 0
12, 0, 0, 0
13, 0, 0, 0
14, 0, 0, 0
15, 0, 0, 0
16, 0, 0, 0
17, 0, 0, 0
18, 0, 0, 0
19, 0, 0, 0
20, 0, 0, 0
21, 0, 0, 0
22, 0, 0, 0
23, 0, 0, 0
24, 0, 0, 0
25, 0, 0, 0
26, 0, 0, 0
27, 0, 0, 0
28, 0, 0, 0
29, 0, 0, 0
30, 0, 0, 0
31, 0, 0, 0
32, 0, 0, 0
33, 0, 0, 0
34, 0, 0, 0
35, 0, 0, 0
36, 0, 0, 0
37, 0, 0, 0
38, 0, 0, 0
39, 0, 0, 0
40, 0, 0, 0
41, 0, 0, 0
42, 0, 0, 0
43, 0, 0, 0
44, 0, 0, 0
45, 0, 0, 0
46, 0, 0, 0
47, 0, 0, 0
48, 0, 0, 0
49, 0, 0, 0
50, 0, 0, 0
51, 0, 0, 0
52, 0, 0, 0
53, 0, 0, 0
54, 0, 0, 0
55, 0, 0, 0
56, 0, 0, 0
57, 0, 0, 0
58, 0, 0, 0
59, 0, 0, 11.72874164581299
60, 0, 0, 21.65702819824219
61, 0, 0, 78.23861694335938
62, 0, 0, 265.1426086425781
63, 0, 0, 719.03759765625
64, 0, 0, 1822.607421875
65, 0, 0, 3400.128173828125
66, 0, 0, 4813.70361328125
67, 0, 0, 5330.73974609375
68, 0, 0, 5033.2392578125
69, 0, 0, 4390.54296875
70, 0, 0, 3852.42138671875
71, 0, 0, 3408.000732421875
72, 0, 0, 3109.31298828125
73, 0, 0, 2903.57958984375
74, 0, 0, 2720.164306640625
75, 0, 0, 2574.135009765625
76, 0, 0, 2468.749755859375
77, 0, 0, 2360.912353515625
78, 0, 0, 2273.993896484375
79, 0, 0, 2192.44970703125
80, 0, 0, 2123.2802734375
81, 0, 0, 2065.737060546875
82, 0, 0, 2007.2880859375
83, 0, 0, 1956.463134765625
84, 0, 0, 1905.58251953125
85, 0, 0, 1860.899536132812
86, 0, 0, 1820.056396484375
87, 0, 0, 1778.95458984375
88, 0, 0, 1748.14306640625
89, 0, 0, 1718.035522460938
90, 0, 0, 1681.537963867188
91, 0, 0, 1652.775146484375
92, 0, 0, 1627.04833984375
93, 0, 0, 1604.553955078125
94, 0, 0, 1571.633056640625
95, 0, 0, 1554.169677734375
96, 0, 0, 1527.9873046875
97, 0, 0, 1507.381958007812
98, 0, 0, 1487.878784179688
99, 0, 0, 1468.922485351562
100, 0, 0, 1454.233520507812
101, 0, 0, 1437.88916015625
102, 0, 0, 1416.399291992188
103, 0, 0, 1399.660522460938
104, 0, 0, 1380.724609375
105, 0, 0, 1369.359619140625
106, 0, 0, 1358.9453125
107, 0, 0, 1338.596801757812
108, 0, 0, 1329.116577148438
109, 0, 0, 1307.518676757812
110, 0, 0, 1299.7216796875
111, 0, 0, 1292.663208007812
112, 0, 0, 1279.219970703125
113, 0, 0, 1264.457153320312
114, 0, 0, 1258.5107421875
115, 0, 0, 1250.745727539062
116, 0, 0, 1236.41552734375
117, 0, 0, 1220.404296875
118, 0, 0, 1220.228881835938
119, 0, 0, 1207.988037109375
120, 0, 0, 1199.984008789062
121, 0, 0, 1180.390747070312
122, 0, 0, 1177.447387695312
123, 0, 0, 1164.873413085938
124, 0, 0, 1155.363891601562
125, 0, 0, 1162.80615234375
126, 0, 0, 1141.019775390625
127, 0, 0, 1141.25439453125
128, 0, 0, 1135.014282226562
129, 0, 0, 1126.5908203125
130, 0, 0, 1117.088012695312
131, 0, 0, 1108.966186523438
132, 0, 0, 1111.455322265625
133, 0, 0, 1096.296508789062
134, 0, 0, 1088.944091796875
135, 0, 0, 1094.389526367188
136, 0, 0, 1077.366088867188
137, 0, 0, 1079.25927734375
138, 0, 0, 1068.098876953125
139, 0, 0, 1058.2265625
140, 0, 0, 1056.797607421875
141, 0, 0, 1056.185424804688
142, 0, 0, 1043.370361328125
143, 0, 0, 1033.7353515625
144, 0, 0, 1035.16943359375
145, 0, 0, 1023.522644042969
146, 0, 0, 1019.302856445312
147, 0, 0, 1009.729675292969
148, 0, 0, 1014.505065917969
149, 0, 0, 1010.105407714844
150, 0, 0, 999.6396484375
151, 0, 0, 997.8468017578125
152, 0, 0, 992.67578125
153, 0, 0, 997.7606811523438
154, 0, 0, 984.3078002929688
155, 0, 0, 975.3612670898438
156, 0, 0, 975.5446166992188
157, 0, 0, 975.3118896484375
158, 0, 0, 964.31982421875
159, 0, 0, 963.17138671875
160, 0, 0, 959.8634033203125
161, 0, 0, 954.5401000976562
162, 0, 0, 948.8137817382812
163, 0, 0, 954.617431640625
164, 0, 0, 942.085205078125
165, 0, 0, 933.3433837890625
166, 0, 0, 939.6168823242188
167, 0, 0, 939.3031005859375
168, 0, 0, 929.9992065429688
169, 0, 0, 926.36767578125
170, 0, 0, 922.2870483398438
171, 0, 0, 915.1179809570312
172, 0, 0, 911.0596923828125
173, 0, 0, 921.675537109375
174, 0, 0, 910.42822265625
175, 0, 0, 911.6220092773438
176, 0, 0, 904.811279296875
177, 0, 0, 899.7026977539062
178, 0, 0, 902.5975341796875
179, 0, 0, 899.0527954101562
