# TOPAS Version: 3.3.p1
# Parameter File: Test.txt
# Results for scorer MLIC_Scorer
# Scored in component: MLIC
# X in 180 bins of 0.177778 cm
# Y in 1 bin  of 10 cm
# Z in 1 bin  of 10 cm
# EnergyDeposit ( MeV ) : Sum   
0, 0, 0, 0
1, 0, 0, 0
2, 0, 0, 0
3, 0, 0, 0
4, 0, 0, 0
5, 0, 0, 0
6, 0, 0, 0
7, 0, 0, 0
8, 0, 0, 0
9, 0, 0, 0
10, 0, 0, 0
11, 0, 0, 0
12, 0, 0, 0
13, 0, 0, 0
14, 0, 0, 0
15, 0, 0, 0
16, 0, 0, 0
17, 0, 0, 0
18, 0, 0, 0
19, 0, 0, 0.02703753300011158
20, 0, 0, 0
21, 0, 0, 0
22, 0, 0, 0
23, 0, 0, 0
24, 0, 0, 26.93245315551758
25, 0, 0, 85.30289459228516
26, 0, 0, 339.4544677734375
27, 0, 0, 1033.484985351562
28, 0, 0, 2266.168212890625
29, 0, 0, 3769.86181640625
30, 0, 0, 4760.54150390625
31, 0, 0, 5172.31884765625
32, 0, 0, 4785.60302734375
33, 0, 0, 4172.50830078125
34, 0, 0, 3651.78857421875
35, 0, 0, 3294.633544921875
36, 0, 0, 3011.14892578125
37, 0, 0, 2806.118896484375
38, 0, 0, 2647.200927734375
39, 0, 0, 2503.63134765625
40, 0, 0, 2390.198974609375
41, 0, 0, 2298.458984375
42, 0, 0, 2217.60302734375
43, 0, 0, 2139.23583984375
44, 0, 0, 2073.611083984375
45, 0, 0, 2005.94384765625
46, 0, 0, 1959.843017578125
47, 0, 0, 1906.863037109375
48, 0, 0, 1858.3984375
49, 0, 0, 1825.147216796875
50, 0, 0, 1777.300415039062
51, 0, 0, 1743.678588867188
52, 0, 0, 1705.838134765625
53, 0, 0, 1683.061401367188
54, 0, 0, 1646.916015625
55, 0, 0, 1620.90185546875
56, 0, 0, 1590.2744140625
57, 0, 0, 1563.291870117188
58, 0, 0, 1547.276733398438
59, 0, 0, 1513.010375976562
60, 0, 0, 1501.7412109375
61, 0, 0, 1478.8212890625
62, 0, 0, 1451.232177734375
63, 0, 0, 1436.147827148438
64, 0, 0, 1428.531005859375
65, 0, 0, 1406.120727539062
66, 0, 0, 1398.373779296875
67, 0, 0, 1371.541259765625
68, 0, 0, 1355.957641601562
69, 0, 0, 1344.571655273438
70, 0, 0, 1327.341796875
71, 0, 0, 1314.405517578125
72, 0, 0, 1306.0673828125
73, 0, 0, 1288.370361328125
74, 0, 0, 1271.630126953125
75, 0, 0, 1266.906005859375
76, 0, 0, 1253.65185546875
77, 0, 0, 1244.63720703125
78, 0, 0, 1230.555297851562
79, 0, 0, 1227.585083007812
80, 0, 0, 1209.609497070312
81, 0, 0, 1206.070556640625
82, 0, 0, 1191.003662109375
83, 0, 0, 1181.956298828125
84, 0, 0, 1169.990356445312
85, 0, 0, 1159.648071289062
86, 0, 0, 1153.969848632812
87, 0, 0, 1153.190673828125
88, 0, 0, 1135.67919921875
89, 0, 0, 1132.184448242188
90, 0, 0, 1121.595825195312
91, 0, 0, 1122.1494140625
92, 0, 0, 1115.521484375
93, 0, 0, 1100.891967773438
94, 0, 0, 1090.92578125
95, 0, 0, 1096.006469726562
96, 0, 0, 1076.463500976562
97, 0, 0, 1081.610595703125
98, 0, 0, 1069.796630859375
99, 0, 0, 1061.876220703125
100, 0, 0, 1058.31689453125
101, 0, 0, 1044.21728515625
102, 0, 0, 1046.518188476562
103, 0, 0, 1037.2822265625
104, 0, 0, 1030.390625
105, 0, 0, 1026.725463867188
106, 0, 0, 1022.35986328125
107, 0, 0, 1011.983581542969
108, 0, 0, 1012.634582519531
109, 0, 0, 1003.878967285156
110, 0, 0, 1000.671630859375
111, 0, 0, 993.7620239257812
112, 0, 0, 993.1724243164062
113, 0, 0, 989.6173095703125
114, 0, 0, 985.6614379882812
115, 0, 0, 974.127685546875
116, 0, 0, 971.754638671875
117, 0, 0, 970.145751953125
118, 0, 0, 974.158203125
119, 0, 0, 952.2342529296875
120, 0, 0, 966.534912109375
121, 0, 0, 959.9486083984375
122, 0, 0, 949.7200317382812
123, 0, 0, 935.5263671875
124, 0, 0, 950.510986328125
125, 0, 0, 934.5713500976562
126, 0, 0, 936.7415161132812
127, 0, 0, 931.6375122070312
128, 0, 0, 930.8748168945312
129, 0, 0, 917.641845703125
130, 0, 0, 912.7981567382812
131, 0, 0, 916.2986450195312
132, 0, 0, 905.47021484375
133, 0, 0, 907.6243896484375
134, 0, 0, 907.43017578125
135, 0, 0, 900.229736328125
136, 0, 0, 897.8588256835938
137, 0, 0, 887.5530395507812
138, 0, 0, 890.008544921875
139, 0, 0, 893.1702270507812
140, 0, 0, 889.8429565429688
141, 0, 0, 888.44482421875
142, 0, 0, 878.9624633789062
143, 0, 0, 875.0328979492188
144, 0, 0, 872.235107421875
145, 0, 0, 873.53857421875
146, 0, 0, 863.7947387695312
147, 0, 0, 857.6046142578125
148, 0, 0, 855.8079833984375
149, 0, 0, 856.6685791015625
150, 0, 0, 848.7670288085938
151, 0, 0, 855.7349243164062
152, 0, 0, 854.5313720703125
153, 0, 0, 849.3585815429688
154, 0, 0, 844.8723754882812
155, 0, 0, 850.43115234375
156, 0, 0, 842.2866821289062
157, 0, 0, 839.8072509765625
158, 0, 0, 833.808349609375
159, 0, 0, 837.0067138671875
160, 0, 0, 821.2871704101562
161, 0, 0, 831.165771484375
162, 0, 0, 822.3200073242188
163, 0, 0, 817.4663696289062
164, 0, 0, 818.902099609375
165, 0, 0, 819.8133544921875
166, 0, 0, 817.3211059570312
167, 0, 0, 815.1594848632812
168, 0, 0, 807.2664184570312
169, 0, 0, 812.577392578125
170, 0, 0, 801.6246948242188
171, 0, 0, 801.3946533203125
172, 0, 0, 807.7799072265625
173, 0, 0, 798.9893188476562
174, 0, 0, 794.0969848632812
175, 0, 0, 797.557861328125
176, 0, 0, 796.8989868164062
177, 0, 0, 788.8309936523438
178, 0, 0, 790.91796875
179, 0, 0, 786.9588012695312
