# TOPAS Version: 3.3.p1
# Parameter File: Test.txt
# Results for scorer MLIC_Scorer
# Scored in component: MLIC
# X in 180 bins of 0.183333 cm
# Y in 1 bin  of 10 cm
# Z in 1 bin  of 10 cm
# EnergyDeposit ( MeV ) : Sum   
0, 0, 0, 0
1, 0, 0, 0
2, 0, 0, 0
3, 0, 0, 0
4, 0, 0, 0
5, 0, 0, 0
6, 0, 0, 0
7, 0, 0, 0
8, 0, 0, 0
9, 0, 0, 0
10, 0, 0, 0
11, 0, 0, 0
12, 0, 0, 0
13, 0, 0, 0
14, 0, 0, 0
15, 0, 0, 0
16, 0, 0, 0
17, 0, 0, 0
18, 0, 0, 0
19, 0, 0, 0
20, 0, 0, 0
21, 0, 0, 0
22, 0, 0, 0
23, 0, 0, 0
24, 0, 0, 0
25, 0, 0, 0
26, 0, 0, 0
27, 0, 0, 0
28, 0, 0, 0
29, 0, 0, 0
30, 0, 0, 0
31, 0, 0, 0
32, 0, 0, 0
33, 0, 0, 0
34, 0, 0, 0
35, 0, 0, 0
36, 0, 0, 0
37, 0, 0, 0
38, 0, 0, 0
39, 0, 0, 0
40, 0, 0, 0
41, 0, 0, 0
42, 0, 0, 0
43, 0, 0, 0
44, 0, 0, 0
45, 0, 0, 0
46, 0, 0, 0
47, 0, 0, 0
48, 0, 0, 0
49, 0, 0, 0
50, 0, 0, 0
51, 0, 0, 0
52, 0, 0, 0
53, 0, 0, 0
54, 0, 0, 0
55, 0, 0, 0
56, 0, 0, 0
57, 0, 0, 0
58, 0, 0, 0
59, 0, 0, 0
60, 0, 0, 0
61, 0, 0, 0
62, 0, 0, 0
63, 0, 0, 0
64, 0, 0, 0
65, 0, 0, 0
66, 0, 0, 0
67, 0, 0, 0
68, 0, 0, 0
69, 0, 0, 0
70, 0, 0, 0
71, 0, 0, 0
72, 0, 0, 0
73, 0, 0, 0
74, 0, 0, 0
75, 0, 0, 0
76, 0, 0, 0
77, 0, 0, 0
78, 0, 0, 0
79, 0, 0, 0
80, 0, 0, 0
81, 0, 0, 0
82, 0, 0, 0
83, 0, 0, 0
84, 0, 0, 0
85, 0, 0, 0
86, 0, 0, 0
87, 0, 0, 0
88, 0, 0, 0
89, 0, 0, 0
90, 0, 0, 0
91, 0, 0, 0
92, 0, 0, 0
93, 0, 0, 0
94, 0, 0, 0
95, 0, 0, 0
96, 0, 0, 0
97, 0, 0, 0
98, 0, 0, 0
99, 0, 0, 0
100, 0, 0, 0
101, 0, 0, 0
102, 0, 0, 0
103, 0, 0, 0
104, 0, 0, 0
105, 0, 0, 0.03581202402710915
106, 0, 0, 0
107, 0, 0, 0
108, 0, 0, 0
109, 0, 0, 0.003830715548247099
110, 0, 0, 0
111, 0, 0, 0
112, 0, 0, 0
113, 0, 0, 0
114, 0, 0, 0
115, 0, 0, 0
116, 0, 0, 0.02952457405626774
117, 0, 0, 0
118, 0, 0, 0
119, 0, 0, 0
120, 0, 0, 0
121, 0, 0, 0
122, 0, 0, 0
123, 0, 0, 6.795235157012939
124, 0, 0, 14.38732528686523
125, 0, 0, 122.6783752441406
126, 0, 0, 477.0697631835938
127, 0, 0, 1573.071899414062
128, 0, 0, 2847.65380859375
129, 0, 0, 4215.3330078125
130, 0, 0, 5245.0810546875
131, 0, 0, 5135.13037109375
132, 0, 0, 4647.19580078125
133, 0, 0, 4014.73779296875
134, 0, 0, 3561.4501953125
135, 0, 0, 3233.819580078125
136, 0, 0, 2977.124755859375
137, 0, 0, 2786.861328125
138, 0, 0, 2634.4072265625
139, 0, 0, 2504.236083984375
140, 0, 0, 2395.233642578125
141, 0, 0, 2299.73779296875
142, 0, 0, 2230.725341796875
143, 0, 0, 2147.452392578125
144, 0, 0, 2091.0751953125
145, 0, 0, 2023.61962890625
146, 0, 0, 1970.988403320312
147, 0, 0, 1920.687133789062
148, 0, 0, 1869.673095703125
149, 0, 0, 1840.110473632812
150, 0, 0, 1790.87939453125
151, 0, 0, 1760.849731445312
152, 0, 0, 1727.668090820312
153, 0, 0, 1697.782592773438
154, 0, 0, 1662.529663085938
155, 0, 0, 1639.929809570312
156, 0, 0, 1608.5185546875
157, 0, 0, 1589.280639648438
158, 0, 0, 1564.495361328125
159, 0, 0, 1534.302124023438
160, 0, 0, 1517.941772460938
161, 0, 0, 1496.754028320312
162, 0, 0, 1475.939208984375
163, 0, 0, 1449.079223632812
164, 0, 0, 1441.7158203125
165, 0, 0, 1419.511474609375
166, 0, 0, 1412.903198242188
167, 0, 0, 1387.858154296875
168, 0, 0, 1373.100952148438
169, 0, 0, 1371.3203125
170, 0, 0, 1349.464477539062
171, 0, 0, 1332.065185546875
172, 0, 0, 1317.949462890625
173, 0, 0, 1308.033081054688
174, 0, 0, 1301.233154296875
175, 0, 0, 1288.984741210938
176, 0, 0, 1268.17138671875
177, 0, 0, 1254.845825195312
178, 0, 0, 1248.228881835938
179, 0, 0, 1238.863891601562
