# TOPAS Version: 3.3.p1
# Parameter File: Test.txt
# Results for scorer MLIC_Scorer
# Scored in component: MLIC
# X in 180 bins of 0.183333 cm
# Y in 1 bin  of 10 cm
# Z in 1 bin  of 10 cm
# EnergyDeposit ( MeV ) : Sum   
0, 0, 0, 0
1, 0, 0, 0
2, 0, 0, 0
3, 0, 0, 0
4, 0, 0, 0
5, 0, 0, 0
6, 0, 0, 0
7, 0, 0, 0
8, 0, 0, 0
9, 0, 0, 0
10, 0, 0, 0
11, 0, 0, 0
12, 0, 0, 0
13, 0, 0, 0
14, 0, 0, 0
15, 0, 0, 0
16, 0, 0, 0
17, 0, 0, 0
18, 0, 0, 0
19, 0, 0, 0
20, 0, 0, 0
21, 0, 0, 0
22, 0, 0, 0
23, 0, 0, 0
24, 0, 0, 0
25, 0, 0, 0
26, 0, 0, 0
27, 0, 0, 0
28, 0, 0, 0
29, 0, 0, 0
30, 0, 0, 0
31, 0, 0, 0
32, 0, 0, 0
33, 0, 0, 0
34, 0, 0, 0
35, 0, 0, 0
36, 0, 0, 0
37, 0, 0, 0
38, 0, 0, 0
39, 0, 0, 0
40, 0, 0, 0
41, 0, 0, 0
42, 0, 0, 0
43, 0, 0, 0
44, 0, 0, 0
45, 0, 0, 0
46, 0, 0, 0
47, 0, 0, 0
48, 0, 0, 0
49, 0, 0, 0
50, 0, 0, 0
51, 0, 0, 0
52, 0, 0, 0
53, 0, 0, 0
54, 0, 0, 0
55, 0, 0, 0
56, 0, 0, 0
57, 0, 0, 0
58, 0, 0, 0
59, 0, 0, 0
60, 0, 0, 0
61, 0, 0, 0
62, 0, 0, 0
63, 0, 0, 0
64, 0, 0, 0.003382022259756923
65, 0, 0, 0
66, 0, 0, 0
67, 0, 0, 0
68, 0, 0, 0
69, 0, 0, 0
70, 0, 0, 0
71, 0, 0, 0.005946454126387835
72, 0, 0, 0
73, 0, 0, 0
74, 0, 0, 0
75, 0, 0, 0
76, 0, 0, 0
77, 0, 0, 0
78, 0, 0, 0
79, 0, 0, 0
80, 0, 0, 0
81, 0, 0, 0
82, 0, 0, 0
83, 0, 0, 0
84, 0, 0, 0.002794972388073802
85, 0, 0, 0
86, 0, 0, 0.003277019364759326
87, 0, 0, 0
88, 0, 0, 0
89, 0, 0, 0.0004280031425878406
90, 0, 0, 0.0008825635304674506
91, 0, 0, 0
92, 0, 0, 0
93, 0, 0, 0
94, 0, 0, 0
95, 0, 0, 0
96, 0, 0, 0
97, 0, 0, 0
98, 0, 0, 0
99, 0, 0, 0
100, 0, 0, 9.591473579406738
101, 0, 0, 9.93778133392334
102, 0, 0, 115.6491088867188
103, 0, 0, 458.2358093261719
104, 0, 0, 1638.56982421875
105, 0, 0, 3172.368896484375
106, 0, 0, 4451.97216796875
107, 0, 0, 5026.34521484375
108, 0, 0, 4927.01611328125
109, 0, 0, 4591.60498046875
110, 0, 0, 4014.217529296875
111, 0, 0, 3554.021484375
112, 0, 0, 3214.4921875
113, 0, 0, 2970.09228515625
114, 0, 0, 2776.166015625
115, 0, 0, 2636.2685546875
116, 0, 0, 2496.5751953125
117, 0, 0, 2394.4326171875
118, 0, 0, 2295.13916015625
119, 0, 0, 2217.73193359375
120, 0, 0, 2146.19482421875
121, 0, 0, 2083.356201171875
122, 0, 0, 2021.803466796875
123, 0, 0, 1963.646728515625
124, 0, 0, 1917.692138671875
125, 0, 0, 1870.839477539062
126, 0, 0, 1831.298706054688
127, 0, 0, 1790.757690429688
128, 0, 0, 1753.362670898438
129, 0, 0, 1722.707885742188
130, 0, 0, 1688.581787109375
131, 0, 0, 1653.883666992188
132, 0, 0, 1634.018920898438
133, 0, 0, 1603.316650390625
134, 0, 0, 1580.8134765625
135, 0, 0, 1555.65576171875
136, 0, 0, 1539.724975585938
137, 0, 0, 1516.478271484375
138, 0, 0, 1495.6044921875
139, 0, 0, 1475.8037109375
140, 0, 0, 1453.783203125
141, 0, 0, 1441.760986328125
142, 0, 0, 1421.415283203125
143, 0, 0, 1409.636474609375
144, 0, 0, 1386.9287109375
145, 0, 0, 1377.327758789062
146, 0, 0, 1364.031127929688
147, 0, 0, 1343.47509765625
148, 0, 0, 1337.552490234375
149, 0, 0, 1314.639526367188
150, 0, 0, 1302.85791015625
151, 0, 0, 1293.621826171875
152, 0, 0, 1284.667846679688
153, 0, 0, 1273.425659179688
154, 0, 0, 1265.6826171875
155, 0, 0, 1252.667114257812
156, 0, 0, 1247.600830078125
157, 0, 0, 1233.429565429688
158, 0, 0, 1216.176513671875
159, 0, 0, 1201.9677734375
160, 0, 0, 1209.401245117188
161, 0, 0, 1187.064453125
162, 0, 0, 1175.1650390625
163, 0, 0, 1178.261474609375
164, 0, 0, 1167.170166015625
165, 0, 0, 1157.9267578125
166, 0, 0, 1152.3271484375
167, 0, 0, 1138.077270507812
168, 0, 0, 1132.956298828125
169, 0, 0, 1129.011840820312
170, 0, 0, 1126.791870117188
171, 0, 0, 1117.12158203125
172, 0, 0, 1104.915405273438
173, 0, 0, 1101.903930664062
174, 0, 0, 1095.843505859375
175, 0, 0, 1089.484375
176, 0, 0, 1084.046875
177, 0, 0, 1066.31982421875
178, 0, 0, 1069.912719726562
179, 0, 0, 1053.281005859375
