# TOPAS Version: 3.3.p1
# Parameter File: Test.txt
# Results for scorer MLIC_Scorer
# Scored in component: MLIC
# X in 180 bins of 0.183333 cm
# Y in 1 bin  of 10 cm
# Z in 1 bin  of 10 cm
# EnergyDeposit ( MeV ) : Sum   
0, 0, 0, 0
1, 0, 0, 0
2, 0, 0, 0
3, 0, 0, 0
4, 0, 0, 0
5, 0, 0, 0
6, 0, 0, 0
7, 0, 0, 0
8, 0, 0, 0
9, 0, 0, 0
10, 0, 0, 0
11, 0, 0, 0
12, 0, 0, 0
13, 0, 0, 0
14, 0, 0, 0
15, 0, 0, 0
16, 0, 0, 0
17, 0, 0, 0
18, 0, 0, 0
19, 0, 0, 0
20, 0, 0, 0
21, 0, 0, 0
22, 0, 0, 0
23, 0, 0, 0
24, 0, 0, 0
25, 0, 0, 0
26, 0, 0, 0
27, 0, 0, 0
28, 0, 0, 0
29, 0, 0, 0
30, 0, 0, 0
31, 0, 0, 0
32, 0, 0, 0
33, 0, 0, 0
34, 0, 0, 0
35, 0, 0, 0
36, 0, 0, 0
37, 0, 0, 0
38, 0, 0, 0
39, 0, 0, 0
40, 0, 0, 0
41, 0, 0, 0
42, 0, 0, 0
43, 0, 0, 0
44, 0, 0, 0
45, 0, 0, 0
46, 0, 0, 0
47, 0, 0, 0
48, 0, 0, 0
49, 0, 0, 0
50, 0, 0, 0
51, 0, 0, 0
52, 0, 0, 0
53, 0, 0, 0
54, 0, 0, 0
55, 0, 0, 0
56, 0, 0, 0
57, 0, 0, 0
58, 0, 0, 0
59, 0, 0, 0
60, 0, 0, 0
61, 0, 0, 0
62, 0, 0, 0
63, 0, 0, 0
64, 0, 0, 0
65, 0, 0, 0
66, 0, 0, 0
67, 0, 0, 0.05648200958967209
68, 0, 0, 0
69, 0, 0, 0
70, 0, 0, 0
71, 0, 0, 0
72, 0, 0, 0
73, 0, 0, 0
74, 0, 0, 0
75, 0, 0, 0
76, 0, 0, 0
77, 0, 0, 0
78, 0, 0, 0
79, 0, 0, 0
80, 0, 0, 0
81, 0, 0, 0
82, 0, 0, 0
83, 0, 0, 0
84, 0, 0, 0
85, 0, 0, 0
86, 0, 0, 0
87, 0, 0, 0
88, 0, 0, 0
89, 0, 0, 0
90, 0, 0, 0
91, 0, 0, 0
92, 0, 0, 0
93, 0, 0, 0
94, 0, 0, 0
95, 0, 0, 0
96, 0, 0, 0
97, 0, 0, 0
98, 0, 0, 0
99, 0, 0, 0
100, 0, 0, 0
101, 0, 0, 0
102, 0, 0, 0
103, 0, 0, 0
104, 0, 0, 0
105, 0, 0, 0
106, 0, 0, 0
107, 0, 0, 0
108, 0, 0, 0
109, 0, 0, 0
110, 0, 0, 0
111, 0, 0, 0
112, 0, 0, 0.009412135928869247
113, 0, 0, 0
114, 0, 0, 0
115, 0, 0, 0
116, 0, 0, 0
117, 0, 0, 0
118, 0, 0, 0.04830313473939896
119, 0, 0, 0.01447201240807772
120, 0, 0, 0
121, 0, 0, 0.004692613612860441
122, 0, 0, 0
123, 0, 0, 0.002478185575455427
124, 0, 0, 0
125, 0, 0, 0
126, 0, 0, 22.94065284729004
127, 0, 0, 154.3616790771484
128, 0, 0, 517.0162963867188
129, 0, 0, 1390.081787109375
130, 0, 0, 2723.632080078125
131, 0, 0, 4188.849609375
132, 0, 0, 5046.8486328125
133, 0, 0, 5155.140625
134, 0, 0, 4754.92626953125
135, 0, 0, 4080.703369140625
136, 0, 0, 3586.77880859375
137, 0, 0, 3254.167236328125
138, 0, 0, 2990.285888671875
139, 0, 0, 2796.07861328125
140, 0, 0, 2648.50830078125
141, 0, 0, 2512.50439453125
142, 0, 0, 2404.934326171875
143, 0, 0, 2315.592529296875
144, 0, 0, 2223.950439453125
145, 0, 0, 2150.105712890625
146, 0, 0, 2091.20654296875
147, 0, 0, 2029.174560546875
148, 0, 0, 1966.596069335938
149, 0, 0, 1923.000732421875
150, 0, 0, 1879.397338867188
151, 0, 0, 1839.854248046875
152, 0, 0, 1797.971557617188
153, 0, 0, 1759.077758789062
154, 0, 0, 1730.613037109375
155, 0, 0, 1699.1181640625
156, 0, 0, 1664.714111328125
157, 0, 0, 1633.360717773438
158, 0, 0, 1611.243408203125
159, 0, 0, 1582.42724609375
160, 0, 0, 1566.49951171875
161, 0, 0, 1548.358032226562
162, 0, 0, 1524.171264648438
163, 0, 0, 1499.39697265625
164, 0, 0, 1483.8544921875
165, 0, 0, 1457.603759765625
166, 0, 0, 1443.674926757812
167, 0, 0, 1430.690551757812
168, 0, 0, 1406.141479492188
169, 0, 0, 1391.789916992188
170, 0, 0, 1378.366088867188
171, 0, 0, 1357.346313476562
172, 0, 0, 1354.151123046875
173, 0, 0, 1333.005249023438
174, 0, 0, 1322.615966796875
175, 0, 0, 1312.298950195312
176, 0, 0, 1292.757446289062
177, 0, 0, 1283.511352539062
178, 0, 0, 1274.064208984375
179, 0, 0, 1265.699340820312
