# TOPAS Version: 3.3.p1
# Parameter File: Test.txt
# Results for scorer MLIC_Scorer
# Scored in component: MLIC
# X in 165 bins of 0.2 cm
# Y in 1 bin  of 10 cm
# Z in 1 bin  of 10 cm
# EnergyDeposit ( MeV ) : Sum   
0, 0, 0, 0
1, 0, 0, 0
2, 0, 0, 0
3, 0, 0, 0
4, 0, 0, 0
5, 0, 0, 0
6, 0, 0, 0
7, 0, 0, 0
8, 0, 0, 0
9, 0, 0, 0
10, 0, 0, 0
11, 0, 0, 0
12, 0, 0, 0
13, 0, 0, 0
14, 0, 0, 0
15, 0, 0, 0
16, 0, 0, 0
17, 0, 0, 0
18, 0, 0, 0
19, 0, 0, 0
20, 0, 0, 0
21, 0, 0, 0
22, 0, 0, 0
23, 0, 0, 0
24, 0, 0, 0
25, 0, 0, 0
26, 0, 0, 0
27, 0, 0, 0
28, 0, 0, 0
29, 0, 0, 0
30, 0, 0, 0
31, 0, 0, 0
32, 0, 0, 0
33, 0, 0, 0
34, 0, 0, 0
35, 0, 0, 0.02661404386162758
36, 0, 0, 0
37, 0, 0, 0
38, 0, 0, 0
39, 0, 0, 0
40, 0, 0, 0
41, 0, 0, 0.005755512043833733
42, 0, 0, 0.03096466884016991
43, 0, 0, 0.0001030260173138231
44, 0, 0, 0.006178791169077158
45, 0, 0, 0.001261578057892621
46, 0, 0, 0
47, 0, 0, 0
48, 0, 0, 0
49, 0, 0, 0
50, 0, 0, 33.45192337036133
51, 0, 0, 124.5380249023438
52, 0, 0, 546.3182983398438
53, 0, 0, 1441.99365234375
54, 0, 0, 2999.775146484375
55, 0, 0, 4631.28662109375
56, 0, 0, 5432.57080078125
57, 0, 0, 5392.91455078125
58, 0, 0, 4881.49169921875
59, 0, 0, 4227.09228515625
60, 0, 0, 3712.0419921875
61, 0, 0, 3375.822509765625
62, 0, 0, 3129.9423828125
63, 0, 0, 2927.002685546875
64, 0, 0, 2769.46923828125
65, 0, 0, 2633.079345703125
66, 0, 0, 2521.078125
67, 0, 0, 2414.548828125
68, 0, 0, 2328.99169921875
69, 0, 0, 2256.8271484375
70, 0, 0, 2196.783447265625
71, 0, 0, 2128.006591796875
72, 0, 0, 2071.898193359375
73, 0, 0, 2017.203125
74, 0, 0, 1971.185546875
75, 0, 0, 1929.524536132812
76, 0, 0, 1891.592041015625
77, 0, 0, 1851.75537109375
78, 0, 0, 1807.19873046875
79, 0, 0, 1779.459106445312
80, 0, 0, 1751.914306640625
81, 0, 0, 1723.8076171875
82, 0, 0, 1697.141723632812
83, 0, 0, 1671.433715820312
84, 0, 0, 1637.803344726562
85, 0, 0, 1620.509643554688
86, 0, 0, 1587.109130859375
87, 0, 0, 1573.842163085938
88, 0, 0, 1546.180541992188
89, 0, 0, 1531.994384765625
90, 0, 0, 1515.37890625
91, 0, 0, 1494.6162109375
92, 0, 0, 1474.434814453125
93, 0, 0, 1460.533081054688
94, 0, 0, 1445.518432617188
95, 0, 0, 1436.677612304688
96, 0, 0, 1420.0126953125
97, 0, 0, 1406.19189453125
98, 0, 0, 1390.545043945312
99, 0, 0, 1378.817260742188
100, 0, 0, 1360.848999023438
101, 0, 0, 1347.3359375
102, 0, 0, 1339.792358398438
103, 0, 0, 1327.116333007812
104, 0, 0, 1321.874633789062
105, 0, 0, 1308.093017578125
106, 0, 0, 1292.228759765625
107, 0, 0, 1287.728637695312
108, 0, 0, 1272.086791992188
109, 0, 0, 1257.588500976562
110, 0, 0, 1263.117431640625
111, 0, 0, 1243.314575195312
112, 0, 0, 1238.858764648438
113, 0, 0, 1221.457885742188
114, 0, 0, 1223.582885742188
115, 0, 0, 1210.085693359375
116, 0, 0, 1198.6474609375
117, 0, 0, 1194.197875976562
118, 0, 0, 1185.732788085938
119, 0, 0, 1176.486572265625
120, 0, 0, 1170.493774414062
121, 0, 0, 1165.816040039062
122, 0, 0, 1159.641357421875
123, 0, 0, 1152.814697265625
124, 0, 0, 1143.804809570312
125, 0, 0, 1131.90625
126, 0, 0, 1126.703125
127, 0, 0, 1129.910278320312
128, 0, 0, 1122.36572265625
129, 0, 0, 1115.293701171875
130, 0, 0, 1099.256469726562
131, 0, 0, 1100.4697265625
132, 0, 0, 1095.93505859375
133, 0, 0, 1080.603271484375
134, 0, 0, 1080.098876953125
135, 0, 0, 1079.886596679688
136, 0, 0, 1068.79345703125
137, 0, 0, 1065.167114257812
138, 0, 0, 1064.3759765625
139, 0, 0, 1055.07958984375
140, 0, 0, 1045.797729492188
141, 0, 0, 1052.076171875
142, 0, 0, 1057.117919921875
143, 0, 0, 1045.932983398438
144, 0, 0, 1029.252807617188
145, 0, 0, 1029.030151367188
146, 0, 0, 1024.553344726562
147, 0, 0, 1019.115112304688
148, 0, 0, 1013.487854003906
149, 0, 0, 1004.338439941406
150, 0, 0, 1010.683532714844
151, 0, 0, 1013.65234375
152, 0, 0, 1006.372619628906
153, 0, 0, 999.8550415039062
154, 0, 0, 994.7134399414062
155, 0, 0, 988.3505249023438
156, 0, 0, 999.4183349609375
157, 0, 0, 982.5549926757812
158, 0, 0, 978.3780517578125
159, 0, 0, 976.1454467773438
160, 0, 0, 968.9201049804688
161, 0, 0, 968.4959106445312
162, 0, 0, 962.1936645507812
163, 0, 0, 961.817626953125
164, 0, 0, 962.97900390625
