# TOPAS Version: 3.3.p1
# Parameter File: Test.txt
# Results for scorer MLIC_Scorer
# Scored in component: MLIC
# X in 180 bins of 0.177778 cm
# Y in 1 bin  of 10 cm
# Z in 1 bin  of 10 cm
# EnergyDeposit ( MeV ) : Sum   
0, 0, 0, 0
1, 0, 0, 0
2, 0, 0, 0
3, 0, 0, 0
4, 0, 0, 0
5, 0, 0, 0
6, 0, 0, 0
7, 0, 0, 0
8, 0, 0, 0
9, 0, 0, 0
10, 0, 0, 0
11, 0, 0, 0
12, 0, 0, 0
13, 0, 0, 0
14, 0, 0, 0
15, 0, 0, 0
16, 0, 0, 0
17, 0, 0, 0
18, 0, 0, 0
19, 0, 0, 0
20, 0, 0, 0
21, 0, 0, 0
22, 0, 0, 0
23, 0, 0, 0
24, 0, 0, 0
25, 0, 0, 0
26, 0, 0, 0
27, 0, 0, 0
28, 0, 0, 0
29, 0, 0, 0
30, 0, 0, 0
31, 0, 0, 0
32, 0, 0, 0
33, 0, 0, 0
34, 0, 0, 0
35, 0, 0, 0
36, 0, 0, 0
37, 0, 0, 0
38, 0, 0, 0
39, 0, 0, 0
40, 0, 0, 0
41, 0, 0, 0
42, 0, 0, 0
43, 0, 0, 0
44, 0, 0, 0
45, 0, 0, 0
46, 0, 0, 0
47, 0, 0, 0
48, 0, 0, 0
49, 0, 0, 0
50, 0, 0, 0
51, 0, 0, 0
52, 0, 0, 0
53, 0, 0, 0
54, 0, 0, 0
55, 0, 0, 0
56, 0, 0, 0
57, 0, 0, 0
58, 0, 0, 0
59, 0, 0, 0
60, 0, 0, 0
61, 0, 0, 0
62, 0, 0, 0
63, 0, 0, 0
64, 0, 0, 0
65, 0, 0, 0
66, 0, 0, 0
67, 0, 0, 0
68, 0, 0, 0
69, 0, 0, 0
70, 0, 0, 0
71, 0, 0, 0.007550671231001616
72, 0, 0, 0
73, 0, 0, 0
74, 0, 0, 0
75, 0, 0, 0
76, 0, 0, 0
77, 0, 0, 0
78, 0, 0, 0
79, 0, 0, 0
80, 0, 0, 0
81, 0, 0, 0
82, 0, 0, 0
83, 0, 0, 0
84, 0, 0, 0
85, 0, 0, 0
86, 0, 0, 0
87, 0, 0, 0
88, 0, 0, 0
89, 0, 0, 0
90, 0, 0, 0
91, 0, 0, 0
92, 0, 0, 0
93, 0, 0, 0
94, 0, 0, 0
95, 0, 0, 0
96, 0, 0, 0
97, 0, 0, 0
98, 0, 0, 0
99, 0, 0, 0
100, 0, 0, 0
101, 0, 0, 0
102, 0, 0, 0.06186109036207199
103, 0, 0, 0
104, 0, 0, 8.768276214599609
105, 0, 0, 76.04859924316406
106, 0, 0, 310.7383728027344
107, 0, 0, 1053.156860351562
108, 0, 0, 2119.640869140625
109, 0, 0, 3749.930419921875
110, 0, 0, 4703.22900390625
111, 0, 0, 5043.97607421875
112, 0, 0, 4790.12646484375
113, 0, 0, 4236.69140625
114, 0, 0, 3700.34619140625
115, 0, 0, 3297.560791015625
116, 0, 0, 3034.31103515625
117, 0, 0, 2819.41650390625
118, 0, 0, 2654.733154296875
119, 0, 0, 2520.023193359375
120, 0, 0, 2407.95166015625
121, 0, 0, 2303.65869140625
122, 0, 0, 2226.38134765625
123, 0, 0, 2150.857177734375
124, 0, 0, 2076.32421875
125, 0, 0, 2015.379516601562
126, 0, 0, 1951.471557617188
127, 0, 0, 1911.90087890625
128, 0, 0, 1855.606689453125
129, 0, 0, 1822.152587890625
130, 0, 0, 1784.147705078125
131, 0, 0, 1742.955322265625
132, 0, 0, 1724.342651367188
133, 0, 0, 1683.253051757812
134, 0, 0, 1647.88671875
135, 0, 0, 1619.08642578125
136, 0, 0, 1588.175415039062
137, 0, 0, 1569.078369140625
138, 0, 0, 1538.232055664062
139, 0, 0, 1520.697143554688
140, 0, 0, 1502.48486328125
141, 0, 0, 1480.384521484375
142, 0, 0, 1460.151000976562
143, 0, 0, 1439.4697265625
144, 0, 0, 1423.180541992188
145, 0, 0, 1407.1044921875
146, 0, 0, 1387.793334960938
147, 0, 0, 1368.812377929688
148, 0, 0, 1360.222290039062
149, 0, 0, 1347.971313476562
150, 0, 0, 1335.288330078125
151, 0, 0, 1315.717407226562
152, 0, 0, 1307.437377929688
153, 0, 0, 1291.522216796875
154, 0, 0, 1277.037719726562
155, 0, 0, 1269.253662109375
156, 0, 0, 1256.777954101562
157, 0, 0, 1244.036865234375
158, 0, 0, 1230.879150390625
159, 0, 0, 1219.968017578125
160, 0, 0, 1214.804565429688
161, 0, 0, 1206.405151367188
162, 0, 0, 1196.883178710938
163, 0, 0, 1179.492797851562
164, 0, 0, 1172.407104492188
165, 0, 0, 1160.326416015625
166, 0, 0, 1155.5244140625
167, 0, 0, 1149.623657226562
168, 0, 0, 1138.190551757812
169, 0, 0, 1132.175170898438
170, 0, 0, 1117.604370117188
171, 0, 0, 1111.33544921875
172, 0, 0, 1114.978149414062
173, 0, 0, 1108.354370117188
174, 0, 0, 1095.257202148438
175, 0, 0, 1088.238891601562
176, 0, 0, 1082.780151367188
177, 0, 0, 1073.236206054688
178, 0, 0, 1070.70458984375
179, 0, 0, 1063.878662109375
