# TOPAS Version: 3.3.p1
# Parameter File: Test.txt
# Results for scorer MLIC_Scorer
# Scored in component: MLIC
# X in 180 bins of 0.177778 cm
# Y in 1 bin  of 10 cm
# Z in 1 bin  of 10 cm
# EnergyDeposit ( MeV ) : Sum   
0, 0, 0, 0
1, 0, 0, 0
2, 0, 0, 0
3, 0, 0, 0
4, 0, 0, 0
5, 0, 0, 0
6, 0, 0, 0
7, 0, 0, 0
8, 0, 0, 0
9, 0, 0, 0
10, 0, 0, 0
11, 0, 0, 0
12, 0, 0, 0
13, 0, 0, 0
14, 0, 0, 0
15, 0, 0, 0
16, 0, 0, 0
17, 0, 0, 0
18, 0, 0, 0
19, 0, 0, 0
20, 0, 0, 0
21, 0, 0, 0
22, 0, 0, 0
23, 0, 0, 0
24, 0, 0, 0
25, 0, 0, 0
26, 0, 0, 0
27, 0, 0, 0
28, 0, 0, 0
29, 0, 0, 0
30, 0, 0, 0
31, 0, 0, 0
32, 0, 0, 0
33, 0, 0, 0
34, 0, 0, 0
35, 0, 0, 0
36, 0, 0, 0
37, 0, 0, 0
38, 0, 0, 0
39, 0, 0, 0
40, 0, 0, 0
41, 0, 0, 0
42, 0, 0, 0
43, 0, 0, 0
44, 0, 0, 0
45, 0, 0, 0
46, 0, 0, 0
47, 0, 0, 0
48, 0, 0, 0
49, 0, 0, 0
50, 0, 0, 0
51, 0, 0, 0
52, 0, 0, 0
53, 0, 0, 0
54, 0, 0, 0
55, 0, 0, 0
56, 0, 0, 0
57, 0, 0, 0
58, 0, 0, 0
59, 0, 0, 0
60, 0, 0, 0
61, 0, 0, 0
62, 0, 0, 0
63, 0, 0, 0
64, 0, 0, 0
65, 0, 0, 0
66, 0, 0, 0
67, 0, 0, 0
68, 0, 0, 0
69, 0, 0, 0
70, 0, 0, 0
71, 0, 0, 0
72, 0, 0, 0
73, 0, 0, 0
74, 0, 0, 0
75, 0, 0, 0
76, 0, 0, 0
77, 0, 0, 0
78, 0, 0, 0
79, 0, 0, 0
80, 0, 0, 0
81, 0, 0, 0
82, 0, 0, 0
83, 0, 0, 0
84, 0, 0, 0
85, 0, 0, 0
86, 0, 0, 0.0315263606607914
87, 0, 0, 0.002488241996616125
88, 0, 0, 0
89, 0, 0, 0
90, 0, 0, 0.002061430830508471
91, 0, 0, 0
92, 0, 0, 0
93, 0, 0, 0
94, 0, 0, 0
95, 0, 0, 0
96, 0, 0, 0
97, 0, 0, 0
98, 0, 0, 0
99, 0, 0, 0
100, 0, 0, 0
101, 0, 0, 0
102, 0, 0, 0
103, 0, 0, 0
104, 0, 0, 10.6011962890625
105, 0, 0, 16.96652793884277
106, 0, 0, 47.73191833496094
107, 0, 0, 95.82714080810547
108, 0, 0, 282.3149108886719
109, 0, 0, 344.8408813476562
110, 0, 0, 459.619140625
111, 0, 0, 486.5215148925781
112, 0, 0, 440.8379516601562
113, 0, 0, 369.0790405273438
114, 0, 0, 320.2762756347656
115, 0, 0, 292.6019592285156
116, 0, 0, 267.2394104003906
117, 0, 0, 251.9563598632812
118, 0, 0, 237.8785247802734
119, 0, 0, 226.0409240722656
120, 0, 0, 217.7232055664062
121, 0, 0, 208.7193450927734
122, 0, 0, 202.3542175292969
123, 0, 0, 194.0542755126953
124, 0, 0, 189.3256378173828
125, 0, 0, 183.8511047363281
126, 0, 0, 180.2006530761719
127, 0, 0, 172.8018188476562
128, 0, 0, 170.83056640625
129, 0, 0, 165.8080749511719
130, 0, 0, 165.6864013671875
131, 0, 0, 158.8520812988281
132, 0, 0, 155.5766143798828
133, 0, 0, 154.6381378173828
134, 0, 0, 148.9620513916016
135, 0, 0, 149.1903991699219
136, 0, 0, 143.3576507568359
137, 0, 0, 142.4788055419922
138, 0, 0, 141.9942169189453
139, 0, 0, 138.5295715332031
140, 0, 0, 137.6913757324219
141, 0, 0, 133.7414398193359
142, 0, 0, 132.4008026123047
143, 0, 0, 132.5711975097656
144, 0, 0, 130.91650390625
145, 0, 0, 129.6033020019531
146, 0, 0, 125.1980895996094
147, 0, 0, 127.2199783325195
148, 0, 0, 124.0202560424805
149, 0, 0, 122.2351226806641
150, 0, 0, 122.548469543457
151, 0, 0, 120.7234420776367
152, 0, 0, 119.477424621582
153, 0, 0, 117.2529983520508
154, 0, 0, 115.8167266845703
155, 0, 0, 116.4856033325195
156, 0, 0, 114.3784255981445
157, 0, 0, 113.578239440918
158, 0, 0, 113.9657287597656
159, 0, 0, 113.6402359008789
160, 0, 0, 110.8073348999023
161, 0, 0, 113.3435821533203
162, 0, 0, 108.2951049804688
163, 0, 0, 108.2669677734375
164, 0, 0, 106.7554092407227
165, 0, 0, 105.9707260131836
166, 0, 0, 105.4035263061523
167, 0, 0, 104.5464859008789
168, 0, 0, 105.1484146118164
169, 0, 0, 105.339729309082
170, 0, 0, 105.1321487426758
171, 0, 0, 101.8041458129883
172, 0, 0, 99.74723815917969
173, 0, 0, 99.33841705322266
174, 0, 0, 104.1101837158203
175, 0, 0, 98.61060333251953
176, 0, 0, 100.3218765258789
177, 0, 0, 98.3818359375
178, 0, 0, 98.82617950439453
179, 0, 0, 96.14432525634766
