# TOPAS Version: 3.3.p1
# Parameter File: Test.txt
# Results for scorer MLIC_Scorer
# Scored in component: MLIC
# X in 180 bins of 0.177778 cm
# Y in 1 bin  of 10 cm
# Z in 1 bin  of 10 cm
# EnergyDeposit ( MeV ) : Sum   
0, 0, 0, 0
1, 0, 0, 0
2, 0, 0, 0
3, 0, 0, 0
4, 0, 0, 0
5, 0, 0, 0
6, 0, 0, 0
7, 0, 0, 0
8, 0, 0, 0
9, 0, 0, 0
10, 0, 0, 0
11, 0, 0, 0
12, 0, 0, 0
13, 0, 0, 0
14, 0, 0, 0
15, 0, 0, 0
16, 0, 0, 0
17, 0, 0, 0
18, 0, 0, 0
19, 0, 0, 0
20, 0, 0, 0
21, 0, 0, 0
22, 0, 0, 0
23, 0, 0, 0
24, 0, 0, 0
25, 0, 0, 0
26, 0, 0, 0
27, 0, 0, 0
28, 0, 0, 0
29, 0, 0, 0
30, 0, 0, 0
31, 0, 0, 0
32, 0, 0, 0
33, 0, 0, 0
34, 0, 0, 0
35, 0, 0, 0
36, 0, 0, 0
37, 0, 0, 0
38, 0, 0, 0
39, 0, 0, 0
40, 0, 0, 0
41, 0, 0, 0
42, 0, 0, 0
43, 0, 0, 0
44, 0, 0, 0
45, 0, 0, 0
46, 0, 0, 0
47, 0, 0, 0
48, 0, 0, 0
49, 0, 0, 0
50, 0, 0, 0
51, 0, 0, 0
52, 0, 0, 0
53, 0, 0, 0
54, 0, 0, 2.012469291687012
55, 0, 0, 118.7521820068359
56, 0, 0, 377.0929870605469
57, 0, 0, 1147.552978515625
58, 0, 0, 2276.76611328125
59, 0, 0, 3685.897216796875
60, 0, 0, 4641.41943359375
61, 0, 0, 5046.90576171875
62, 0, 0, 4782.00732421875
63, 0, 0, 4220.35107421875
64, 0, 0, 3696.26416015625
65, 0, 0, 3298.233154296875
66, 0, 0, 3007.583251953125
67, 0, 0, 2815.75390625
68, 0, 0, 2652.077880859375
69, 0, 0, 2511.356201171875
70, 0, 0, 2401.9970703125
71, 0, 0, 2298.972900390625
72, 0, 0, 2224.201171875
73, 0, 0, 2144.8857421875
74, 0, 0, 2072.108154296875
75, 0, 0, 2015.265747070312
76, 0, 0, 1964.909301757812
77, 0, 0, 1908.47216796875
78, 0, 0, 1856.072631835938
79, 0, 0, 1809.564331054688
80, 0, 0, 1781.2412109375
81, 0, 0, 1749.345703125
82, 0, 0, 1712.379028320312
83, 0, 0, 1675.040161132812
84, 0, 0, 1642.4228515625
85, 0, 0, 1616.768432617188
86, 0, 0, 1590.986328125
87, 0, 0, 1571.53173828125
88, 0, 0, 1536.316650390625
89, 0, 0, 1527.532958984375
90, 0, 0, 1499.338500976562
91, 0, 0, 1475.723388671875
92, 0, 0, 1456.780517578125
93, 0, 0, 1438.271118164062
94, 0, 0, 1425.186279296875
95, 0, 0, 1409.765258789062
96, 0, 0, 1386.964477539062
97, 0, 0, 1364.212158203125
98, 0, 0, 1359.585571289062
99, 0, 0, 1345.053344726562
100, 0, 0, 1328.00341796875
101, 0, 0, 1307.854858398438
102, 0, 0, 1301.401611328125
103, 0, 0, 1284.530639648438
104, 0, 0, 1275.51416015625
105, 0, 0, 1273.65283203125
106, 0, 0, 1247.578979492188
107, 0, 0, 1234.567504882812
108, 0, 0, 1239.202270507812
109, 0, 0, 1217.717895507812
110, 0, 0, 1211.524291992188
111, 0, 0, 1201.300048828125
112, 0, 0, 1183.128662109375
113, 0, 0, 1172.74658203125
114, 0, 0, 1172.234375
115, 0, 0, 1161.24658203125
116, 0, 0, 1162.284790039062
117, 0, 0, 1144.744262695312
118, 0, 0, 1141.3857421875
119, 0, 0, 1120.544189453125
120, 0, 0, 1130.134033203125
121, 0, 0, 1116.783447265625
122, 0, 0, 1111.78662109375
123, 0, 0, 1103.082641601562
124, 0, 0, 1101.773681640625
125, 0, 0, 1083.120849609375
126, 0, 0, 1081.3046875
127, 0, 0, 1069.304077148438
128, 0, 0, 1066.192626953125
129, 0, 0, 1068.08447265625
130, 0, 0, 1056.494506835938
131, 0, 0, 1054.626220703125
132, 0, 0, 1047.027954101562
133, 0, 0, 1034.96240234375
134, 0, 0, 1037.066284179688
135, 0, 0, 1030.896606445312
136, 0, 0, 1020.968688964844
137, 0, 0, 1019.956420898438
138, 0, 0, 1013.345031738281
139, 0, 0, 1005.885681152344
140, 0, 0, 1001.225952148438
141, 0, 0, 987.1493530273438
142, 0, 0, 993.5955810546875
143, 0, 0, 991.84716796875
144, 0, 0, 979.275146484375
145, 0, 0, 978.4283447265625
146, 0, 0, 973.5389404296875
147, 0, 0, 970.5091552734375
148, 0, 0, 967.3912963867188
149, 0, 0, 960.1154174804688
150, 0, 0, 953.667236328125
151, 0, 0, 952.4217529296875
152, 0, 0, 948.5955200195312
153, 0, 0, 943.482421875
154, 0, 0, 943.3512573242188
155, 0, 0, 935.6795043945312
156, 0, 0, 932.3757934570312
157, 0, 0, 933.6371459960938
158, 0, 0, 934.2694702148438
159, 0, 0, 924.0238037109375
160, 0, 0, 919.9288940429688
161, 0, 0, 910.0252075195312
162, 0, 0, 921.1972045898438
163, 0, 0, 903.1763305664062
164, 0, 0, 899.5388793945312
165, 0, 0, 896.1840209960938
166, 0, 0, 892.2408447265625
167, 0, 0, 910.0619506835938
168, 0, 0, 888.9876708984375
169, 0, 0, 888.62060546875
170, 0, 0, 884.2286987304688
171, 0, 0, 884.845703125
172, 0, 0, 880.11669921875
173, 0, 0, 878.0225830078125
174, 0, 0, 872.1599731445312
175, 0, 0, 874.0259399414062
176, 0, 0, 865.1995849609375
177, 0, 0, 870.7286987304688
178, 0, 0, 858.4762573242188
179, 0, 0, 861.3662109375
