# TOPAS Version: 3.3.p1
# Parameter File: Test.txt
# Results for scorer MLIC_Scorer
# Scored in component: MLIC
# X in 180 bins of 0.183333 cm
# Y in 1 bin  of 10 cm
# Z in 1 bin  of 10 cm
# EnergyDeposit ( MeV ) : Sum   
0, 0, 0, 0
1, 0, 0, 0
2, 0, 0, 0
3, 0, 0, 0
4, 0, 0, 0
5, 0, 0, 0
6, 0, 0, 0
7, 0, 0, 0
8, 0, 0, 0
9, 0, 0, 0
10, 0, 0, 0
11, 0, 0, 0
12, 0, 0, 0
13, 0, 0, 0
14, 0, 0, 0
15, 0, 0, 0
16, 0, 0, 0
17, 0, 0, 0
18, 0, 0, 0
19, 0, 0, 0
20, 0, 0, 0
21, 0, 0, 0
22, 0, 0, 0
23, 0, 0, 0
24, 0, 0, 0
25, 0, 0, 0
26, 0, 0, 0
27, 0, 0, 0
28, 0, 0, 0
29, 0, 0, 0
30, 0, 0, 0
31, 0, 0, 0
32, 0, 0, 0
33, 0, 0, 0
34, 0, 0, 0
35, 0, 0, 0
36, 0, 0, 0
37, 0, 0, 0
38, 0, 0, 0
39, 0, 0, 0
40, 0, 0, 0
41, 0, 0, 0
42, 0, 0, 0
43, 0, 0, 0
44, 0, 0, 0
45, 0, 0, 0
46, 0, 0, 0
47, 0, 0, 0
48, 0, 0, 0
49, 0, 0, 0
50, 0, 0, 0
51, 0, 0, 0
52, 0, 0, 0
53, 0, 0, 0
54, 0, 0, 0
55, 0, 0, 0
56, 0, 0, 0.002066266955807805
57, 0, 0, 0
58, 0, 0, 0.03025453723967075
59, 0, 0, 0
60, 0, 0, 0
61, 0, 0, 0.004176645074039698
62, 0, 0, 9.576421737670898
63, 0, 0, 78.63715362548828
64, 0, 0, 220.6250762939453
65, 0, 0, 867.878662109375
66, 0, 0, 1915.583129882812
67, 0, 0, 3152.13134765625
68, 0, 0, 4638.01416015625
69, 0, 0, 5059.8994140625
70, 0, 0, 4982.619140625
71, 0, 0, 4418.71923828125
72, 0, 0, 3888.540283203125
73, 0, 0, 3486.021240234375
74, 0, 0, 3157.4189453125
75, 0, 0, 2925.9677734375
76, 0, 0, 2742.57275390625
77, 0, 0, 2588.013916015625
78, 0, 0, 2475.01123046875
79, 0, 0, 2370.40087890625
80, 0, 0, 2279.931396484375
81, 0, 0, 2203.6220703125
82, 0, 0, 2125.708251953125
83, 0, 0, 2076.21826171875
84, 0, 0, 2009.859497070312
85, 0, 0, 1949.60595703125
86, 0, 0, 1907.099609375
87, 0, 0, 1866.829833984375
88, 0, 0, 1824.544189453125
89, 0, 0, 1780.519409179688
90, 0, 0, 1749.657104492188
91, 0, 0, 1710.3974609375
92, 0, 0, 1685.406616210938
93, 0, 0, 1661.276611328125
94, 0, 0, 1627.555297851562
95, 0, 0, 1603.1953125
96, 0, 0, 1580.8564453125
97, 0, 0, 1552.159301757812
98, 0, 0, 1536.697631835938
99, 0, 0, 1513.610229492188
100, 0, 0, 1493.155029296875
101, 0, 0, 1471.885009765625
102, 0, 0, 1450.252319335938
103, 0, 0, 1439.107666015625
104, 0, 0, 1416.786010742188
105, 0, 0, 1405.474853515625
106, 0, 0, 1388.247314453125
107, 0, 0, 1372.887573242188
108, 0, 0, 1352.622192382812
109, 0, 0, 1343.985229492188
110, 0, 0, 1335.1220703125
111, 0, 0, 1314.55224609375
112, 0, 0, 1295.259643554688
113, 0, 0, 1289.363891601562
114, 0, 0, 1280.195922851562
115, 0, 0, 1271.16943359375
116, 0, 0, 1260.981689453125
117, 0, 0, 1238.133544921875
118, 0, 0, 1238.658203125
119, 0, 0, 1231.883544921875
120, 0, 0, 1218.521240234375
121, 0, 0, 1215.90283203125
122, 0, 0, 1199.869995117188
123, 0, 0, 1191.119995117188
124, 0, 0, 1178.052124023438
125, 0, 0, 1164.99072265625
126, 0, 0, 1156.080688476562
127, 0, 0, 1148.768676757812
128, 0, 0, 1146.695068359375
129, 0, 0, 1145.135986328125
130, 0, 0, 1141.2080078125
131, 0, 0, 1121.19970703125
132, 0, 0, 1110.143188476562
133, 0, 0, 1111.283569335938
134, 0, 0, 1109.885864257812
135, 0, 0, 1093.619750976562
136, 0, 0, 1088.880004882812
137, 0, 0, 1084.725708007812
138, 0, 0, 1080.0703125
139, 0, 0, 1070.64453125
140, 0, 0, 1063.810180664062
141, 0, 0, 1052.806030273438
142, 0, 0, 1054.3017578125
143, 0, 0, 1047.194580078125
144, 0, 0, 1043.683227539062
145, 0, 0, 1035.049682617188
146, 0, 0, 1030.350830078125
147, 0, 0, 1027.245361328125
148, 0, 0, 1020.735961914062
149, 0, 0, 1014.60302734375
150, 0, 0, 1019.159118652344
151, 0, 0, 1017.123474121094
152, 0, 0, 995.71728515625
153, 0, 0, 998.3504638671875
154, 0, 0, 993.2732543945312
155, 0, 0, 982.6910400390625
156, 0, 0, 978.5108032226562
157, 0, 0, 989.4793701171875
158, 0, 0, 979.0319213867188
159, 0, 0, 983.1862182617188
160, 0, 0, 974.4732055664062
161, 0, 0, 962.1266479492188
162, 0, 0, 960.00390625
163, 0, 0, 963.4193725585938
164, 0, 0, 950.32861328125
165, 0, 0, 952.1553955078125
166, 0, 0, 941.1734619140625
167, 0, 0, 943.1962890625
168, 0, 0, 935.1871337890625
169, 0, 0, 928.4591064453125
170, 0, 0, 927.7869873046875
171, 0, 0, 933.232666015625
172, 0, 0, 932.6333618164062
173, 0, 0, 915.11767578125
174, 0, 0, 910.3490600585938
175, 0, 0, 913.6491088867188
176, 0, 0, 913.3223266601562
177, 0, 0, 899.57373046875
178, 0, 0, 904.0336303710938
179, 0, 0, 905.6336059570312
