# TOPAS Version: 3.3.p1
# Parameter File: Test.txt
# Results for scorer MLIC_Scorer
# Scored in component: MLIC
# X in 180 bins of 0.177778 cm
# Y in 1 bin  of 10 cm
# Z in 1 bin  of 10 cm
# EnergyDeposit ( MeV ) : Sum   
0, 0, 0, 0
1, 0, 0, 0
2, 0, 0, 0
3, 0, 0, 0
4, 0, 0, 0
5, 0, 0, 0
6, 0, 0, 0
7, 0, 0, 0.04322952777147293
8, 0, 0, 0
9, 0, 0, 0
10, 0, 0, 0
11, 0, 0, 0
12, 0, 0, 0
13, 0, 0, 0
14, 0, 0, 0
15, 0, 0, 0
16, 0, 0, 0.0284322127699852
17, 0, 0, 3.93284010887146
18, 0, 0, 34.97273254394531
19, 0, 0, 135.6632232666016
20, 0, 0, 591.2892456054688
21, 0, 0, 1192.661499023438
22, 0, 0, 2301.020751953125
23, 0, 0, 3803.58740234375
24, 0, 0, 4818.8505859375
25, 0, 0, 5166.4609375
26, 0, 0, 4670.7626953125
27, 0, 0, 4109.8681640625
28, 0, 0, 3626.858154296875
29, 0, 0, 3244.78759765625
30, 0, 0, 2988.644287109375
31, 0, 0, 2792.022705078125
32, 0, 0, 2625.5986328125
33, 0, 0, 2494.7763671875
34, 0, 0, 2386.859130859375
35, 0, 0, 2287.590087890625
36, 0, 0, 2203.563720703125
37, 0, 0, 2135.849609375
38, 0, 0, 2069.283447265625
39, 0, 0, 2004.890991210938
40, 0, 0, 1959.670776367188
41, 0, 0, 1906.920654296875
42, 0, 0, 1855.043823242188
43, 0, 0, 1810.260986328125
44, 0, 0, 1771.592895507812
45, 0, 0, 1734.147827148438
46, 0, 0, 1711.7080078125
47, 0, 0, 1676.413940429688
48, 0, 0, 1642.722778320312
49, 0, 0, 1620.74755859375
50, 0, 0, 1586.37841796875
51, 0, 0, 1566.32421875
52, 0, 0, 1536.7705078125
53, 0, 0, 1517.321655273438
54, 0, 0, 1491.76220703125
55, 0, 0, 1475.977783203125
56, 0, 0, 1455.292846679688
57, 0, 0, 1439.981689453125
58, 0, 0, 1421.930908203125
59, 0, 0, 1406.14697265625
60, 0, 0, 1385.046997070312
61, 0, 0, 1374.854614257812
62, 0, 0, 1359.425170898438
63, 0, 0, 1343.966796875
64, 0, 0, 1331.355834960938
65, 0, 0, 1309.487426757812
66, 0, 0, 1300.891479492188
67, 0, 0, 1282.906860351562
68, 0, 0, 1269.375122070312
69, 0, 0, 1269.12744140625
70, 0, 0, 1256.502807617188
71, 0, 0, 1239.117919921875
72, 0, 0, 1235.861206054688
73, 0, 0, 1219.791381835938
74, 0, 0, 1212.384399414062
75, 0, 0, 1204.575805664062
76, 0, 0, 1194.896484375
77, 0, 0, 1176.472900390625
78, 0, 0, 1170.906127929688
79, 0, 0, 1155.0400390625
80, 0, 0, 1157.322998046875
81, 0, 0, 1139.5927734375
82, 0, 0, 1141.369750976562
83, 0, 0, 1126.337646484375
84, 0, 0, 1130.37158203125
85, 0, 0, 1116.519287109375
86, 0, 0, 1113.150390625
87, 0, 0, 1101.779296875
88, 0, 0, 1099.560546875
89, 0, 0, 1083.993286132812
90, 0, 0, 1082.435913085938
91, 0, 0, 1072.319702148438
92, 0, 0, 1067.871337890625
93, 0, 0, 1052.317626953125
94, 0, 0, 1054.796630859375
95, 0, 0, 1050.646484375
96, 0, 0, 1042.663208007812
97, 0, 0, 1037.7177734375
98, 0, 0, 1030.099243164062
99, 0, 0, 1036.329345703125
100, 0, 0, 1020.973083496094
101, 0, 0, 1022.659912109375
102, 0, 0, 1017.019287109375
103, 0, 0, 1014.402160644531
104, 0, 0, 1002.135375976562
105, 0, 0, 995.6099853515625
106, 0, 0, 990.2272338867188
107, 0, 0, 988.6074829101562
108, 0, 0, 980.9595336914062
109, 0, 0, 980.3373413085938
110, 0, 0, 974.8981323242188
111, 0, 0, 970.0494384765625
112, 0, 0, 957.5174560546875
113, 0, 0, 964.1211547851562
114, 0, 0, 950.8046264648438
115, 0, 0, 956.7161865234375
116, 0, 0, 939.991943359375
117, 0, 0, 939.4203491210938
118, 0, 0, 935.4437255859375
119, 0, 0, 934.6041870117188
120, 0, 0, 932.9716796875
121, 0, 0, 922.115966796875
122, 0, 0, 930.36572265625
123, 0, 0, 921.9729614257812
124, 0, 0, 915.8531494140625
125, 0, 0, 910.2689819335938
126, 0, 0, 917.2435302734375
127, 0, 0, 916.1261596679688
128, 0, 0, 914.8298950195312
129, 0, 0, 901.2593994140625
130, 0, 0, 898.4274291992188
131, 0, 0, 894.80859375
132, 0, 0, 887.6497802734375
133, 0, 0, 889.238037109375
134, 0, 0, 885.838134765625
135, 0, 0, 882.656494140625
136, 0, 0, 879.6724243164062
137, 0, 0, 871.8714599609375
138, 0, 0, 869.8081665039062
139, 0, 0, 872.7415161132812
140, 0, 0, 861.510498046875
141, 0, 0, 858.4547119140625
142, 0, 0, 867.13818359375
143, 0, 0, 846.8186645507812
144, 0, 0, 851.6389770507812
145, 0, 0, 850.8882446289062
146, 0, 0, 856.0104370117188
147, 0, 0, 846.6742553710938
148, 0, 0, 844.4678344726562
149, 0, 0, 836.076904296875
150, 0, 0, 840.5289306640625
151, 0, 0, 841.4392700195312
152, 0, 0, 828.472900390625
153, 0, 0, 836.8369750976562
154, 0, 0, 833.7418212890625
155, 0, 0, 826.8115844726562
156, 0, 0, 831.9641723632812
157, 0, 0, 822.0245971679688
158, 0, 0, 817.845703125
159, 0, 0, 823.7990112304688
160, 0, 0, 816.1126708984375
161, 0, 0, 820.3154907226562
162, 0, 0, 802.0364990234375
163, 0, 0, 810.5970458984375
164, 0, 0, 809.3126831054688
165, 0, 0, 801.6439208984375
166, 0, 0, 799.0549926757812
167, 0, 0, 792.3583374023438
168, 0, 0, 801.5917358398438
169, 0, 0, 801.1190795898438
170, 0, 0, 788.6445922851562
171, 0, 0, 798.1134643554688
172, 0, 0, 803.301025390625
173, 0, 0, 786.0902709960938
174, 0, 0, 787.3560791015625
175, 0, 0, 793.9181518554688
176, 0, 0, 784.955078125
177, 0, 0, 784.18994140625
178, 0, 0, 772.8905639648438
179, 0, 0, 777.8500366210938
