# TOPAS Version: 3.3.p1
# Parameter File: Test.txt
# Results for scorer MLIC_Scorer
# Scored in component: MLIC
# X in 180 bins of 0.177778 cm
# Y in 1 bin  of 10 cm
# Z in 1 bin  of 10 cm
# EnergyDeposit ( MeV ) : Sum   
0, 0, 0, 0
1, 0, 0, 0
2, 0, 0, 0
3, 0, 0, 0
4, 0, 0, 0
5, 0, 0, 0
6, 0, 0, 0
7, 0, 0, 0
8, 0, 0, 0
9, 0, 0, 0
10, 0, 0, 0
11, 0, 0, 0
12, 0, 0, 0
13, 0, 0, 0
14, 0, 0, 0
15, 0, 0, 0
16, 0, 0, 0
17, 0, 0, 0
18, 0, 0, 0
19, 0, 0, 0
20, 0, 0, 0
21, 0, 0, 0
22, 0, 0, 0.0004760926531162113
23, 0, 0, 0
24, 0, 0, 0
25, 0, 0, 0
26, 0, 0, 0
27, 0, 0, 0.001908545498736203
28, 0, 0, 0
29, 0, 0, 0
30, 0, 0, 0
31, 0, 0, 0
32, 0, 0, 0
33, 0, 0, 0
34, 0, 0, 0
35, 0, 0, 0
36, 0, 0, 0.01150450203567743
37, 0, 0, 0
38, 0, 0, 0.0006831996724940836
39, 0, 0, 0
40, 0, 0, 0
41, 0, 0, 0
42, 0, 0, 0
43, 0, 0, 0.002896972466260195
44, 0, 0, 0
45, 0, 0, 0
46, 0, 0, 0
47, 0, 0, 0
48, 0, 0, 22.34582138061523
49, 0, 0, 30.59644508361816
50, 0, 0, 97.05609130859375
51, 0, 0, 393.1235046386719
52, 0, 0, 1139.803833007812
53, 0, 0, 2277.894775390625
54, 0, 0, 3651.620849609375
55, 0, 0, 4783.50244140625
56, 0, 0, 5107.9462890625
57, 0, 0, 4756.224609375
58, 0, 0, 4174.38623046875
59, 0, 0, 3681.77197265625
60, 0, 0, 3279.837646484375
61, 0, 0, 2994.93505859375
62, 0, 0, 2810.864013671875
63, 0, 0, 2633.5576171875
64, 0, 0, 2505.62548828125
65, 0, 0, 2400.304443359375
66, 0, 0, 2302.52587890625
67, 0, 0, 2216.567626953125
68, 0, 0, 2140.69873046875
69, 0, 0, 2070.059814453125
70, 0, 0, 2011.774047851562
71, 0, 0, 1948.925048828125
72, 0, 0, 1904.136840820312
73, 0, 0, 1859.073486328125
74, 0, 0, 1816.036010742188
75, 0, 0, 1779.719604492188
76, 0, 0, 1739.990844726562
77, 0, 0, 1710.637939453125
78, 0, 0, 1676.544555664062
79, 0, 0, 1646.061645507812
80, 0, 0, 1615.853759765625
81, 0, 0, 1587.578735351562
82, 0, 0, 1558.859619140625
83, 0, 0, 1538.007934570312
84, 0, 0, 1521.576416015625
85, 0, 0, 1502.986450195312
86, 0, 0, 1471.13427734375
87, 0, 0, 1461.158203125
88, 0, 0, 1439.3349609375
89, 0, 0, 1418.01416015625
90, 0, 0, 1401.775756835938
91, 0, 0, 1389.41943359375
92, 0, 0, 1375.287719726562
93, 0, 0, 1360.956420898438
94, 0, 0, 1346.011352539062
95, 0, 0, 1322.819702148438
96, 0, 0, 1317.228271484375
97, 0, 0, 1303.317016601562
98, 0, 0, 1288.052001953125
99, 0, 0, 1280.608154296875
100, 0, 0, 1260.543334960938
101, 0, 0, 1249.63330078125
102, 0, 0, 1237.998046875
103, 0, 0, 1228.876342773438
104, 0, 0, 1226.208862304688
105, 0, 0, 1208.812255859375
106, 0, 0, 1199
107, 0, 0, 1193.036254882812
108, 0, 0, 1181.697509765625
109, 0, 0, 1169.682373046875
110, 0, 0, 1163.39404296875
111, 0, 0, 1159.564697265625
112, 0, 0, 1144.223999023438
113, 0, 0, 1145.147827148438
114, 0, 0, 1133.82080078125
115, 0, 0, 1126.6337890625
116, 0, 0, 1117.829345703125
117, 0, 0, 1116.635131835938
118, 0, 0, 1102.313232421875
119, 0, 0, 1092.929077148438
120, 0, 0, 1092.94775390625
121, 0, 0, 1075.654296875
122, 0, 0, 1075.589965820312
123, 0, 0, 1062.896484375
124, 0, 0, 1060.133178710938
125, 0, 0, 1054.153686523438
126, 0, 0, 1045.454223632812
127, 0, 0, 1054.517944335938
128, 0, 0, 1036.173461914062
129, 0, 0, 1032.127197265625
130, 0, 0, 1036.623046875
131, 0, 0, 1021.534057617188
132, 0, 0, 1012.114929199219
133, 0, 0, 1010.681518554688
134, 0, 0, 1010.166076660156
135, 0, 0, 999.4523315429688
136, 0, 0, 989.933837890625
137, 0, 0, 990.4514770507812
138, 0, 0, 989.0453491210938
139, 0, 0, 987.3079833984375
140, 0, 0, 982.2080078125
141, 0, 0, 980.047607421875
142, 0, 0, 963.8695068359375
143, 0, 0, 954.9859619140625
144, 0, 0, 961.9872436523438
145, 0, 0, 955.5438232421875
146, 0, 0, 960.1477661132812
147, 0, 0, 944.5430908203125
148, 0, 0, 941.2770385742188
149, 0, 0, 940.2931518554688
150, 0, 0, 930.114501953125
151, 0, 0, 928.5006103515625
152, 0, 0, 931.159423828125
153, 0, 0, 925.085205078125
154, 0, 0, 915.8109741210938
155, 0, 0, 916.3065795898438
156, 0, 0, 925.82421875
157, 0, 0, 917.806396484375
158, 0, 0, 911.7510986328125
159, 0, 0, 905.3812255859375
160, 0, 0, 901.3031005859375
161, 0, 0, 906.8603515625
162, 0, 0, 897.3902587890625
163, 0, 0, 886.468505859375
164, 0, 0, 885.1526489257812
165, 0, 0, 884.8953247070312
166, 0, 0, 878.5547485351562
167, 0, 0, 875.7219848632812
168, 0, 0, 873.5764770507812
169, 0, 0, 875.1782836914062
170, 0, 0, 873.3531494140625
171, 0, 0, 873.3001708984375
172, 0, 0, 858.1021728515625
173, 0, 0, 851.5958251953125
174, 0, 0, 859.4660034179688
175, 0, 0, 859.8367919921875
176, 0, 0, 858.9127807617188
177, 0, 0, 854.1524047851562
178, 0, 0, 852.1513061523438
179, 0, 0, 849.5298461914062
