# TOPAS Version: 3.3.p1
# Parameter File: Test.txt
# Results for scorer MLIC_Scorer
# Scored in component: MLIC
# X in 180 bins of 0.177778 cm
# Y in 1 bin  of 10 cm
# Z in 1 bin  of 10 cm
# EnergyDeposit ( MeV ) : Sum   
0, 0, 0, 0
1, 0, 0, 0
2, 0, 0, 0
3, 0, 0, 0
4, 0, 0, 0
5, 0, 0, 0
6, 0, 0, 0
7, 0, 0, 0
8, 0, 0, 0
9, 0, 0, 0
10, 0, 0, 0
11, 0, 0, 0
12, 0, 0, 0
13, 0, 0, 0
14, 0, 0, 0
15, 0, 0, 0
16, 0, 0, 0
17, 0, 0, 0
18, 0, 0, 0
19, 0, 0, 0
20, 0, 0, 0
21, 0, 0, 0
22, 0, 0, 0
23, 0, 0, 0
24, 0, 0, 0
25, 0, 0, 0
26, 0, 0, 0
27, 0, 0, 0
28, 0, 0, 0
29, 0, 0, 0
30, 0, 0, 0
31, 0, 0, 0
32, 0, 0, 0
33, 0, 0, 0
34, 0, 0, 0
35, 0, 0, 0
36, 0, 0, 0
37, 0, 0, 0
38, 0, 0, 0
39, 0, 0, 0
40, 0, 0, 0
41, 0, 0, 0
42, 0, 0, 0
43, 0, 0, 0
44, 0, 0, 0
45, 0, 0, 0
46, 0, 0, 0
47, 0, 0, 0
48, 0, 0, 0
49, 0, 0, 0
50, 0, 0, 0
51, 0, 0, 0
52, 0, 0, 0
53, 0, 0, 0
54, 0, 0, 0
55, 0, 0, 0
56, 0, 0, 0
57, 0, 0, 0
58, 0, 0, 0
59, 0, 0, 0
60, 0, 0, 0
61, 0, 0, 0
62, 0, 0, 0
63, 0, 0, 0
64, 0, 0, 0
65, 0, 0, 0
66, 0, 0, 0
67, 0, 0, 0
68, 0, 0, 0
69, 0, 0, 0
70, 0, 0, 0
71, 0, 0, 0
72, 0, 0, 0
73, 0, 0, 0
74, 0, 0, 0
75, 0, 0, 0
76, 0, 0, 0
77, 0, 0, 0
78, 0, 0, 0
79, 0, 0, 0
80, 0, 0, 0
81, 0, 0, 0
82, 0, 0, 0
83, 0, 0, 0
84, 0, 0, 0
85, 0, 0, 0
86, 0, 0, 0
87, 0, 0, 0
88, 0, 0, 0
89, 0, 0, 0
90, 0, 0, 0
91, 0, 0, 0
92, 0, 0, 0
93, 0, 0, 0
94, 0, 0, 0
95, 0, 0, 0
96, 0, 0, 0
97, 0, 0, 0
98, 0, 0, 0
99, 0, 0, 0
100, 0, 0, 0
101, 0, 0, 0
102, 0, 0, 0
103, 0, 0, 0
104, 0, 0, 0
105, 0, 0, 0
106, 0, 0, 0
107, 0, 0, 0
108, 0, 0, 0
109, 0, 0, 0
110, 0, 0, 0
111, 0, 0, 0
112, 0, 0, 0
113, 0, 0, 0
114, 0, 0, 0
115, 0, 0, 0
116, 0, 0, 0
117, 0, 0, 0
118, 0, 0, 0
119, 0, 0, 0
120, 0, 0, 0
121, 0, 0, 0
122, 0, 0, 0
123, 0, 0, 0
124, 0, 0, 0
125, 0, 0, 0
126, 0, 0, 0
127, 0, 0, 0
128, 0, 0, 0
129, 0, 0, 0
130, 0, 0, 0.02741912566125393
131, 0, 0, 0
132, 0, 0, 0
133, 0, 0, 0
134, 0, 0, 0
135, 0, 0, 0
136, 0, 0, 16.65795516967773
137, 0, 0, 217.5998382568359
138, 0, 0, 730.5994262695312
139, 0, 0, 1757.334716796875
140, 0, 0, 3146.8583984375
141, 0, 0, 4381.109375
142, 0, 0, 5141.13525390625
143, 0, 0, 4850.47509765625
144, 0, 0, 4465.91796875
145, 0, 0, 3855.58642578125
146, 0, 0, 3440.08349609375
147, 0, 0, 3112.730224609375
148, 0, 0, 2891.599609375
149, 0, 0, 2705.91650390625
150, 0, 0, 2556.092041015625
151, 0, 0, 2446.720947265625
152, 0, 0, 2339.700439453125
153, 0, 0, 2252.343994140625
154, 0, 0, 2165.751708984375
155, 0, 0, 2098.152587890625
156, 0, 0, 2036.860473632812
157, 0, 0, 1978.682250976562
158, 0, 0, 1926.538940429688
159, 0, 0, 1876.534912109375
160, 0, 0, 1836.720336914062
161, 0, 0, 1801.860717773438
162, 0, 0, 1755.90576171875
163, 0, 0, 1722.400756835938
164, 0, 0, 1686.296142578125
165, 0, 0, 1661.734252929688
166, 0, 0, 1632.601806640625
167, 0, 0, 1599.167114257812
168, 0, 0, 1577.477172851562
169, 0, 0, 1549.284423828125
170, 0, 0, 1528.198852539062
171, 0, 0, 1511.914672851562
172, 0, 0, 1481.570556640625
173, 0, 0, 1465.250610351562
174, 0, 0, 1446.875
175, 0, 0, 1427.709838867188
176, 0, 0, 1411.004150390625
177, 0, 0, 1390.334106445312
178, 0, 0, 1376.114624023438
179, 0, 0, 1364.653076171875
