# TOPAS Version: 3.3.p1
# Parameter File: Test.txt
# Results for scorer MLIC_Scorer
# Scored in component: MLIC
# X in 180 bins of 0.183333 cm
# Y in 1 bin  of 10 cm
# Z in 1 bin  of 10 cm
# EnergyDeposit ( MeV ) : Sum   
0, 0, 0, 0
1, 0, 0, 0
2, 0, 0, 0
3, 0, 0, 0
4, 0, 0, 0
5, 0, 0, 0
6, 0, 0, 0
7, 0, 0, 0
8, 0, 0, 0
9, 0, 0, 0
10, 0, 0, 0
11, 0, 0, 0
12, 0, 0, 0
13, 0, 0, 0
14, 0, 0, 0
15, 0, 0, 0
16, 0, 0, 0
17, 0, 0, 0
18, 0, 0, 0
19, 0, 0, 0
20, 0, 0, 0
21, 0, 0, 0
22, 0, 0, 0
23, 0, 0, 0
24, 0, 0, 0
25, 0, 0, 0
26, 0, 0, 0
27, 0, 0, 0
28, 0, 0, 0
29, 0, 0, 0
30, 0, 0, 0
31, 0, 0, 0
32, 0, 0, 0
33, 0, 0, 0
34, 0, 0, 0
35, 0, 0, 0
36, 0, 0, 0
37, 0, 0, 0
38, 0, 0, 0
39, 0, 0, 0
40, 0, 0, 0
41, 0, 0, 0
42, 0, 0, 0
43, 0, 0, 0
44, 0, 0, 0
45, 0, 0, 0
46, 0, 0, 0
47, 0, 0, 0
48, 0, 0, 0
49, 0, 0, 0
50, 0, 0, 0
51, 0, 0, 0
52, 0, 0, 0
53, 0, 0, 0
54, 0, 0, 0
55, 0, 0, 0
56, 0, 0, 0
57, 0, 0, 0
58, 0, 0, 0
59, 0, 0, 0
60, 0, 0, 0
61, 0, 0, 0
62, 0, 0, 0
63, 0, 0, 0
64, 0, 0, 0
65, 0, 0, 0
66, 0, 0, 0
67, 0, 0, 0
68, 0, 0, 0
69, 0, 0, 0
70, 0, 0, 0
71, 0, 0, 0
72, 0, 0, 0
73, 0, 0, 0
74, 0, 0, 0
75, 0, 0, 0
76, 0, 0, 0
77, 0, 0, 0
78, 0, 0, 0
79, 0, 0, 0.02243541926145554
80, 0, 0, 0
81, 0, 0, 0
82, 0, 0, 0
83, 0, 0, 0
84, 0, 0, 0
85, 0, 0, 0
86, 0, 0, 0
87, 0, 0, 0
88, 0, 0, 0
89, 0, 0, 0
90, 0, 0, 0
91, 0, 0, 0
92, 0, 0, 0
93, 0, 0, 0
94, 0, 0, 0
95, 0, 0, 0
96, 0, 0, 0
97, 0, 0, 0
98, 0, 0, 0
99, 0, 0, 0
100, 0, 0, 0
101, 0, 0, 0
102, 0, 0, 0
103, 0, 0, 0
104, 0, 0, 0
105, 0, 0, 0
106, 0, 0, 0
107, 0, 0, 0
108, 0, 0, 0
109, 0, 0, 0
110, 0, 0, 0
111, 0, 0, 0
112, 0, 0, 0
113, 0, 0, 0
114, 0, 0, 0
115, 0, 0, 0
116, 0, 0, 0
117, 0, 0, 0
118, 0, 0, 0
119, 0, 0, 0
120, 0, 0, 0
121, 0, 0, 0
122, 0, 0, 0
123, 0, 0, 0
124, 0, 0, 0
125, 0, 0, 0
126, 0, 0, 0
127, 0, 0, 0
128, 0, 0, 0
129, 0, 0, 0
130, 0, 0, 0
131, 0, 0, 0.03111006319522858
132, 0, 0, 0
133, 0, 0, 0
134, 0, 0, 0
135, 0, 0, 0
136, 0, 0, 0.001438024803064764
137, 0, 0, 0
138, 0, 0, 0.008255609311163425
139, 0, 0, 0
140, 0, 0, 0
141, 0, 0, 0.00471073854714632
142, 0, 0, 0.01863076351583004
143, 0, 0, 0.0478765033185482
144, 0, 0, 0
145, 0, 0, 0
146, 0, 0, 51.54936218261719
147, 0, 0, 176.2517700195312
148, 0, 0, 613.5701904296875
149, 0, 0, 1772.14013671875
150, 0, 0, 3176.800048828125
151, 0, 0, 4516.1455078125
152, 0, 0, 5359.076171875
153, 0, 0, 5027.49560546875
154, 0, 0, 4456.79833984375
155, 0, 0, 3914.51220703125
156, 0, 0, 3493.934814453125
157, 0, 0, 3162.583740234375
158, 0, 0, 2927.021240234375
159, 0, 0, 2751.86083984375
160, 0, 0, 2598.778564453125
161, 0, 0, 2481.061767578125
162, 0, 0, 2381.93310546875
163, 0, 0, 2279.194580078125
164, 0, 0, 2203.447509765625
165, 0, 0, 2134.3193359375
166, 0, 0, 2065.498779296875
167, 0, 0, 2014.327270507812
168, 0, 0, 1963.476196289062
169, 0, 0, 1916.743041992188
170, 0, 0, 1866.270141601562
171, 0, 0, 1834.1640625
172, 0, 0, 1786.37109375
173, 0, 0, 1754.45654296875
174, 0, 0, 1721.784912109375
175, 0, 0, 1692.090209960938
176, 0, 0, 1664.85595703125
177, 0, 0, 1635.198974609375
178, 0, 0, 1604.556884765625
179, 0, 0, 1576.5380859375
