# TOPAS Version: 3.3.p1
# Parameter File: Test.txt
# Results for scorer MLIC_Scorer
# Scored in component: MLIC
# X in 180 bins of 0.183333 cm
# Y in 1 bin  of 10 cm
# Z in 1 bin  of 10 cm
# EnergyDeposit ( MeV ) : Sum   
0, 0, 0, 0
1, 0, 0, 0
2, 0, 0, 0
3, 0, 0, 0
4, 0, 0, 0
5, 0, 0, 0
6, 0, 0, 0
7, 0, 0, 0
8, 0, 0, 0
9, 0, 0, 0
10, 0, 0, 0
11, 0, 0, 0
12, 0, 0, 0
13, 0, 0, 0
14, 0, 0, 0
15, 0, 0, 0
16, 0, 0, 0
17, 0, 0, 0
18, 0, 0, 0
19, 0, 0, 0
20, 0, 0, 0
21, 0, 0, 0
22, 0, 0, 0
23, 0, 0, 0
24, 0, 0, 0
25, 0, 0, 0
26, 0, 0, 0
27, 0, 0, 0
28, 0, 0, 0
29, 0, 0, 0
30, 0, 0, 0
31, 0, 0, 0
32, 0, 0, 0
33, 0, 0, 0
34, 0, 0, 0
35, 0, 0, 0
36, 0, 0, 0
37, 0, 0, 0
38, 0, 0, 0
39, 0, 0, 0
40, 0, 0, 0
41, 0, 0, 0
42, 0, 0, 0
43, 0, 0, 0
44, 0, 0, 0
45, 0, 0, 0
46, 0, 0, 0
47, 0, 0, 0
48, 0, 0, 0
49, 0, 0, 0
50, 0, 0, 0
51, 0, 0, 0.05139132961630821
52, 0, 0, 0
53, 0, 0, 0
54, 0, 0, 0
55, 0, 0, 0
56, 0, 0, 0
57, 0, 0, 0
58, 0, 0, 0
59, 0, 0, 0
60, 0, 0, 0
61, 0, 0, 0
62, 0, 0, 0
63, 0, 0, 0
64, 0, 0, 0
65, 0, 0, 0
66, 0, 0, 0
67, 0, 0, 0
68, 0, 0, 0
69, 0, 0, 0
70, 0, 0, 0
71, 0, 0, 0
72, 0, 0, 0
73, 0, 0, 0
74, 0, 0, 0
75, 0, 0, 0
76, 0, 0, 0
77, 0, 0, 0
78, 0, 0, 0
79, 0, 0, 0
80, 0, 0, 0
81, 0, 0, 0
82, 0, 0, 0
83, 0, 0, 0
84, 0, 0, 0
85, 0, 0, 28.7967529296875
86, 0, 0, 71.51153564453125
87, 0, 0, 205.8586120605469
88, 0, 0, 730.2742919921875
89, 0, 0, 1866.916625976562
90, 0, 0, 3396.907470703125
91, 0, 0, 4522.103515625
92, 0, 0, 5139.5234375
93, 0, 0, 4943.2490234375
94, 0, 0, 4531.98779296875
95, 0, 0, 3891.487060546875
96, 0, 0, 3465.484375
97, 0, 0, 3160.716796875
98, 0, 0, 2927.971923828125
99, 0, 0, 2741.400634765625
100, 0, 0, 2599.274169921875
101, 0, 0, 2474.320068359375
102, 0, 0, 2365.705810546875
103, 0, 0, 2278.3681640625
104, 0, 0, 2202.509765625
105, 0, 0, 2131.323974609375
106, 0, 0, 2075.173583984375
107, 0, 0, 2010.31787109375
108, 0, 0, 1955.846069335938
109, 0, 0, 1906.280395507812
110, 0, 0, 1868.570922851562
111, 0, 0, 1825.52880859375
112, 0, 0, 1783.483764648438
113, 0, 0, 1749.1982421875
114, 0, 0, 1717.3525390625
115, 0, 0, 1696.019653320312
116, 0, 0, 1658.118286132812
117, 0, 0, 1631.945068359375
118, 0, 0, 1602.7890625
119, 0, 0, 1576.724975585938
120, 0, 0, 1551.995483398438
121, 0, 0, 1528.922607421875
122, 0, 0, 1510.6220703125
123, 0, 0, 1492.6416015625
124, 0, 0, 1475.112060546875
125, 0, 0, 1450.59765625
126, 0, 0, 1430.864379882812
127, 0, 0, 1421.592163085938
128, 0, 0, 1410.326416015625
129, 0, 0, 1382.9892578125
130, 0, 0, 1375.353149414062
131, 0, 0, 1354.006469726562
132, 0, 0, 1337.39111328125
133, 0, 0, 1327.677856445312
134, 0, 0, 1326.6396484375
135, 0, 0, 1300.5478515625
136, 0, 0, 1291.925903320312
137, 0, 0, 1279.161499023438
138, 0, 0, 1262.878051757812
139, 0, 0, 1258.132202148438
140, 0, 0, 1246.583129882812
141, 0, 0, 1236.794311523438
142, 0, 0, 1225.9580078125
143, 0, 0, 1207.120361328125
144, 0, 0, 1208.412841796875
145, 0, 0, 1197.273193359375
146, 0, 0, 1182.369018554688
147, 0, 0, 1176.59521484375
148, 0, 0, 1172.226928710938
149, 0, 0, 1165.95068359375
150, 0, 0, 1147.88720703125
151, 0, 0, 1145.68798828125
152, 0, 0, 1148.5908203125
153, 0, 0, 1129.177490234375
154, 0, 0, 1119.005126953125
155, 0, 0, 1121.697143554688
156, 0, 0, 1111.732788085938
157, 0, 0, 1118.995849609375
158, 0, 0, 1102.538452148438
159, 0, 0, 1092.894165039062
160, 0, 0, 1079.38037109375
161, 0, 0, 1082.216918945312
162, 0, 0, 1081.752685546875
163, 0, 0, 1064.336791992188
164, 0, 0, 1058.739013671875
165, 0, 0, 1054.805908203125
166, 0, 0, 1047.853759765625
167, 0, 0, 1044.005859375
168, 0, 0, 1043.723754882812
169, 0, 0, 1034.654663085938
170, 0, 0, 1027.037475585938
171, 0, 0, 1015.771362304688
172, 0, 0, 1022.157775878906
173, 0, 0, 1014.632568359375
174, 0, 0, 1010.761779785156
175, 0, 0, 998.5814208984375
176, 0, 0, 996.078369140625
177, 0, 0, 993.3204956054688
178, 0, 0, 989.3513793945312
179, 0, 0, 985.2177734375
