# TOPAS Version: 3.3.p1
# Parameter File: Test.txt
# Results for scorer MLIC_Scorer
# Scored in component: MLIC
# X in 180 bins of 0.177778 cm
# Y in 1 bin  of 10 cm
# Z in 1 bin  of 10 cm
# EnergyDeposit ( MeV ) : Sum   
0, 0, 0, 0
1, 0, 0, 0
2, 0, 0, 0
3, 0, 0, 0
4, 0, 0, 0
5, 0, 0, 0
6, 0, 0, 0
7, 0, 0, 0
8, 0, 0, 0
9, 0, 0, 0
10, 0, 0, 0
11, 0, 0, 0
12, 0, 0, 0
13, 0, 0, 0
14, 0, 0, 0
15, 0, 0, 0
16, 0, 0, 0
17, 0, 0, 0
18, 0, 0, 0
19, 0, 0, 0
20, 0, 0, 0
21, 0, 0, 0
22, 0, 0, 0
23, 0, 0, 0
24, 0, 0, 0
25, 0, 0, 0
26, 0, 0, 0
27, 0, 0, 0
28, 0, 0, 0
29, 0, 0, 0
30, 0, 0, 0
31, 0, 0, 0
32, 0, 0, 0
33, 0, 0, 0
34, 0, 0, 0
35, 0, 0, 0
36, 0, 0, 0
37, 0, 0, 0
38, 0, 0, 0
39, 0, 0, 0
40, 0, 0, 0
41, 0, 0, 0
42, 0, 0, 0
43, 0, 0, 0
44, 0, 0, 0
45, 0, 0, 0
46, 0, 0, 0
47, 0, 0, 0
48, 0, 0, 0
49, 0, 0, 0
50, 0, 0, 0
51, 0, 0, 0
52, 0, 0, 0
53, 0, 0, 0
54, 0, 0, 0
55, 0, 0, 0
56, 0, 0, 0
57, 0, 0, 0
58, 0, 0, 0
59, 0, 0, 0
60, 0, 0, 0
61, 0, 0, 0
62, 0, 0, 0
63, 0, 0, 0
64, 0, 0, 0
65, 0, 0, 0
66, 0, 0, 0
67, 0, 0, 0.002223812742158771
68, 0, 0, 0
69, 0, 0, 0
70, 0, 0, 0
71, 0, 0, 0
72, 0, 0, 0
73, 0, 0, 0
74, 0, 0, 0
75, 0, 0, 7.503818988800049
76, 0, 0, 29.09521102905273
77, 0, 0, 210.9239044189453
78, 0, 0, 1005.751892089844
79, 0, 0, 2206.784423828125
80, 0, 0, 3379.81298828125
81, 0, 0, 4544.91796875
82, 0, 0, 4924.92724609375
83, 0, 0, 4900.216796875
84, 0, 0, 4375.9541015625
85, 0, 0, 3751.885986328125
86, 0, 0, 3368.353271484375
87, 0, 0, 3062.262451171875
88, 0, 0, 2851.801513671875
89, 0, 0, 2667.666748046875
90, 0, 0, 2533.853515625
91, 0, 0, 2418.782470703125
92, 0, 0, 2316.900634765625
93, 0, 0, 2237.76611328125
94, 0, 0, 2154.986572265625
95, 0, 0, 2087.9970703125
96, 0, 0, 2031.834350585938
97, 0, 0, 1963.660888671875
98, 0, 0, 1908.435424804688
99, 0, 0, 1872.49658203125
100, 0, 0, 1828.048217773438
101, 0, 0, 1786.165893554688
102, 0, 0, 1757.463134765625
103, 0, 0, 1715.215698242188
104, 0, 0, 1684.8505859375
105, 0, 0, 1649.72998046875
106, 0, 0, 1615.440795898438
107, 0, 0, 1594.578247070312
108, 0, 0, 1570.036865234375
109, 0, 0, 1544.277587890625
110, 0, 0, 1524.284912109375
111, 0, 0, 1499.343627929688
112, 0, 0, 1477.519165039062
113, 0, 0, 1462.440063476562
114, 0, 0, 1441.242553710938
115, 0, 0, 1425.835327148438
116, 0, 0, 1407.17724609375
117, 0, 0, 1391.074584960938
118, 0, 0, 1375.288208007812
119, 0, 0, 1357.954956054688
120, 0, 0, 1345.62255859375
121, 0, 0, 1333.325317382812
122, 0, 0, 1320.23779296875
123, 0, 0, 1310.193115234375
124, 0, 0, 1293.533325195312
125, 0, 0, 1280.473999023438
126, 0, 0, 1265.174926757812
127, 0, 0, 1261.000732421875
128, 0, 0, 1244.29345703125
129, 0, 0, 1233.25390625
130, 0, 0, 1224.329467773438
131, 0, 0, 1208.454956054688
132, 0, 0, 1204.327758789062
133, 0, 0, 1190.703735351562
134, 0, 0, 1186.173950195312
135, 0, 0, 1175.252197265625
136, 0, 0, 1161.63232421875
137, 0, 0, 1157.178344726562
138, 0, 0, 1152.790771484375
139, 0, 0, 1144.861206054688
140, 0, 0, 1128.731079101562
141, 0, 0, 1124.873657226562
142, 0, 0, 1120.455444335938
143, 0, 0, 1116.00390625
144, 0, 0, 1102.131713867188
145, 0, 0, 1094.4189453125
146, 0, 0, 1095.356811523438
147, 0, 0, 1076.016967773438
148, 0, 0, 1081.5146484375
149, 0, 0, 1071.687866210938
150, 0, 0, 1061.379516601562
151, 0, 0, 1056.379272460938
152, 0, 0, 1049.603271484375
153, 0, 0, 1041.229370117188
154, 0, 0, 1036.936279296875
155, 0, 0, 1038.670654296875
156, 0, 0, 1023.715698242188
157, 0, 0, 1029.128051757812
158, 0, 0, 1014.879516601562
159, 0, 0, 1012.382080078125
160, 0, 0, 1005.165954589844
161, 0, 0, 1004.25146484375
162, 0, 0, 994.4069213867188
163, 0, 0, 990.3816528320312
164, 0, 0, 991.5628051757812
165, 0, 0, 979.9371948242188
166, 0, 0, 985.44384765625
167, 0, 0, 980.277099609375
168, 0, 0, 974.3818969726562
169, 0, 0, 961.87255859375
170, 0, 0, 964.5423583984375
171, 0, 0, 958.4308471679688
172, 0, 0, 953.2850341796875
173, 0, 0, 950.98779296875
174, 0, 0, 946.3727416992188
175, 0, 0, 943.1443481445312
176, 0, 0, 941.3184814453125
177, 0, 0, 940.298828125
178, 0, 0, 933.4241943359375
179, 0, 0, 927.606201171875
