# TOPAS Version: 3.3.p1
# Parameter File: Test.txt
# Results for scorer MLIC_Scorer
# Scored in component: MLIC
# X in 180 bins of 0.183333 cm
# Y in 1 bin  of 10 cm
# Z in 1 bin  of 10 cm
# EnergyDeposit ( MeV ) : Sum   
0, 0, 0, 0
1, 0, 0, 0
2, 0, 0, 0
3, 0, 0, 0
4, 0, 0, 0
5, 0, 0, 0
6, 0, 0, 0
7, 0, 0, 0
8, 0, 0, 0
9, 0, 0, 0
10, 0, 0, 0.004077387508004904
11, 0, 0, 0
12, 0, 0, 0
13, 0, 0, 0.005628874991089106
14, 0, 0, 0
15, 0, 0, 0
16, 0, 0, 0.0500018447637558
17, 0, 0, 0.005641636904329062
18, 0, 0, 0
19, 0, 0, 0
20, 0, 0, 0
21, 0, 0, 0
22, 0, 0, 0
23, 0, 0, 0
24, 0, 0, 0
25, 0, 0, 0
26, 0, 0, 0
27, 0, 0, 0
28, 0, 0, 0
29, 0, 0, 0.005610053427517414
30, 0, 0, 0
31, 0, 0, 0
32, 0, 0, 0.0005821203230880201
33, 0, 0, 0
34, 0, 0, 20.636474609375
35, 0, 0, 47.09596252441406
36, 0, 0, 304.4449462890625
37, 0, 0, 1021.577392578125
38, 0, 0, 2217.658203125
39, 0, 0, 3628.019775390625
40, 0, 0, 4907.7060546875
41, 0, 0, 5357.22900390625
42, 0, 0, 4954.90771484375
43, 0, 0, 4272.62255859375
44, 0, 0, 3739.77392578125
45, 0, 0, 3338.75927734375
46, 0, 0, 3057.603759765625
47, 0, 0, 2852.218505859375
48, 0, 0, 2700.991455078125
49, 0, 0, 2553.339111328125
50, 0, 0, 2436.32666015625
51, 0, 0, 2346.890625
52, 0, 0, 2255.3388671875
53, 0, 0, 2182.024658203125
54, 0, 0, 2108.48828125
55, 0, 0, 2050.611083984375
56, 0, 0, 1993.154418945312
57, 0, 0, 1943.798950195312
58, 0, 0, 1890.623413085938
59, 0, 0, 1851.383666992188
60, 0, 0, 1815.206176757812
61, 0, 0, 1777.747680664062
62, 0, 0, 1740.523681640625
63, 0, 0, 1706.425659179688
64, 0, 0, 1673.97509765625
65, 0, 0, 1644.185668945312
66, 0, 0, 1630.901123046875
67, 0, 0, 1598.190551757812
68, 0, 0, 1576.078491210938
69, 0, 0, 1534.154174804688
70, 0, 0, 1522.398559570312
71, 0, 0, 1503.958740234375
72, 0, 0, 1491.455200195312
73, 0, 0, 1474.482788085938
74, 0, 0, 1445.373657226562
75, 0, 0, 1426.484497070312
76, 0, 0, 1414.480346679688
77, 0, 0, 1397.578979492188
78, 0, 0, 1379.539306640625
79, 0, 0, 1366.161499023438
80, 0, 0, 1347.930419921875
81, 0, 0, 1335.394165039062
82, 0, 0, 1324.256103515625
83, 0, 0, 1309.3408203125
84, 0, 0, 1299.7548828125
85, 0, 0, 1289.551635742188
86, 0, 0, 1278.817626953125
87, 0, 0, 1268.8798828125
88, 0, 0, 1257.466796875
89, 0, 0, 1245.971313476562
90, 0, 0, 1235.337890625
91, 0, 0, 1219.6376953125
92, 0, 0, 1210.704956054688
93, 0, 0, 1199.41748046875
94, 0, 0, 1187.927368164062
95, 0, 0, 1188.886474609375
96, 0, 0, 1180.387939453125
97, 0, 0, 1171.818237304688
98, 0, 0, 1160.0751953125
99, 0, 0, 1150.001953125
100, 0, 0, 1154.495361328125
101, 0, 0, 1128.935546875
102, 0, 0, 1129.22265625
103, 0, 0, 1122.734130859375
104, 0, 0, 1111.628540039062
105, 0, 0, 1111.0625
106, 0, 0, 1103.35205078125
107, 0, 0, 1092.982421875
108, 0, 0, 1086.462524414062
109, 0, 0, 1083.26123046875
110, 0, 0, 1072.962890625
111, 0, 0, 1073.465087890625
112, 0, 0, 1060.830810546875
113, 0, 0, 1051.190551757812
114, 0, 0, 1046.376220703125
115, 0, 0, 1047.3154296875
116, 0, 0, 1046.980834960938
117, 0, 0, 1032.290283203125
118, 0, 0, 1037.31884765625
119, 0, 0, 1027.70263671875
120, 0, 0, 1029.18408203125
121, 0, 0, 1011.179382324219
122, 0, 0, 1008.786804199219
123, 0, 0, 1013.972412109375
124, 0, 0, 998.0414428710938
125, 0, 0, 1000.178405761719
126, 0, 0, 991.0289916992188
127, 0, 0, 991.8839721679688
128, 0, 0, 982.197021484375
129, 0, 0, 978.4105834960938
130, 0, 0, 981.34130859375
131, 0, 0, 964.0255737304688
132, 0, 0, 958.0695190429688
133, 0, 0, 970.3820190429688
134, 0, 0, 964.4480590820312
135, 0, 0, 957.0064697265625
136, 0, 0, 949.2055053710938
137, 0, 0, 949.2880859375
138, 0, 0, 937.5007934570312
139, 0, 0, 936.0443115234375
140, 0, 0, 934.8453369140625
141, 0, 0, 931.7481079101562
142, 0, 0, 930.7415771484375
143, 0, 0, 921.2694702148438
144, 0, 0, 924.2302856445312
145, 0, 0, 916.759521484375
146, 0, 0, 910.8151245117188
147, 0, 0, 902.0023193359375
148, 0, 0, 910.7445678710938
149, 0, 0, 906.7508544921875
150, 0, 0, 912.0488891601562
151, 0, 0, 903.3101196289062
152, 0, 0, 894.2175903320312
153, 0, 0, 895.0955200195312
154, 0, 0, 894.7379150390625
155, 0, 0, 883.7333984375
156, 0, 0, 883.38232421875
157, 0, 0, 875.31591796875
158, 0, 0, 874.0681762695312
159, 0, 0, 883.970458984375
160, 0, 0, 869.9566650390625
161, 0, 0, 868.0820922851562
162, 0, 0, 852.1524047851562
163, 0, 0, 865.7825317382812
164, 0, 0, 854.0070190429688
165, 0, 0, 858.9804077148438
166, 0, 0, 861.0302124023438
167, 0, 0, 863.4070434570312
168, 0, 0, 844.5732421875
169, 0, 0, 851.9540405273438
170, 0, 0, 840.1162719726562
171, 0, 0, 849.9418334960938
172, 0, 0, 848.4522705078125
173, 0, 0, 832.2147827148438
174, 0, 0, 840.1341552734375
175, 0, 0, 835.2490234375
176, 0, 0, 831.6654052734375
177, 0, 0, 825.427734375
178, 0, 0, 822.7948608398438
179, 0, 0, 823.4564819335938
