# TOPAS Version: 3.3.p1
# Parameter File: Test.txt
# Results for scorer MLIC_Scorer
# Scored in component: MLIC
# X in 180 bins of 0.177778 cm
# Y in 1 bin  of 10 cm
# Z in 1 bin  of 10 cm
# EnergyDeposit ( MeV ) : Sum   
0, 0, 0, 0
1, 0, 0, 0
2, 0, 0, 0
3, 0, 0, 0
4, 0, 0, 0
5, 0, 0, 0
6, 0, 0, 0
7, 0, 0, 0
8, 0, 0, 0
9, 0, 0, 0
10, 0, 0, 0
11, 0, 0, 0
12, 0, 0, 0
13, 0, 0, 0
14, 0, 0, 0
15, 0, 0, 0
16, 0, 0, 0
17, 0, 0, 0
18, 0, 0, 0
19, 0, 0, 0
20, 0, 0, 0
21, 0, 0, 0
22, 0, 0, 0
23, 0, 0, 0
24, 0, 0, 0
25, 0, 0, 0
26, 0, 0, 0
27, 0, 0, 0
28, 0, 0, 0
29, 0, 0, 0
30, 0, 0, 0
31, 0, 0, 0
32, 0, 0, 0
33, 0, 0, 0
34, 0, 0, 0
35, 0, 0, 0
36, 0, 0, 0
37, 0, 0, 0
38, 0, 0, 0
39, 0, 0, 0
40, 0, 0, 0
41, 0, 0, 0
42, 0, 0, 0
43, 0, 0, 0
44, 0, 0, 0
45, 0, 0, 0
46, 0, 0, 0
47, 0, 0, 0
48, 0, 0, 0
49, 0, 0, 0
50, 0, 0, 0
51, 0, 0, 0
52, 0, 0, 0
53, 0, 0, 0
54, 0, 0, 0
55, 0, 0, 0
56, 0, 0, 0
57, 0, 0, 0
58, 0, 0, 0
59, 0, 0, 0
60, 0, 0, 0
61, 0, 0, 0
62, 0, 0, 0
63, 0, 0, 0
64, 0, 0, 0
65, 0, 0, 0
66, 0, 0, 0
67, 0, 0, 0
68, 0, 0, 0
69, 0, 0, 0
70, 0, 0, 0
71, 0, 0, 0
72, 0, 0, 0
73, 0, 0, 0
74, 0, 0, 0
75, 0, 0, 0
76, 0, 0, 0
77, 0, 0, 0
78, 0, 0, 0
79, 0, 0, 0
80, 0, 0, 0
81, 0, 0, 0
82, 0, 0, 0
83, 0, 0, 0
84, 0, 0, 0
85, 0, 0, 0
86, 0, 0, 0
87, 0, 0, 0
88, 0, 0, 0
89, 0, 0, 0
90, 0, 0, 0
91, 0, 0, 0
92, 0, 0, 0
93, 0, 0, 0
94, 0, 0, 3.253254413604736
95, 0, 0, 9.782395362854004
96, 0, 0, 5.540818691253662
97, 0, 0, 102.386833190918
98, 0, 0, 212.2483825683594
99, 0, 0, 277.1514892578125
100, 0, 0, 356.5525817871094
101, 0, 0, 374.8675537109375
102, 0, 0, 347.4910278320312
103, 0, 0, 311.350341796875
104, 0, 0, 266.7227478027344
105, 0, 0, 248.6612243652344
106, 0, 0, 224.6168518066406
107, 0, 0, 210.5336303710938
108, 0, 0, 198.8287353515625
109, 0, 0, 186.798583984375
110, 0, 0, 179.4137573242188
111, 0, 0, 170.4281311035156
112, 0, 0, 166.384521484375
113, 0, 0, 160.2901153564453
114, 0, 0, 156.3208770751953
115, 0, 0, 149.7478485107422
116, 0, 0, 149.0663299560547
117, 0, 0, 141.4886016845703
118, 0, 0, 139.7182006835938
119, 0, 0, 134.9779968261719
120, 0, 0, 134.65478515625
121, 0, 0, 130.3327484130859
122, 0, 0, 128.8125915527344
123, 0, 0, 124.3913192749023
124, 0, 0, 122.1353149414062
125, 0, 0, 120.5920562744141
126, 0, 0, 120.0577163696289
127, 0, 0, 115.9809799194336
128, 0, 0, 114.2538757324219
129, 0, 0, 113.2836837768555
130, 0, 0, 114.131965637207
131, 0, 0, 111.0677108764648
132, 0, 0, 111.148681640625
133, 0, 0, 107.4596786499023
134, 0, 0, 105.8767852783203
135, 0, 0, 105.6135711669922
136, 0, 0, 104.5789794921875
137, 0, 0, 102.8329772949219
138, 0, 0, 101.2756729125977
139, 0, 0, 98.90357208251953
140, 0, 0, 100.5659942626953
141, 0, 0, 98.29447174072266
142, 0, 0, 97.77045440673828
143, 0, 0, 96.02073669433594
144, 0, 0, 96.59730529785156
145, 0, 0, 96.49324035644531
146, 0, 0, 96.40544891357422
147, 0, 0, 95.15622711181641
148, 0, 0, 92.43692016601562
149, 0, 0, 92.37635803222656
150, 0, 0, 90.18032073974609
151, 0, 0, 89.33763122558594
152, 0, 0, 89.21862030029297
153, 0, 0, 88.17083740234375
154, 0, 0, 86.12047576904297
155, 0, 0, 88.31539916992188
156, 0, 0, 84.26966857910156
157, 0, 0, 85.26473999023438
158, 0, 0, 84.13091278076172
159, 0, 0, 84.76658630371094
160, 0, 0, 83.16936492919922
161, 0, 0, 84.15125274658203
162, 0, 0, 81.55615997314453
163, 0, 0, 82.10150146484375
164, 0, 0, 82.80496215820312
165, 0, 0, 81.30628967285156
166, 0, 0, 80.84156799316406
167, 0, 0, 82.553466796875
168, 0, 0, 80.82147979736328
169, 0, 0, 78.24013519287109
170, 0, 0, 78.00208282470703
171, 0, 0, 78.20255279541016
172, 0, 0, 76.67930603027344
173, 0, 0, 77.63333129882812
174, 0, 0, 77.84505462646484
175, 0, 0, 76.37644958496094
176, 0, 0, 75.36884307861328
177, 0, 0, 78.08694458007812
178, 0, 0, 76.28347015380859
179, 0, 0, 75.49037933349609
