# TOPAS Version: 3.3.p1
# Parameter File: Test.txt
# Results for scorer MLIC_Scorer
# Scored in component: MLIC
# X in 180 bins of 0.177778 cm
# Y in 1 bin  of 10 cm
# Z in 1 bin  of 10 cm
# EnergyDeposit ( MeV ) : Sum   
0, 0, 0, 0
1, 0, 0, 0
2, 0, 0, 0
3, 0, 0, 0
4, 0, 0, 0
5, 0, 0, 0
6, 0, 0, 0
7, 0, 0, 0
8, 0, 0, 0
9, 0, 0, 0
10, 0, 0, 0
11, 0, 0, 0
12, 0, 0, 0
13, 0, 0, 0
14, 0, 0, 0
15, 0, 0, 0
16, 0, 0, 0
17, 0, 0, 0
18, 0, 0, 0
19, 0, 0, 0
20, 0, 0, 0.00155508320312947
21, 0, 0, 0
22, 0, 0, 0
23, 0, 0, 0
24, 0, 0, 0
25, 0, 0, 0
26, 0, 0, 0
27, 0, 0, 0
28, 0, 0, 11.0828161239624
29, 0, 0, 113.7954559326172
30, 0, 0, 401.871337890625
31, 0, 0, 1178.08984375
32, 0, 0, 2579.561279296875
33, 0, 0, 4070.515380859375
34, 0, 0, 4887.59033203125
35, 0, 0, 5025.71630859375
36, 0, 0, 4666.79150390625
37, 0, 0, 4139.49267578125
38, 0, 0, 3606.13916015625
39, 0, 0, 3220.735595703125
40, 0, 0, 2962.63818359375
41, 0, 0, 2764.15576171875
42, 0, 0, 2607.497802734375
43, 0, 0, 2487.6357421875
44, 0, 0, 2376.971435546875
45, 0, 0, 2277.471435546875
46, 0, 0, 2200.556396484375
47, 0, 0, 2132.201171875
48, 0, 0, 2062.837158203125
49, 0, 0, 2004.558715820312
50, 0, 0, 1942.7158203125
51, 0, 0, 1899.914306640625
52, 0, 0, 1850.001586914062
53, 0, 0, 1805.700439453125
54, 0, 0, 1775.857177734375
55, 0, 0, 1734.516967773438
56, 0, 0, 1702.867309570312
57, 0, 0, 1667.021484375
58, 0, 0, 1644.847534179688
59, 0, 0, 1621.780151367188
60, 0, 0, 1590.274658203125
61, 0, 0, 1562.32763671875
62, 0, 0, 1534.427734375
63, 0, 0, 1518.65869140625
64, 0, 0, 1499.694946289062
65, 0, 0, 1474.797607421875
66, 0, 0, 1456.345825195312
67, 0, 0, 1439.814697265625
68, 0, 0, 1415.677978515625
69, 0, 0, 1396.632080078125
70, 0, 0, 1388.526611328125
71, 0, 0, 1368.680297851562
72, 0, 0, 1354.044311523438
73, 0, 0, 1340.762939453125
74, 0, 0, 1325.303833007812
75, 0, 0, 1313.49951171875
76, 0, 0, 1302.257080078125
77, 0, 0, 1283.215698242188
78, 0, 0, 1268.581298828125
79, 0, 0, 1258.6064453125
80, 0, 0, 1256.543701171875
81, 0, 0, 1244.75634765625
82, 0, 0, 1224.905029296875
83, 0, 0, 1217.296752929688
84, 0, 0, 1207.88720703125
85, 0, 0, 1204.48828125
86, 0, 0, 1195.902587890625
87, 0, 0, 1178.775756835938
88, 0, 0, 1174.035888671875
89, 0, 0, 1162.64208984375
90, 0, 0, 1158.474853515625
91, 0, 0, 1146.423706054688
92, 0, 0, 1147.330688476562
93, 0, 0, 1135.40478515625
94, 0, 0, 1129.184326171875
95, 0, 0, 1119.57177734375
96, 0, 0, 1106.69677734375
97, 0, 0, 1105.128295898438
98, 0, 0, 1095.776489257812
99, 0, 0, 1096.533081054688
100, 0, 0, 1088.083374023438
101, 0, 0, 1072.31591796875
102, 0, 0, 1063.599243164062
103, 0, 0, 1056.74072265625
104, 0, 0, 1052.02734375
105, 0, 0, 1051.687377929688
106, 0, 0, 1037.77490234375
107, 0, 0, 1045.57080078125
108, 0, 0, 1040.163452148438
109, 0, 0, 1031.160278320312
110, 0, 0, 1023.267639160156
111, 0, 0, 1017.541137695312
112, 0, 0, 1007.902770996094
113, 0, 0, 1015.431396484375
114, 0, 0, 1004.442626953125
115, 0, 0, 991.1593627929688
116, 0, 0, 991.635986328125
117, 0, 0, 985.5798950195312
118, 0, 0, 980.8941040039062
119, 0, 0, 979.6934204101562
120, 0, 0, 969.2796020507812
121, 0, 0, 965.685302734375
122, 0, 0, 972.6755981445312
123, 0, 0, 961.1632080078125
124, 0, 0, 956.931884765625
125, 0, 0, 949.1793823242188
126, 0, 0, 949.8182373046875
127, 0, 0, 937.474365234375
128, 0, 0, 933.2252807617188
129, 0, 0, 931.775634765625
130, 0, 0, 929.311279296875
131, 0, 0, 925.6331176757812
132, 0, 0, 922.6834106445312
133, 0, 0, 925.6986083984375
134, 0, 0, 920.6709594726562
135, 0, 0, 914.8328857421875
136, 0, 0, 918.8606567382812
137, 0, 0, 906.6499633789062
138, 0, 0, 902.7714233398438
139, 0, 0, 903.3988037109375
140, 0, 0, 898.3596801757812
141, 0, 0, 893.9052734375
142, 0, 0, 896.8585815429688
143, 0, 0, 884.603515625
144, 0, 0, 882.4688720703125
145, 0, 0, 878.8421630859375
146, 0, 0, 875.6315307617188
147, 0, 0, 879.5531616210938
148, 0, 0, 881.3053588867188
149, 0, 0, 873.82763671875
150, 0, 0, 864.1145629882812
151, 0, 0, 853.8655395507812
152, 0, 0, 855.470947265625
153, 0, 0, 853.054931640625
154, 0, 0, 851.3507080078125
155, 0, 0, 851.5325927734375
156, 0, 0, 852.3059692382812
157, 0, 0, 844.1775512695312
158, 0, 0, 843.1787109375
159, 0, 0, 842.6360473632812
160, 0, 0, 837.4854125976562
161, 0, 0, 831.0834350585938
162, 0, 0, 822.6619873046875
163, 0, 0, 832.0913696289062
164, 0, 0, 829.1809692382812
165, 0, 0, 829.9061279296875
166, 0, 0, 830.435791015625
167, 0, 0, 822.0521240234375
168, 0, 0, 821.7831420898438
169, 0, 0, 822.5750122070312
170, 0, 0, 818.307861328125
171, 0, 0, 810.27978515625
172, 0, 0, 806.8201904296875
173, 0, 0, 811.2257080078125
174, 0, 0, 802.1240844726562
175, 0, 0, 805.1866455078125
176, 0, 0, 801.1248779296875
177, 0, 0, 800.1133422851562
178, 0, 0, 807.8484497070312
179, 0, 0, 794.6845703125
