# TOPAS Version: 3.3.p1
# Parameter File: Test.txt
# Results for scorer MLIC_Scorer
# Scored in component: MLIC
# X in 180 bins of 0.183333 cm
# Y in 1 bin  of 10 cm
# Z in 1 bin  of 10 cm
# EnergyDeposit ( MeV ) : Sum   
0, 0, 0, 0
1, 0, 0, 0
2, 0, 0, 0
3, 0, 0, 0
4, 0, 0, 0
5, 0, 0, 0
6, 0, 0, 0
7, 0, 0, 0
8, 0, 0, 0
9, 0, 0, 0
10, 0, 0, 0
11, 0, 0, 0
12, 0, 0, 0.03097160160541534
13, 0, 0, 0
14, 0, 0, 0
15, 0, 0, 0.0002745220263022929
16, 0, 0, 0
17, 0, 0, 41.35015487670898
18, 0, 0, 143.0582733154297
19, 0, 0, 501.039306640625
20, 0, 0, 1662.367797851562
21, 0, 0, 3226.3916015625
22, 0, 0, 4198.50537109375
23, 0, 0, 5122.42333984375
24, 0, 0, 5097.88427734375
25, 0, 0, 4622.23681640625
26, 0, 0, 3999.48974609375
27, 0, 0, 3519.9912109375
28, 0, 0, 3196.861328125
29, 0, 0, 2954.84326171875
30, 0, 0, 2772.91748046875
31, 0, 0, 2618.926513671875
32, 0, 0, 2494.872802734375
33, 0, 0, 2387.828857421875
34, 0, 0, 2294.4189453125
35, 0, 0, 2220.449951171875
36, 0, 0, 2140.46484375
37, 0, 0, 2084.411376953125
38, 0, 0, 2022.016845703125
39, 0, 0, 1968.043579101562
40, 0, 0, 1917.123657226562
41, 0, 0, 1875.019165039062
42, 0, 0, 1830.135375976562
43, 0, 0, 1787.21826171875
44, 0, 0, 1753.41796875
45, 0, 0, 1722.915893554688
46, 0, 0, 1695.265014648438
47, 0, 0, 1658.706420898438
48, 0, 0, 1628.563842773438
49, 0, 0, 1607.64453125
50, 0, 0, 1582.544189453125
51, 0, 0, 1555.4365234375
52, 0, 0, 1535.885131835938
53, 0, 0, 1510.611328125
54, 0, 0, 1490.213623046875
55, 0, 0, 1467.018432617188
56, 0, 0, 1457.711059570312
57, 0, 0, 1436.77734375
58, 0, 0, 1422.073974609375
59, 0, 0, 1410.361206054688
60, 0, 0, 1387.776123046875
61, 0, 0, 1370.009887695312
62, 0, 0, 1359.697387695312
63, 0, 0, 1337.733642578125
64, 0, 0, 1329.526611328125
65, 0, 0, 1325.915649414062
66, 0, 0, 1311.50244140625
67, 0, 0, 1299.033325195312
68, 0, 0, 1281.2998046875
69, 0, 0, 1271.109252929688
70, 0, 0, 1262.806396484375
71, 0, 0, 1246.250854492188
72, 0, 0, 1235.22265625
73, 0, 0, 1224.957153320312
74, 0, 0, 1220.49072265625
75, 0, 0, 1208.364501953125
76, 0, 0, 1193.006103515625
77, 0, 0, 1195.220581054688
78, 0, 0, 1182.322875976562
79, 0, 0, 1178.551147460938
80, 0, 0, 1164.093017578125
81, 0, 0, 1161.497436523438
82, 0, 0, 1144.491088867188
83, 0, 0, 1138.692626953125
84, 0, 0, 1141.597900390625
85, 0, 0, 1131.743286132812
86, 0, 0, 1117.020629882812
87, 0, 0, 1111.851928710938
88, 0, 0, 1098.571655273438
89, 0, 0, 1096.497192382812
90, 0, 0, 1097.504638671875
91, 0, 0, 1076.677124023438
92, 0, 0, 1077.9814453125
93, 0, 0, 1071.431640625
94, 0, 0, 1074.3564453125
95, 0, 0, 1063.680419921875
96, 0, 0, 1050.838623046875
97, 0, 0, 1058.885986328125
98, 0, 0, 1039.9775390625
99, 0, 0, 1040.185180664062
100, 0, 0, 1033.732543945312
101, 0, 0, 1029.318603515625
102, 0, 0, 1027.067260742188
103, 0, 0, 1017.352355957031
104, 0, 0, 1013.583068847656
105, 0, 0, 1008.247436523438
106, 0, 0, 1003.933837890625
107, 0, 0, 998.5513916015625
108, 0, 0, 1004.614379882812
109, 0, 0, 998.201171875
110, 0, 0, 984.2907104492188
111, 0, 0, 980.2781372070312
112, 0, 0, 975.9200439453125
113, 0, 0, 968.7994995117188
114, 0, 0, 962.5634155273438
115, 0, 0, 965.6715698242188
116, 0, 0, 955.6122436523438
117, 0, 0, 954.7510375976562
118, 0, 0, 954.5684204101562
119, 0, 0, 950.267822265625
120, 0, 0, 943.0450439453125
121, 0, 0, 949.1240844726562
122, 0, 0, 932.6087646484375
123, 0, 0, 941.9080200195312
124, 0, 0, 936.3074951171875
125, 0, 0, 930.4771118164062
126, 0, 0, 912.81494140625
127, 0, 0, 924.6552124023438
128, 0, 0, 923.3782348632812
129, 0, 0, 912.0245361328125
130, 0, 0, 902.4104614257812
131, 0, 0, 910.31005859375
132, 0, 0, 904.2979736328125
133, 0, 0, 897.98974609375
134, 0, 0, 892.1124267578125
135, 0, 0, 898.5098876953125
136, 0, 0, 889.7259521484375
137, 0, 0, 887.4315795898438
138, 0, 0, 891.2725830078125
139, 0, 0, 876.9454956054688
140, 0, 0, 872.0400390625
141, 0, 0, 879.56396484375
142, 0, 0, 876.8672485351562
143, 0, 0, 878.0347900390625
144, 0, 0, 868.5836181640625
145, 0, 0, 863.781494140625
146, 0, 0, 859.6196899414062
147, 0, 0, 859.7025146484375
148, 0, 0, 865.840576171875
149, 0, 0, 863.7877197265625
150, 0, 0, 857.3820190429688
151, 0, 0, 848.9825439453125
152, 0, 0, 839.984375
153, 0, 0, 844.5243530273438
154, 0, 0, 844.7767944335938
155, 0, 0, 841.11181640625
156, 0, 0, 831.3466186523438
157, 0, 0, 833.0493774414062
158, 0, 0, 834.8663940429688
159, 0, 0, 827.455810546875
160, 0, 0, 819.373779296875
161, 0, 0, 823.509521484375
162, 0, 0, 817.0068969726562
163, 0, 0, 828.4834594726562
164, 0, 0, 815.7164916992188
165, 0, 0, 822.146484375
166, 0, 0, 813.5017700195312
167, 0, 0, 813.3818359375
168, 0, 0, 810.5778198242188
169, 0, 0, 815.5552978515625
170, 0, 0, 802.1651000976562
171, 0, 0, 803.4371337890625
172, 0, 0, 798.8837280273438
173, 0, 0, 799.3237915039062
174, 0, 0, 796.2700805664062
175, 0, 0, 795.2427368164062
176, 0, 0, 794.6357421875
177, 0, 0, 791.7794189453125
178, 0, 0, 791.8641357421875
179, 0, 0, 782.5146484375
