# TOPAS Version: 3.3.p1
# Parameter File: Test.txt
# Results for scorer MLIC_Scorer
# Scored in component: MLIC
# X in 165 bins of 0.2 cm
# Y in 1 bin  of 10 cm
# Z in 1 bin  of 10 cm
# EnergyDeposit ( MeV ) : Sum   
0, 0, 0, 0
1, 0, 0, 0
2, 0, 0, 0
3, 0, 0, 0
4, 0, 0, 0
5, 0, 0, 0
6, 0, 0, 0
7, 0, 0, 0
8, 0, 0, 0
9, 0, 0, 0
10, 0, 0, 0
11, 0, 0, 0
12, 0, 0, 0
13, 0, 0, 0
14, 0, 0, 0
15, 0, 0, 0
16, 0, 0, 0
17, 0, 0, 0
18, 0, 0, 0
19, 0, 0, 0
20, 0, 0, 0
21, 0, 0, 0
22, 0, 0, 0
23, 0, 0, 0
24, 0, 0, 0
25, 0, 0, 0
26, 0, 0, 0
27, 0, 0, 0
28, 0, 0, 0
29, 0, 0, 0
30, 0, 0, 0
31, 0, 0, 0
32, 0, 0, 0
33, 0, 0, 0
34, 0, 0, 0
35, 0, 0, 0
36, 0, 0, 0
37, 0, 0, 0
38, 0, 0, 0
39, 0, 0, 0
40, 0, 0, 0
41, 0, 0, 0
42, 0, 0, 0
43, 0, 0, 0
44, 0, 0, 0
45, 0, 0, 0
46, 0, 0, 0
47, 0, 0, 0
48, 0, 0, 0
49, 0, 0, 0
50, 0, 0, 0
51, 0, 0, 0
52, 0, 0, 0
53, 0, 0, 0
54, 0, 0, 0
55, 0, 0, 0
56, 0, 0, 0
57, 0, 0, 0
58, 0, 0, 0
59, 0, 0, 0
60, 0, 0, 0
61, 0, 0, 0
62, 0, 0, 0
63, 0, 0, 0
64, 0, 0, 0
65, 0, 0, 0
66, 0, 0, 0
67, 0, 0, 0.01849258691072464
68, 0, 0, 0
69, 0, 0, 0
70, 0, 0, 0
71, 0, 0, 0
72, 0, 0, 0
73, 0, 0, 0
74, 0, 0, 0
75, 0, 0, 2.801337957382202
76, 0, 0, 31.72509384155273
77, 0, 0, 100.051887512207
78, 0, 0, 460.7955017089844
79, 0, 0, 1289.12548828125
80, 0, 0, 2981.6650390625
81, 0, 0, 4619.86279296875
82, 0, 0, 5414.1044921875
83, 0, 0, 5407.1640625
84, 0, 0, 4810.8671875
85, 0, 0, 4256.36279296875
86, 0, 0, 3779.039794921875
87, 0, 0, 3403.219970703125
88, 0, 0, 3134.7080078125
89, 0, 0, 2931.968505859375
90, 0, 0, 2768.130859375
91, 0, 0, 2635.426025390625
92, 0, 0, 2520.8310546875
93, 0, 0, 2424.138427734375
94, 0, 0, 2334.5458984375
95, 0, 0, 2266.867919921875
96, 0, 0, 2188.990478515625
97, 0, 0, 2124.0390625
98, 0, 0, 2068.5322265625
99, 0, 0, 2029.576293945312
100, 0, 0, 1985.375610351562
101, 0, 0, 1933.711303710938
102, 0, 0, 1892.10205078125
103, 0, 0, 1854.833251953125
104, 0, 0, 1820.014526367188
105, 0, 0, 1780.143310546875
106, 0, 0, 1747.634643554688
107, 0, 0, 1729.4326171875
108, 0, 0, 1697.837280273438
109, 0, 0, 1665.084350585938
110, 0, 0, 1646.326904296875
111, 0, 0, 1621.367919921875
112, 0, 0, 1608.819091796875
113, 0, 0, 1569.589965820312
114, 0, 0, 1557.3017578125
115, 0, 0, 1536.537231445312
116, 0, 0, 1516.842163085938
117, 0, 0, 1502.862915039062
118, 0, 0, 1477.869750976562
119, 0, 0, 1466.015502929688
120, 0, 0, 1445.359985351562
121, 0, 0, 1432.350341796875
122, 0, 0, 1419.436279296875
123, 0, 0, 1400.5078125
124, 0, 0, 1391.221557617188
125, 0, 0, 1376.439697265625
126, 0, 0, 1363.330932617188
127, 0, 0, 1352.162109375
128, 0, 0, 1339.330444335938
129, 0, 0, 1329.350830078125
130, 0, 0, 1319.4150390625
131, 0, 0, 1307.731689453125
132, 0, 0, 1293.538696289062
133, 0, 0, 1286.884399414062
134, 0, 0, 1277.718627929688
135, 0, 0, 1258.865234375
136, 0, 0, 1256.137329101562
137, 0, 0, 1248.488525390625
138, 0, 0, 1241.547729492188
139, 0, 0, 1235.372802734375
140, 0, 0, 1218.96044921875
141, 0, 0, 1215.554931640625
142, 0, 0, 1198.664184570312
143, 0, 0, 1204.131958007812
144, 0, 0, 1189.498168945312
145, 0, 0, 1173.2919921875
146, 0, 0, 1178.935791015625
147, 0, 0, 1160.787963867188
148, 0, 0, 1165.941040039062
149, 0, 0, 1155.099731445312
150, 0, 0, 1142.972045898438
151, 0, 0, 1130.358276367188
152, 0, 0, 1131.1533203125
153, 0, 0, 1127.082763671875
154, 0, 0, 1116.3330078125
155, 0, 0, 1116.1669921875
156, 0, 0, 1108.898071289062
157, 0, 0, 1100.1923828125
158, 0, 0, 1095.051147460938
159, 0, 0, 1089.752197265625
160, 0, 0, 1081.907104492188
161, 0, 0, 1078.9990234375
162, 0, 0, 1071.673950195312
163, 0, 0, 1059.918212890625
164, 0, 0, 1065.176879882812
