# TOPAS Version: 3.3.p1
# Parameter File: Test.txt
# Results for scorer MLIC_Scorer
# Scored in component: MLIC
# X in 180 bins of 0.183333 cm
# Y in 1 bin  of 10 cm
# Z in 1 bin  of 10 cm
# EnergyDeposit ( MeV ) : Sum   
0, 0, 0, 0
1, 0, 0, 0
2, 0, 0, 0
3, 0, 0, 0
4, 0, 0, 0
5, 0, 0, 0
6, 0, 0, 0
7, 0, 0, 0
8, 0, 0, 0
9, 0, 0, 0
10, 0, 0, 0
11, 0, 0, 0
12, 0, 0, 0
13, 0, 0, 0
14, 0, 0, 0
15, 0, 0, 0
16, 0, 0, 0
17, 0, 0, 0
18, 0, 0, 0
19, 0, 0, 0
20, 0, 0, 0
21, 0, 0, 0
22, 0, 0, 0
23, 0, 0, 0
24, 0, 0, 0
25, 0, 0, 0
26, 0, 0, 0
27, 0, 0, 0
28, 0, 0, 0
29, 0, 0, 0
30, 0, 0, 0
31, 0, 0, 0
32, 0, 0, 0
33, 0, 0, 0
34, 0, 0, 0
35, 0, 0, 0
36, 0, 0, 0
37, 0, 0, 0.01655895449221134
38, 0, 0, 0
39, 0, 0, 0
40, 0, 0, 0
41, 0, 0, 0
42, 0, 0, 0
43, 0, 0, 0
44, 0, 0, 0
45, 0, 0, 0
46, 0, 0, 0
47, 0, 0, 0
48, 0, 0, 0
49, 0, 0, 0
50, 0, 0, 0
51, 0, 0, 0
52, 0, 0, 0
53, 0, 0, 0
54, 0, 0, 0
55, 0, 0, 0
56, 0, 0, 0
57, 0, 0, 0
58, 0, 0, 0.00126921758055687
59, 0, 0, 0
60, 0, 0, 0
61, 0, 0, 0
62, 0, 0, 0
63, 0, 0, 0
64, 0, 0, 0
65, 0, 0, 0
66, 0, 0, 0
67, 0, 0, 0
68, 0, 0, 0
69, 0, 0, 0
70, 0, 0, 0
71, 0, 0, 0.01477601006627083
72, 0, 0, 0
73, 0, 0, 0
74, 0, 0, 0
75, 0, 0, 0
76, 0, 0, 0
77, 0, 0, 0
78, 0, 0, 0.01651044748723507
79, 0, 0, 11.1954984664917
80, 0, 0, 55.973388671875
81, 0, 0, 418.4988708496094
82, 0, 0, 1397.3994140625
83, 0, 0, 2874.19775390625
84, 0, 0, 4086.871826171875
85, 0, 0, 5014.4833984375
86, 0, 0, 5195.29296875
87, 0, 0, 4712.896484375
88, 0, 0, 4145.56689453125
89, 0, 0, 3604.3388671875
90, 0, 0, 3246.321044921875
91, 0, 0, 3000.97412109375
92, 0, 0, 2805.856201171875
93, 0, 0, 2645.807373046875
94, 0, 0, 2519.8095703125
95, 0, 0, 2408.465087890625
96, 0, 0, 2312.814453125
97, 0, 0, 2228.767578125
98, 0, 0, 2162.14599609375
99, 0, 0, 2090.849609375
100, 0, 0, 2031.488525390625
101, 0, 0, 1975.388549804688
102, 0, 0, 1925.09912109375
103, 0, 0, 1878.1015625
104, 0, 0, 1840.774780273438
105, 0, 0, 1795.2353515625
106, 0, 0, 1760.8017578125
107, 0, 0, 1721.659912109375
108, 0, 0, 1699.60791015625
109, 0, 0, 1663.042724609375
110, 0, 0, 1643.405151367188
111, 0, 0, 1615.555419921875
112, 0, 0, 1582.045776367188
113, 0, 0, 1563.419311523438
114, 0, 0, 1542.760375976562
115, 0, 0, 1521.408813476562
116, 0, 0, 1501.943969726562
117, 0, 0, 1486.3916015625
118, 0, 0, 1461.98876953125
119, 0, 0, 1445.220703125
120, 0, 0, 1428.474731445312
121, 0, 0, 1406.548583984375
122, 0, 0, 1395.050170898438
123, 0, 0, 1380.163696289062
124, 0, 0, 1367.34716796875
125, 0, 0, 1347.495361328125
126, 0, 0, 1334.874633789062
127, 0, 0, 1317.752075195312
128, 0, 0, 1315.773071289062
129, 0, 0, 1292.8720703125
130, 0, 0, 1286.7431640625
131, 0, 0, 1276.856201171875
132, 0, 0, 1263.507568359375
133, 0, 0, 1257.817749023438
134, 0, 0, 1243.490478515625
135, 0, 0, 1237.0654296875
136, 0, 0, 1222.23779296875
137, 0, 0, 1208.982543945312
138, 0, 0, 1203.424560546875
139, 0, 0, 1184.034057617188
140, 0, 0, 1179.033935546875
141, 0, 0, 1169.217041015625
142, 0, 0, 1170.403442382812
143, 0, 0, 1158.692016601562
144, 0, 0, 1155.275512695312
145, 0, 0, 1141.493530273438
146, 0, 0, 1138.697631835938
147, 0, 0, 1126.839111328125
148, 0, 0, 1125.867553710938
149, 0, 0, 1111.88427734375
150, 0, 0, 1113.848999023438
151, 0, 0, 1096.309814453125
152, 0, 0, 1096.438354492188
153, 0, 0, 1093.437744140625
154, 0, 0, 1077.511840820312
155, 0, 0, 1073.466918945312
156, 0, 0, 1062.734008789062
157, 0, 0, 1065.35595703125
158, 0, 0, 1055.34326171875
159, 0, 0, 1049.60009765625
160, 0, 0, 1055.138305664062
161, 0, 0, 1038.268432617188
162, 0, 0, 1039.88916015625
163, 0, 0, 1028.732543945312
164, 0, 0, 1024.957397460938
165, 0, 0, 1021.79541015625
166, 0, 0, 1012.735595703125
167, 0, 0, 1009.564270019531
168, 0, 0, 1000.666687011719
169, 0, 0, 993.7022094726562
170, 0, 0, 985.6614990234375
171, 0, 0, 994.3041381835938
172, 0, 0, 986.7891845703125
173, 0, 0, 985.2822875976562
174, 0, 0, 978.677490234375
175, 0, 0, 971.8328857421875
176, 0, 0, 971.1929321289062
177, 0, 0, 972.5180053710938
178, 0, 0, 957.4519653320312
179, 0, 0, 951.61572265625
