# TOPAS Version: 3.3.p1
# Parameter File: Test.txt
# Results for scorer MLIC_Scorer
# Scored in component: MLIC
# X in 180 bins of 0.177778 cm
# Y in 1 bin  of 10 cm
# Z in 1 bin  of 10 cm
# EnergyDeposit ( MeV ) : Sum   
0, 0, 0, 0
1, 0, 0, 0
2, 0, 0, 0
3, 0, 0, 0
4, 0, 0, 0
5, 0, 0, 0
6, 0, 0, 0
7, 0, 0, 0
8, 0, 0, 0
9, 0, 0, 0
10, 0, 0, 0
11, 0, 0, 0
12, 0, 0, 0
13, 0, 0, 0
14, 0, 0, 0
15, 0, 0, 0
16, 0, 0, 0
17, 0, 0, 0
18, 0, 0, 0
19, 0, 0, 0
20, 0, 0, 0
21, 0, 0, 0
22, 0, 0, 0
23, 0, 0, 0
24, 0, 0, 0
25, 0, 0, 0
26, 0, 0, 0
27, 0, 0, 0
28, 0, 0, 0
29, 0, 0, 0
30, 0, 0, 0
31, 0, 0, 0
32, 0, 0, 0
33, 0, 0, 0
34, 0, 0, 0
35, 0, 0, 0
36, 0, 0, 0
37, 0, 0, 0
38, 0, 0, 0
39, 0, 0, 0
40, 0, 0, 0
41, 0, 0, 0
42, 0, 0, 0
43, 0, 0, 0
44, 0, 0, 0
45, 0, 0, 0
46, 0, 0, 0
47, 0, 0, 0
48, 0, 0, 0
49, 0, 0, 0
50, 0, 0, 0
51, 0, 0, 0
52, 0, 0, 0
53, 0, 0, 0
54, 0, 0, 0
55, 0, 0, 0
56, 0, 0, 0
57, 0, 0, 0
58, 0, 0, 0
59, 0, 0, 0
60, 0, 0, 0
61, 0, 0, 0
62, 0, 0, 0
63, 0, 0, 0
64, 0, 0, 0
65, 0, 0, 0
66, 0, 0, 0
67, 0, 0, 0
68, 0, 0, 0
69, 0, 0, 0
70, 0, 0, 0
71, 0, 0, 0
72, 0, 0, 0
73, 0, 0, 0
74, 0, 0, 0
75, 0, 0, 0
76, 0, 0, 0
77, 0, 0, 0
78, 0, 0, 0
79, 0, 0, 0
80, 0, 0, 0
81, 0, 0, 0
82, 0, 0, 0
83, 0, 0, 0
84, 0, 0, 0
85, 0, 0, 0
86, 0, 0, 0
87, 0, 0, 0
88, 0, 0, 0
89, 0, 0, 0
90, 0, 0, 0.0009256502380594611
91, 0, 0, 0
92, 0, 0, 0
93, 0, 0, 0
94, 0, 0, 0
95, 0, 0, 0
96, 0, 0, 0
97, 0, 0, 0.03202440589666367
98, 0, 0, 0
99, 0, 0, 0.0001927335106302053
100, 0, 0, 0
101, 0, 0, 4.008152008056641
102, 0, 0, 30.70327758789062
103, 0, 0, 188.8546295166016
104, 0, 0, 554.9276123046875
105, 0, 0, 1521.921875
106, 0, 0, 2926.4345703125
107, 0, 0, 4333.072265625
108, 0, 0, 5066.23583984375
109, 0, 0, 4937.2529296875
110, 0, 0, 4555.14990234375
111, 0, 0, 3985.12158203125
112, 0, 0, 3483.699462890625
113, 0, 0, 3145.962158203125
114, 0, 0, 2904.64892578125
115, 0, 0, 2731.976318359375
116, 0, 0, 2579.172119140625
117, 0, 0, 2452.45654296875
118, 0, 0, 2346.20361328125
119, 0, 0, 2255.466796875
120, 0, 0, 2174.0693359375
121, 0, 0, 2104.955078125
122, 0, 0, 2048.68115234375
123, 0, 0, 1990.4697265625
124, 0, 0, 1934.891235351562
125, 0, 0, 1889.44580078125
126, 0, 0, 1831.880981445312
127, 0, 0, 1807.225830078125
128, 0, 0, 1761.673950195312
129, 0, 0, 1725.207763671875
130, 0, 0, 1688.456420898438
131, 0, 0, 1661.783325195312
132, 0, 0, 1628.47265625
133, 0, 0, 1610.1279296875
134, 0, 0, 1572.651123046875
135, 0, 0, 1556.035278320312
136, 0, 0, 1531.566162109375
137, 0, 0, 1506.410034179688
138, 0, 0, 1491.12060546875
139, 0, 0, 1468.931518554688
140, 0, 0, 1449.141357421875
141, 0, 0, 1431.697875976562
142, 0, 0, 1413.76123046875
143, 0, 0, 1391.915161132812
144, 0, 0, 1375.0771484375
145, 0, 0, 1365.171997070312
146, 0, 0, 1353.613891601562
147, 0, 0, 1342.591186523438
148, 0, 0, 1326.859252929688
149, 0, 0, 1311.829833984375
150, 0, 0, 1296.150024414062
151, 0, 0, 1285.974731445312
152, 0, 0, 1268.03955078125
153, 0, 0, 1267.31396484375
154, 0, 0, 1252.874877929688
155, 0, 0, 1242.282592773438
156, 0, 0, 1228.210205078125
157, 0, 0, 1222.029296875
158, 0, 0, 1208.286865234375
159, 0, 0, 1191.596069335938
160, 0, 0, 1186.917236328125
161, 0, 0, 1180.374755859375
162, 0, 0, 1167.710571289062
163, 0, 0, 1159.56689453125
164, 0, 0, 1151.218994140625
165, 0, 0, 1149.14208984375
166, 0, 0, 1135.451171875
167, 0, 0, 1130.71728515625
168, 0, 0, 1118.859619140625
169, 0, 0, 1110.826538085938
170, 0, 0, 1108.627319335938
171, 0, 0, 1093.454345703125
172, 0, 0, 1084.822387695312
173, 0, 0, 1087.286010742188
174, 0, 0, 1081.056640625
175, 0, 0, 1072.037231445312
176, 0, 0, 1063.430908203125
177, 0, 0, 1059.321044921875
178, 0, 0, 1053.383911132812
179, 0, 0, 1049.584228515625
