# TOPAS Version: 3.3.p1
# Parameter File: Test.txt
# Results for scorer MLIC_Scorer
# Scored in component: MLIC
# X in 180 bins of 0.222222 cm
# Y in 1 bin  of 10 cm
# Z in 1 bin  of 10 cm
# EnergyDeposit ( MeV ) : Sum   
0, 0, 0, 0
1, 0, 0, 0
2, 0, 0, 0
3, 0, 0, 0
4, 0, 0, 0
5, 0, 0, 0
6, 0, 0, 0
7, 0, 0, 0
8, 0, 0, 0
9, 0, 0, 0
10, 0, 0, 0
11, 0, 0, 0
12, 0, 0, 0
13, 0, 0, 0
14, 0, 0, 0
15, 0, 0, 0
16, 0, 0, 0
17, 0, 0, 0
18, 0, 0, 0
19, 0, 0, 0
20, 0, 0, 0
21, 0, 0, 0
22, 0, 0, 0
23, 0, 0, 0
24, 0, 0, 0
25, 0, 0, 0
26, 0, 0, 0
27, 0, 0, 0
28, 0, 0, 0
29, 0, 0, 0
30, 0, 0, 0
31, 0, 0, 0
32, 0, 0, 0
33, 0, 0, 0
34, 0, 0, 0
35, 0, 0, 0
36, 0, 0, 0
37, 0, 0, 0
38, 0, 0, 0
39, 0, 0, 0
40, 0, 0, 0
41, 0, 0, 0
42, 0, 0, 0
43, 0, 0, 0
44, 0, 0, 0
45, 0, 0, 0
46, 0, 0, 0
47, 0, 0, 0
48, 0, 0, 0
49, 0, 0, 0
50, 0, 0, 0
51, 0, 0, 0
52, 0, 0, 0
53, 0, 0, 0
54, 0, 0, 0
55, 0, 0, 0
56, 0, 0, 0
57, 0, 0, 0
58, 0, 0, 0
59, 0, 0, 0
60, 0, 0, 0
61, 0, 0, 0
62, 0, 0, 0
63, 0, 0, 0.01998894661664963
64, 0, 0, 0
65, 0, 0, 0
66, 0, 0, 0
67, 0, 0, 0
68, 0, 0, 0
69, 0, 0, 0
70, 0, 0, 0
71, 0, 0, 0
72, 0, 0, 0
73, 0, 0, 0
74, 0, 0, 0
75, 0, 0, 0
76, 0, 0, 0
77, 0, 0, 0.05010064691305161
78, 0, 0, 0.03199838474392891
79, 0, 0, 0
80, 0, 0, 0
81, 0, 0, 0
82, 0, 0, 0
83, 0, 0, 0
84, 0, 0, 0
85, 0, 0, 42.25223159790039
86, 0, 0, 163.3155670166016
87, 0, 0, 603.5673217773438
88, 0, 0, 1931.243896484375
89, 0, 0, 4062.044921875
90, 0, 0, 5805.2138671875
91, 0, 0, 6378.48486328125
92, 0, 0, 5666.40283203125
93, 0, 0, 4817.52587890625
94, 0, 0, 4120.29052734375
95, 0, 0, 3699.787353515625
96, 0, 0, 3406.466064453125
97, 0, 0, 3184.521484375
98, 0, 0, 3001.483154296875
99, 0, 0, 2857.43115234375
100, 0, 0, 2725.564697265625
101, 0, 0, 2614.69921875
102, 0, 0, 2521.85791015625
103, 0, 0, 2446.033447265625
104, 0, 0, 2355.06591796875
105, 0, 0, 2289.13134765625
106, 0, 0, 2229.359619140625
107, 0, 0, 2172.057861328125
108, 0, 0, 2116.310546875
109, 0, 0, 2070.508056640625
110, 0, 0, 2016.318481445312
111, 0, 0, 1981.940185546875
112, 0, 0, 1939.81494140625
113, 0, 0, 1916.435546875
114, 0, 0, 1874.01171875
115, 0, 0, 1837.55615234375
116, 0, 0, 1816.235107421875
117, 0, 0, 1785.789184570312
118, 0, 0, 1763.578979492188
119, 0, 0, 1726.086547851562
120, 0, 0, 1715.425537109375
121, 0, 0, 1684.072387695312
122, 0, 0, 1665.542846679688
123, 0, 0, 1640.484130859375
124, 0, 0, 1622.802734375
125, 0, 0, 1604.12255859375
126, 0, 0, 1585.64892578125
127, 0, 0, 1571.17919921875
128, 0, 0, 1548.852783203125
129, 0, 0, 1529.25
130, 0, 0, 1529.968872070312
131, 0, 0, 1497.64794921875
132, 0, 0, 1482.471069335938
133, 0, 0, 1471.813110351562
134, 0, 0, 1455.005859375
135, 0, 0, 1441.046020507812
136, 0, 0, 1428.663330078125
137, 0, 0, 1423.046264648438
138, 0, 0, 1404.315673828125
139, 0, 0, 1397.481201171875
140, 0, 0, 1377.359619140625
141, 0, 0, 1361.403930664062
142, 0, 0, 1359.54248046875
143, 0, 0, 1348.437133789062
144, 0, 0, 1339.158447265625
145, 0, 0, 1333.999267578125
146, 0, 0, 1315.6005859375
147, 0, 0, 1307.246215820312
148, 0, 0, 1308.660766601562
149, 0, 0, 1296.496704101562
150, 0, 0, 1285.513916015625
151, 0, 0, 1275.907104492188
152, 0, 0, 1281.458984375
153, 0, 0, 1256.80078125
154, 0, 0, 1249.982421875
155, 0, 0, 1246.06298828125
156, 0, 0, 1236.978271484375
157, 0, 0, 1227.626708984375
158, 0, 0, 1225.016967773438
159, 0, 0, 1217.6259765625
160, 0, 0, 1209.384521484375
161, 0, 0, 1193.21044921875
162, 0, 0, 1194.163818359375
163, 0, 0, 1197.449584960938
164, 0, 0, 1183.558959960938
165, 0, 0, 1177.462646484375
166, 0, 0, 1174.60498046875
167, 0, 0, 1166.346923828125
168, 0, 0, 1155.71240234375
169, 0, 0, 1148.48779296875
170, 0, 0, 1149.903442382812
171, 0, 0, 1142.572143554688
172, 0, 0, 1134.529907226562
173, 0, 0, 1128.740234375
174, 0, 0, 1132.297973632812
175, 0, 0, 1122.427368164062
176, 0, 0, 1112.565185546875
177, 0, 0, 1113.093872070312
178, 0, 0, 1102.245239257812
179, 0, 0, 1097.123779296875
