# TOPAS Version: 3.3.p1
# Parameter File: Test.txt
# Results for scorer MLIC_Scorer
# Scored in component: MLIC
# X in 180 bins of 0.177778 cm
# Y in 1 bin  of 10 cm
# Z in 1 bin  of 10 cm
# EnergyDeposit ( MeV ) : Sum   
0, 0, 0, 0
1, 0, 0, 0
2, 0, 0, 0
3, 0, 0, 0
4, 0, 0, 0
5, 0, 0, 0
6, 0, 0, 0
7, 0, 0, 0
8, 0, 0, 0
9, 0, 0, 0
10, 0, 0, 0
11, 0, 0, 0
12, 0, 0, 0
13, 0, 0, 0
14, 0, 0, 0
15, 0, 0, 0
16, 0, 0, 0
17, 0, 0, 0
18, 0, 0, 0
19, 0, 0, 0
20, 0, 0, 0
21, 0, 0, 0
22, 0, 0, 0
23, 0, 0, 0
24, 0, 0, 0
25, 0, 0, 0
26, 0, 0, 0
27, 0, 0, 0
28, 0, 0, 0
29, 0, 0, 0
30, 0, 0, 0
31, 0, 0, 0
32, 0, 0, 0
33, 0, 0, 0
34, 0, 0, 0
35, 0, 0, 0
36, 0, 0, 0
37, 0, 0, 0
38, 0, 0, 0
39, 0, 0, 0
40, 0, 0, 0
41, 0, 0, 0
42, 0, 0, 0
43, 0, 0, 0
44, 0, 0, 0
45, 0, 0, 0
46, 0, 0, 0
47, 0, 0, 0
48, 0, 0, 0
49, 0, 0, 0
50, 0, 0, 0
51, 0, 0, 0
52, 0, 0, 0
53, 0, 0, 0
54, 0, 0, 0
55, 0, 0, 0
56, 0, 0, 0
57, 0, 0, 0
58, 0, 0, 0
59, 0, 0, 0
60, 0, 0, 0
61, 0, 0, 0
62, 0, 0, 0
63, 0, 0, 0
64, 0, 0, 0
65, 0, 0, 0
66, 0, 0, 0
67, 0, 0, 0
68, 0, 0, 0
69, 0, 0, 0
70, 0, 0, 0
71, 0, 0, 0
72, 0, 0, 0
73, 0, 0, 0
74, 0, 0, 0
75, 0, 0, 0
76, 0, 0, 0
77, 0, 0, 0
78, 0, 0, 0
79, 0, 0, 0
80, 0, 0, 0
81, 0, 0, 0
82, 0, 0, 0
83, 0, 0, 0
84, 0, 0, 0
85, 0, 0, 0
86, 0, 0, 0
87, 0, 0, 0
88, 0, 0, 0
89, 0, 0, 0
90, 0, 0, 0
91, 0, 0, 0
92, 0, 0, 0
93, 0, 0, 0
94, 0, 0, 0
95, 0, 0, 0
96, 0, 0, 0
97, 0, 0, 0
98, 0, 0, 0
99, 0, 0, 0
100, 0, 0, 0
101, 0, 0, 0
102, 0, 0, 0
103, 0, 0, 0
104, 0, 0, 0
105, 0, 0, 0
106, 0, 0, 0
107, 0, 0, 0
108, 0, 0, 0
109, 0, 0, 32.17465591430664
110, 0, 0, 62.90243148803711
111, 0, 0, 130.4038848876953
112, 0, 0, 238.1790313720703
113, 0, 0, 313.70068359375
114, 0, 0, 414.9064025878906
115, 0, 0, 443.3620910644531
116, 0, 0, 386.9394836425781
117, 0, 0, 324.3795471191406
118, 0, 0, 285.1081237792969
119, 0, 0, 259.5489501953125
120, 0, 0, 241.4706115722656
121, 0, 0, 227.6716156005859
122, 0, 0, 214.3579406738281
123, 0, 0, 203.7670593261719
124, 0, 0, 194.4214935302734
125, 0, 0, 188.1649475097656
126, 0, 0, 180.6970977783203
127, 0, 0, 175.3930816650391
128, 0, 0, 168.1555023193359
129, 0, 0, 166.1072845458984
130, 0, 0, 158.9584350585938
131, 0, 0, 155.1705627441406
132, 0, 0, 153.3687438964844
133, 0, 0, 149.2042541503906
134, 0, 0, 146.8540649414062
135, 0, 0, 142.2841491699219
136, 0, 0, 139.6845703125
137, 0, 0, 136.6934051513672
138, 0, 0, 135.7969360351562
139, 0, 0, 133.6820068359375
140, 0, 0, 131.9827423095703
141, 0, 0, 127.0492706298828
142, 0, 0, 126.1445922851562
143, 0, 0, 128.1053924560547
144, 0, 0, 124.4611740112305
145, 0, 0, 122.5099334716797
146, 0, 0, 119.6329727172852
147, 0, 0, 119.2558059692383
148, 0, 0, 116.543586730957
149, 0, 0, 116.0784683227539
150, 0, 0, 114.152458190918
151, 0, 0, 111.7809753417969
152, 0, 0, 111.8821182250977
153, 0, 0, 110.263786315918
154, 0, 0, 108.9901275634766
155, 0, 0, 107.0768051147461
156, 0, 0, 108.5756225585938
157, 0, 0, 106.6598281860352
158, 0, 0, 106.0778121948242
159, 0, 0, 105.4535369873047
160, 0, 0, 103.3608627319336
161, 0, 0, 105.7284393310547
162, 0, 0, 101.5170593261719
163, 0, 0, 100.4284515380859
164, 0, 0, 99.15921783447266
165, 0, 0, 99.7586669921875
166, 0, 0, 97.18087005615234
167, 0, 0, 96.06292724609375
168, 0, 0, 95.02797698974609
169, 0, 0, 95.45499420166016
170, 0, 0, 96.59152984619141
171, 0, 0, 95.08266448974609
172, 0, 0, 93.43728637695312
173, 0, 0, 94.81795501708984
174, 0, 0, 92.33543395996094
175, 0, 0, 94.18354034423828
176, 0, 0, 91.51730346679688
177, 0, 0, 89.38471984863281
178, 0, 0, 90.38085174560547
179, 0, 0, 89.0301513671875
