# TOPAS Version: 3.3.p1
# Parameter File: Test.txt
# Results for scorer MLIC_Scorer
# Scored in component: MLIC
# X in 180 bins of 0.183333 cm
# Y in 1 bin  of 10 cm
# Z in 1 bin  of 10 cm
# EnergyDeposit ( MeV ) : Sum   
0, 0, 0, 0
1, 0, 0, 0
2, 0, 0, 0
3, 0, 0, 0
4, 0, 0, 0
5, 0, 0, 0
6, 0, 0, 0
7, 0, 0, 0
8, 0, 0, 0
9, 0, 0, 0
10, 0, 0, 0
11, 0, 0, 0
12, 0, 0, 0
13, 0, 0, 0
14, 0, 0, 0
15, 0, 0, 0
16, 0, 0, 0
17, 0, 0, 0
18, 0, 0, 0
19, 0, 0, 0
20, 0, 0, 0
21, 0, 0, 0
22, 0, 0, 0
23, 0, 0, 0
24, 0, 0, 0
25, 0, 0, 0
26, 0, 0, 0
27, 0, 0, 0
28, 0, 0, 0
29, 0, 0, 0
30, 0, 0, 0
31, 0, 0, 0
32, 0, 0, 0
33, 0, 0, 0
34, 0, 0, 0
35, 0, 0, 0
36, 0, 0, 0
37, 0, 0, 0
38, 0, 0, 0
39, 0, 0, 0
40, 0, 0, 0
41, 0, 0, 0
42, 0, 0, 0
43, 0, 0, 0
44, 0, 0, 0
45, 0, 0, 0
46, 0, 0, 0
47, 0, 0, 0
48, 0, 0, 0
49, 0, 0, 0
50, 0, 0, 0
51, 0, 0, 0
52, 0, 0, 0
53, 0, 0, 0
54, 0, 0, 0
55, 0, 0, 0
56, 0, 0, 0
57, 0, 0, 0
58, 0, 0, 0
59, 0, 0, 0
60, 0, 0, 0
61, 0, 0, 0
62, 0, 0, 0
63, 0, 0, 0
64, 0, 0, 0
65, 0, 0, 0
66, 0, 0, 0
67, 0, 0, 0
68, 0, 0, 0
69, 0, 0, 0
70, 0, 0, 0
71, 0, 0, 0
72, 0, 0, 0
73, 0, 0, 0
74, 0, 0, 0
75, 0, 0, 0
76, 0, 0, 0
77, 0, 0, 0
78, 0, 0, 0.002255948726087809
79, 0, 0, 0
80, 0, 0, 0.01583181694149971
81, 0, 0, 5.39860200881958
82, 0, 0, 97.80607604980469
83, 0, 0, 329.2507934570312
84, 0, 0, 971.6632080078125
85, 0, 0, 2179.012939453125
86, 0, 0, 3908.185791015625
87, 0, 0, 5015.01123046875
88, 0, 0, 5138.26025390625
89, 0, 0, 4863.3408203125
90, 0, 0, 4260.31982421875
91, 0, 0, 3729.863037109375
92, 0, 0, 3333.85009765625
93, 0, 0, 3058.341796875
94, 0, 0, 2847.001953125
95, 0, 0, 2685.31298828125
96, 0, 0, 2548.21923828125
97, 0, 0, 2435.849365234375
98, 0, 0, 2343.80126953125
99, 0, 0, 2253.2529296875
100, 0, 0, 2181.76513671875
101, 0, 0, 2108.8857421875
102, 0, 0, 2040.469970703125
103, 0, 0, 1986.898071289062
104, 0, 0, 1936.364624023438
105, 0, 0, 1894.239624023438
106, 0, 0, 1853.710571289062
107, 0, 0, 1807.423828125
108, 0, 0, 1768.671997070312
109, 0, 0, 1742.321533203125
110, 0, 0, 1708.081665039062
111, 0, 0, 1676.158325195312
112, 0, 0, 1646.181518554688
113, 0, 0, 1615.35986328125
114, 0, 0, 1589.94189453125
115, 0, 0, 1563.859008789062
116, 0, 0, 1542.471069335938
117, 0, 0, 1515.89697265625
118, 0, 0, 1505.134765625
119, 0, 0, 1482.624267578125
120, 0, 0, 1462.66748046875
121, 0, 0, 1448.230224609375
122, 0, 0, 1428.981567382812
123, 0, 0, 1417.546630859375
124, 0, 0, 1393.255981445312
125, 0, 0, 1379.295532226562
126, 0, 0, 1366.328125
127, 0, 0, 1352.242919921875
128, 0, 0, 1342.37646484375
129, 0, 0, 1328.85693359375
130, 0, 0, 1308.375610351562
131, 0, 0, 1301.611450195312
132, 0, 0, 1284.4404296875
133, 0, 0, 1277.442626953125
134, 0, 0, 1271.975952148438
135, 0, 0, 1251.083374023438
136, 0, 0, 1247.056030273438
137, 0, 0, 1233.781860351562
138, 0, 0, 1224.74755859375
139, 0, 0, 1212.337158203125
140, 0, 0, 1203.4677734375
141, 0, 0, 1196.955932617188
142, 0, 0, 1186.69677734375
143, 0, 0, 1182.041015625
144, 0, 0, 1166.319580078125
145, 0, 0, 1160.358764648438
146, 0, 0, 1162.168579101562
147, 0, 0, 1148.365966796875
148, 0, 0, 1134.041870117188
149, 0, 0, 1132.720581054688
150, 0, 0, 1121.201904296875
151, 0, 0, 1115.1826171875
152, 0, 0, 1111.113037109375
153, 0, 0, 1102.28125
154, 0, 0, 1093.286499023438
155, 0, 0, 1083.589965820312
156, 0, 0, 1089.86767578125
157, 0, 0, 1080.011474609375
158, 0, 0, 1066.651000976562
159, 0, 0, 1063.8671875
160, 0, 0, 1068.871215820312
161, 0, 0, 1048.38134765625
162, 0, 0, 1049.219970703125
163, 0, 0, 1036.0419921875
164, 0, 0, 1038.04833984375
165, 0, 0, 1032.079467773438
166, 0, 0, 1024.577514648438
167, 0, 0, 1022.682189941406
168, 0, 0, 1011.38525390625
169, 0, 0, 1010.146362304688
170, 0, 0, 1010.83837890625
171, 0, 0, 1009.389709472656
172, 0, 0, 998.9531860351562
173, 0, 0, 999.7376708984375
174, 0, 0, 989.11474609375
175, 0, 0, 976.3793334960938
176, 0, 0, 973.0039672851562
177, 0, 0, 970.0889892578125
178, 0, 0, 972.111083984375
179, 0, 0, 973.3543090820312
