# TOPAS Version: 3.3.p1
# Parameter File: Test.txt
# Results for scorer MLIC_Scorer
# Scored in component: MLIC
# X in 180 bins of 0.177778 cm
# Y in 1 bin  of 10 cm
# Z in 1 bin  of 10 cm
# EnergyDeposit ( MeV ) : Sum   
0, 0, 0, 0
1, 0, 0, 0
2, 0, 0, 0
3, 0, 0, 0
4, 0, 0, 0
5, 0, 0, 0
6, 0, 0, 0
7, 0, 0, 0
8, 0, 0, 0.01294771488755941
9, 0, 0, 0.005760372150689363
10, 0, 0, 0
11, 0, 0, 0
12, 0, 0, 0
13, 0, 0, 0
14, 0, 0, 0
15, 0, 0, 0
16, 0, 0, 0
17, 0, 0, 0
18, 0, 0, 0
19, 0, 0, 0
20, 0, 0, 0
21, 0, 0, 0
22, 0, 0, 0
23, 0, 0, 0
24, 0, 0, 0
25, 0, 0, 0
26, 0, 0, 0
27, 0, 0, 0
28, 0, 0, 0
29, 0, 0, 0
30, 0, 0, 0
31, 0, 0, 0
32, 0, 0, 0
33, 0, 0, 0
34, 0, 0, 0
35, 0, 0, 0
36, 0, 0, 0
37, 0, 0, 0
38, 0, 0, 0
39, 0, 0, 0
40, 0, 0, 0
41, 0, 0, 0
42, 0, 0, 0
43, 0, 0, 0
44, 0, 0, 0
45, 0, 0, 0
46, 0, 0, 0
47, 0, 0, 0
48, 0, 0, 0
49, 0, 0, 0
50, 0, 0, 0
51, 0, 0, 0
52, 0, 0, 0
53, 0, 0, 0
54, 0, 0, 0
55, 0, 0, 0
56, 0, 0, 0
57, 0, 0, 0
58, 0, 0, 0
59, 0, 0, 0
60, 0, 0, 0
61, 0, 0, 0
62, 0, 0, 0
63, 0, 0, 0
64, 0, 0, 0
65, 0, 0, 0
66, 0, 0, 0
67, 0, 0, 0
68, 0, 0, 0
69, 0, 0, 0
70, 0, 0, 0
71, 0, 0, 0
72, 0, 0, 0
73, 0, 0, 0
74, 0, 0, 0
75, 0, 0, 0
76, 0, 0, 0
77, 0, 0, 0
78, 0, 0, 0
79, 0, 0, 0
80, 0, 0, 0
81, 0, 0, 0
82, 0, 0, 0
83, 0, 0, 0
84, 0, 0, 0
85, 0, 0, 0
86, 0, 0, 0
87, 0, 0, 0
88, 0, 0, 0
89, 0, 0, 0
90, 0, 0, 0
91, 0, 0, 0
92, 0, 0, 0
93, 0, 0, 0
94, 0, 0, 0
95, 0, 0, 0
96, 0, 0, 0
97, 0, 0, 0
98, 0, 0, 0
99, 0, 0, 0
100, 0, 0, 0
101, 0, 0, 0
102, 0, 0, 0
103, 0, 0, 0
104, 0, 0, 0.0009051804663613439
105, 0, 0, 0
106, 0, 0, 0.003935403656214476
107, 0, 0, 0
108, 0, 0, 0
109, 0, 0, 0
110, 0, 0, 0
111, 0, 0, 0.002776639303192496
112, 0, 0, 0
113, 0, 0, 0
114, 0, 0, 6.741824150085449
115, 0, 0, 79.35153961181641
116, 0, 0, 334.8390197753906
117, 0, 0, 950.1468505859375
118, 0, 0, 2205.3525390625
119, 0, 0, 3709.01025390625
120, 0, 0, 4785.43017578125
121, 0, 0, 4992.16943359375
122, 0, 0, 4695.96630859375
123, 0, 0, 4153.931640625
124, 0, 0, 3748.92822265625
125, 0, 0, 3367.337646484375
126, 0, 0, 3049.246826171875
127, 0, 0, 2823.6455078125
128, 0, 0, 2662.425048828125
129, 0, 0, 2515.0224609375
130, 0, 0, 2405.5546875
131, 0, 0, 2309.81884765625
132, 0, 0, 2212.845703125
133, 0, 0, 2145.717041015625
134, 0, 0, 2076.04443359375
135, 0, 0, 2015.4326171875
136, 0, 0, 1963.388427734375
137, 0, 0, 1909.023681640625
138, 0, 0, 1862.476684570312
139, 0, 0, 1819.9453125
140, 0, 0, 1780.304077148438
141, 0, 0, 1744.536376953125
142, 0, 0, 1711.627075195312
143, 0, 0, 1680.243286132812
144, 0, 0, 1645.872802734375
145, 0, 0, 1620.333740234375
146, 0, 0, 1596.807983398438
147, 0, 0, 1560.87890625
148, 0, 0, 1542.638793945312
149, 0, 0, 1523.80615234375
150, 0, 0, 1504.113647460938
151, 0, 0, 1483.920288085938
152, 0, 0, 1461.601440429688
153, 0, 0, 1438.28125
154, 0, 0, 1424.001220703125
155, 0, 0, 1407.70458984375
156, 0, 0, 1393.618896484375
157, 0, 0, 1370.3046875
158, 0, 0, 1371.818603515625
159, 0, 0, 1357.421264648438
160, 0, 0, 1334.499145507812
161, 0, 0, 1321.64208984375
162, 0, 0, 1305.770141601562
163, 0, 0, 1294.58447265625
164, 0, 0, 1277.947509765625
165, 0, 0, 1266.2490234375
166, 0, 0, 1261.672729492188
167, 0, 0, 1250.043701171875
168, 0, 0, 1227.354125976562
169, 0, 0, 1218.060424804688
170, 0, 0, 1218.682250976562
171, 0, 0, 1201.80224609375
172, 0, 0, 1193.221313476562
173, 0, 0, 1185.359008789062
174, 0, 0, 1175.994750976562
175, 0, 0, 1167.450805664062
176, 0, 0, 1158.617309570312
177, 0, 0, 1148.694458007812
178, 0, 0, 1142.550048828125
179, 0, 0, 1126.610229492188
