# TOPAS Version: 3.3.p1
# Parameter File: Test.txt
# Results for scorer MLIC_Scorer
# Scored in component: MLIC
# X in 180 bins of 0.222222 cm
# Y in 1 bin  of 10 cm
# Z in 1 bin  of 10 cm
# EnergyDeposit ( MeV ) : Sum   
0, 0, 0, 0
1, 0, 0, 0
2, 0, 0, 0
3, 0, 0, 0
4, 0, 0, 0
5, 0, 0, 0
6, 0, 0, 0
7, 0, 0, 0
8, 0, 0, 0
9, 0, 0, 0
10, 0, 0, 0
11, 0, 0, 0
12, 0, 0, 0
13, 0, 0, 0
14, 0, 0, 0
15, 0, 0, 0
16, 0, 0, 0
17, 0, 0, 0
18, 0, 0, 0
19, 0, 0, 0
20, 0, 0, 0
21, 0, 0, 0
22, 0, 0, 0
23, 0, 0, 0
24, 0, 0, 0
25, 0, 0, 0
26, 0, 0, 0
27, 0, 0, 0
28, 0, 0, 0
29, 0, 0, 0
30, 0, 0, 0
31, 0, 0, 0
32, 0, 0, 0
33, 0, 0, 0
34, 0, 0, 0
35, 0, 0, 0
36, 0, 0, 0
37, 0, 0, 0
38, 0, 0, 0
39, 0, 0, 0
40, 0, 0, 0
41, 0, 0, 0
42, 0, 0, 0
43, 0, 0, 0
44, 0, 0, 0
45, 0, 0, 0
46, 0, 0, 0
47, 0, 0, 0
48, 0, 0, 0
49, 0, 0, 0
50, 0, 0, 0
51, 0, 0, 0
52, 0, 0, 0
53, 0, 0, 0
54, 0, 0, 0
55, 0, 0, 0
56, 0, 0, 0
57, 0, 0, 0
58, 0, 0, 0
59, 0, 0, 0
60, 0, 0, 0
61, 0, 0, 0.007748126052320004
62, 0, 0, 0
63, 0, 0, 0
64, 0, 0, 0
65, 0, 0, 26.2783088684082
66, 0, 0, 129.9703369140625
67, 0, 0, 762.642333984375
68, 0, 0, 2161.503662109375
69, 0, 0, 4161.56005859375
70, 0, 0, 6080.34619140625
71, 0, 0, 6157.6962890625
72, 0, 0, 5489.16455078125
73, 0, 0, 4747.34130859375
74, 0, 0, 4094.74560546875
75, 0, 0, 3686.771728515625
76, 0, 0, 3384.61181640625
77, 0, 0, 3169.97265625
78, 0, 0, 2997.5419921875
79, 0, 0, 2841.880859375
80, 0, 0, 2717.108154296875
81, 0, 0, 2601.363525390625
82, 0, 0, 2509.466064453125
83, 0, 0, 2421.5458984375
84, 0, 0, 2353.840576171875
85, 0, 0, 2283.488037109375
86, 0, 0, 2222.65869140625
87, 0, 0, 2161.951416015625
88, 0, 0, 2110.640625
89, 0, 0, 2062.94970703125
90, 0, 0, 2022.305786132812
91, 0, 0, 1986.9453125
92, 0, 0, 1943.370239257812
93, 0, 0, 1902.99462890625
94, 0, 0, 1869.293823242188
95, 0, 0, 1850.54296875
96, 0, 0, 1807.6259765625
97, 0, 0, 1772.572387695312
98, 0, 0, 1758.216918945312
99, 0, 0, 1713.850830078125
100, 0, 0, 1708.244506835938
101, 0, 0, 1684.044555664062
102, 0, 0, 1667.775512695312
103, 0, 0, 1634.7158203125
104, 0, 0, 1617.602661132812
105, 0, 0, 1594.25244140625
106, 0, 0, 1578.763305664062
107, 0, 0, 1554.757690429688
108, 0, 0, 1547.4853515625
109, 0, 0, 1530.895141601562
110, 0, 0, 1508.399047851562
111, 0, 0, 1499.705932617188
112, 0, 0, 1479.469360351562
113, 0, 0, 1465.629638671875
114, 0, 0, 1452.737548828125
115, 0, 0, 1439.323364257812
116, 0, 0, 1428.634765625
117, 0, 0, 1421.710205078125
118, 0, 0, 1407.648071289062
119, 0, 0, 1395.021362304688
120, 0, 0, 1388.047485351562
121, 0, 0, 1373.341552734375
122, 0, 0, 1359.224365234375
123, 0, 0, 1349.965698242188
124, 0, 0, 1334.335083007812
125, 0, 0, 1334.629150390625
126, 0, 0, 1321.574462890625
127, 0, 0, 1309.474975585938
128, 0, 0, 1307.52001953125
129, 0, 0, 1302.725341796875
130, 0, 0, 1276.491577148438
131, 0, 0, 1270.581420898438
132, 0, 0, 1270.255859375
133, 0, 0, 1262.692260742188
134, 0, 0, 1245.436157226562
135, 0, 0, 1238.3662109375
136, 0, 0, 1231.419555664062
137, 0, 0, 1226.403564453125
138, 0, 0, 1218.153198242188
139, 0, 0, 1216.681030273438
140, 0, 0, 1212.672607421875
141, 0, 0, 1205.232421875
142, 0, 0, 1200.304077148438
143, 0, 0, 1193.690185546875
144, 0, 0, 1186.883056640625
145, 0, 0, 1174.022094726562
146, 0, 0, 1163.180053710938
147, 0, 0, 1163.893920898438
148, 0, 0, 1154.759887695312
149, 0, 0, 1158.092041015625
150, 0, 0, 1150.50634765625
151, 0, 0, 1151.828002929688
152, 0, 0, 1131.15966796875
153, 0, 0, 1131.31884765625
154, 0, 0, 1125.79345703125
155, 0, 0, 1124.194458007812
156, 0, 0, 1119.69677734375
157, 0, 0, 1112.223510742188
158, 0, 0, 1109.815063476562
159, 0, 0, 1099.238037109375
160, 0, 0, 1099.549438476562
161, 0, 0, 1093.215698242188
162, 0, 0, 1082.090209960938
163, 0, 0, 1083.007934570312
164, 0, 0, 1076.205444335938
165, 0, 0, 1078.768798828125
166, 0, 0, 1064.069091796875
167, 0, 0, 1062.409790039062
168, 0, 0, 1055.338134765625
169, 0, 0, 1056.084350585938
170, 0, 0, 1049.251342773438
171, 0, 0, 1049.444213867188
172, 0, 0, 1044.145629882812
173, 0, 0, 1034.093139648438
174, 0, 0, 1029.36767578125
175, 0, 0, 1037.825439453125
176, 0, 0, 1028.5146484375
177, 0, 0, 1031.609008789062
178, 0, 0, 1037.10546875
179, 0, 0, 1020.074768066406
