# TOPAS Version: 3.3.p1
# Parameter File: Test.txt
# Results for scorer MLIC_Scorer
# Scored in component: MLIC
# X in 180 bins of 0.177778 cm
# Y in 1 bin  of 10 cm
# Z in 1 bin  of 10 cm
# EnergyDeposit ( MeV ) : Sum   
0, 0, 0, 0
1, 0, 0, 0
2, 0, 0, 0
3, 0, 0, 0
4, 0, 0, 0
5, 0, 0, 0
6, 0, 0, 0
7, 0, 0, 0
8, 0, 0, 0
9, 0, 0, 0
10, 0, 0, 0
11, 0, 0, 0
12, 0, 0, 0
13, 0, 0, 0
14, 0, 0, 0
15, 0, 0, 0
16, 0, 0, 0.002408171072602272
17, 0, 0, 0
18, 0, 0, 0
19, 0, 0, 12.21752166748047
20, 0, 0, 84.68975830078125
21, 0, 0, 300.2901916503906
22, 0, 0, 1079.414794921875
23, 0, 0, 2366.83447265625
24, 0, 0, 3661.3876953125
25, 0, 0, 4808.10400390625
26, 0, 0, 5010.4267578125
27, 0, 0, 4731.50341796875
28, 0, 0, 4182.50048828125
29, 0, 0, 3647.76953125
30, 0, 0, 3312.131591796875
31, 0, 0, 3034.1376953125
32, 0, 0, 2816.762939453125
33, 0, 0, 2655.072998046875
34, 0, 0, 2510.5576171875
35, 0, 0, 2398.418212890625
36, 0, 0, 2301.806884765625
37, 0, 0, 2222.133056640625
38, 0, 0, 2136.736572265625
39, 0, 0, 2075.74658203125
40, 0, 0, 2015.958129882812
41, 0, 0, 1961.421020507812
42, 0, 0, 1914.40185546875
43, 0, 0, 1867.382934570312
44, 0, 0, 1821.354125976562
45, 0, 0, 1779.012573242188
46, 0, 0, 1745.942260742188
47, 0, 0, 1706.632202148438
48, 0, 0, 1682.577392578125
49, 0, 0, 1645.480224609375
50, 0, 0, 1619.348266601562
51, 0, 0, 1596.531127929688
52, 0, 0, 1565.2236328125
53, 0, 0, 1541.99462890625
54, 0, 0, 1521.2646484375
55, 0, 0, 1496.860595703125
56, 0, 0, 1473.722290039062
57, 0, 0, 1461.387939453125
58, 0, 0, 1445.832885742188
59, 0, 0, 1422.100708007812
60, 0, 0, 1411.66943359375
61, 0, 0, 1380.042724609375
62, 0, 0, 1375.865234375
63, 0, 0, 1350.789672851562
64, 0, 0, 1343.972412109375
65, 0, 0, 1324.909057617188
66, 0, 0, 1320.443481445312
67, 0, 0, 1297.826782226562
68, 0, 0, 1290.519165039062
69, 0, 0, 1273.438598632812
70, 0, 0, 1264.16845703125
71, 0, 0, 1252.477294921875
72, 0, 0, 1245.853759765625
73, 0, 0, 1228.826904296875
74, 0, 0, 1222.918823242188
75, 0, 0, 1209.297729492188
76, 0, 0, 1198.361572265625
77, 0, 0, 1191.511108398438
78, 0, 0, 1187.787841796875
79, 0, 0, 1174.819458007812
80, 0, 0, 1168.387573242188
81, 0, 0, 1153.521118164062
82, 0, 0, 1136.020385742188
83, 0, 0, 1140.196044921875
84, 0, 0, 1134.94677734375
85, 0, 0, 1124.881469726562
86, 0, 0, 1114.974243164062
87, 0, 0, 1111.822021484375
88, 0, 0, 1097.514892578125
89, 0, 0, 1096.69580078125
90, 0, 0, 1086.60498046875
91, 0, 0, 1085.83984375
92, 0, 0, 1080.178344726562
93, 0, 0, 1066.702514648438
94, 0, 0, 1057.707275390625
95, 0, 0, 1057.057495117188
96, 0, 0, 1048.310913085938
97, 0, 0, 1043.033569335938
98, 0, 0, 1033.0751953125
99, 0, 0, 1031.41357421875
100, 0, 0, 1023.056884765625
101, 0, 0, 1031.76123046875
102, 0, 0, 1015.800720214844
103, 0, 0, 1012.796997070312
104, 0, 0, 1005.833740234375
105, 0, 0, 997.2658081054688
106, 0, 0, 990.4779052734375
107, 0, 0, 998.5319213867188
108, 0, 0, 988.6491088867188
109, 0, 0, 987.2454833984375
110, 0, 0, 982.15625
111, 0, 0, 980.6752319335938
112, 0, 0, 969.56787109375
113, 0, 0, 970.2847900390625
114, 0, 0, 957.1481323242188
115, 0, 0, 955.1804809570312
116, 0, 0, 950.4702758789062
117, 0, 0, 951.1305541992188
118, 0, 0, 950.2385864257812
119, 0, 0, 938.8436889648438
120, 0, 0, 939.7425537109375
121, 0, 0, 945.6792602539062
122, 0, 0, 929.058349609375
123, 0, 0, 925.09765625
124, 0, 0, 917.0709228515625
125, 0, 0, 915.0274658203125
126, 0, 0, 916.9849853515625
127, 0, 0, 909.00732421875
128, 0, 0, 907.8187255859375
129, 0, 0, 913.2354736328125
130, 0, 0, 893.900390625
131, 0, 0, 887.8324584960938
132, 0, 0, 898.66650390625
133, 0, 0, 891.254150390625
134, 0, 0, 894.2860107421875
135, 0, 0, 887.3121948242188
136, 0, 0, 881.9048461914062
137, 0, 0, 880.4974365234375
138, 0, 0, 873.40869140625
139, 0, 0, 878.1442260742188
140, 0, 0, 865.7289428710938
141, 0, 0, 871.4887084960938
142, 0, 0, 864.9558715820312
143, 0, 0, 858.717041015625
144, 0, 0, 859.6239624023438
145, 0, 0, 862.6923217773438
146, 0, 0, 861.4661865234375
147, 0, 0, 855.00927734375
148, 0, 0, 849.786865234375
149, 0, 0, 838.9406127929688
150, 0, 0, 845.6734619140625
151, 0, 0, 841.280029296875
152, 0, 0, 842.1447143554688
153, 0, 0, 830.2985229492188
154, 0, 0, 836.7178955078125
155, 0, 0, 832.0344848632812
156, 0, 0, 828.8692016601562
157, 0, 0, 822.4321899414062
158, 0, 0, 819.7921142578125
159, 0, 0, 823.3380737304688
160, 0, 0, 817.9863891601562
161, 0, 0, 814.478271484375
162, 0, 0, 809.40673828125
163, 0, 0, 811.819091796875
164, 0, 0, 809.1375732421875
165, 0, 0, 805.26123046875
166, 0, 0, 810.8927612304688
167, 0, 0, 798.7013549804688
168, 0, 0, 804.7296142578125
169, 0, 0, 798.1796264648438
170, 0, 0, 795.5771484375
171, 0, 0, 789.6146240234375
172, 0, 0, 791.7901611328125
173, 0, 0, 797.3554077148438
174, 0, 0, 796.8924560546875
175, 0, 0, 791.7644653320312
176, 0, 0, 783.0571899414062
177, 0, 0, 781.8217163085938
178, 0, 0, 782.3482666015625
179, 0, 0, 773.1839599609375
