# TOPAS Version: 3.3.p1
# Parameter File: Test.txt
# Results for scorer MLIC_Scorer
# Scored in component: MLIC
# X in 180 bins of 0.183333 cm
# Y in 1 bin  of 10 cm
# Z in 1 bin  of 10 cm
# EnergyDeposit ( MeV ) : Sum   
0, 0, 0, 0
1, 0, 0, 0
2, 0, 0, 0
3, 0, 0, 0
4, 0, 0, 0
5, 0, 0, 0
6, 0, 0, 0
7, 0, 0, 0
8, 0, 0, 0
9, 0, 0, 0
10, 0, 0, 0
11, 0, 0, 0
12, 0, 0, 0
13, 0, 0, 0
14, 0, 0, 0
15, 0, 0, 0
16, 0, 0, 0
17, 0, 0, 0
18, 0, 0, 0
19, 0, 0, 0
20, 0, 0, 0
21, 0, 0, 0
22, 0, 0, 0
23, 0, 0, 0
24, 0, 0, 0
25, 0, 0, 0
26, 0, 0, 0
27, 0, 0, 0
28, 0, 0, 0
29, 0, 0, 0
30, 0, 0, 0
31, 0, 0, 0
32, 0, 0, 0
33, 0, 0, 0
34, 0, 0, 0
35, 0, 0, 0
36, 0, 0, 0
37, 0, 0, 0
38, 0, 0, 0
39, 0, 0, 0
40, 0, 0, 0
41, 0, 0, 0
42, 0, 0, 0
43, 0, 0, 0
44, 0, 0, 0
45, 0, 0, 0
46, 0, 0, 0
47, 0, 0, 0
48, 0, 0, 0
49, 0, 0, 0
50, 0, 0, 0
51, 0, 0, 0
52, 0, 0, 0
53, 0, 0, 0
54, 0, 0, 0
55, 0, 0, 0
56, 0, 0, 0
57, 0, 0, 0
58, 0, 0, 0
59, 0, 0, 0
60, 0, 0, 0
61, 0, 0, 0
62, 0, 0, 0
63, 0, 0, 0
64, 0, 0, 0
65, 0, 0, 0
66, 0, 0, 0
67, 0, 0, 0
68, 0, 0, 0
69, 0, 0, 0
70, 0, 0, 0
71, 0, 0, 0
72, 0, 0, 0
73, 0, 0, 0
74, 0, 0, 0
75, 0, 0, 0
76, 0, 0, 0
77, 0, 0, 0
78, 0, 0, 0
79, 0, 0, 0
80, 0, 0, 0.01231034938246012
81, 0, 0, 8.583612442016602
82, 0, 0, 25.28069305419922
83, 0, 0, 65.48630523681641
84, 0, 0, 249.4444580078125
85, 0, 0, 1032.430541992188
86, 0, 0, 2319.552490234375
87, 0, 0, 3900.77880859375
88, 0, 0, 4787.607421875
89, 0, 0, 5150.66357421875
90, 0, 0, 4875.876953125
91, 0, 0, 4248.09326171875
92, 0, 0, 3730.521484375
93, 0, 0, 3369.91943359375
94, 0, 0, 3072.072998046875
95, 0, 0, 2856.030029296875
96, 0, 0, 2696.4794921875
97, 0, 0, 2551.96826171875
98, 0, 0, 2436.32177734375
99, 0, 0, 2339.69970703125
100, 0, 0, 2254.955810546875
101, 0, 0, 2176.729248046875
102, 0, 0, 2104.15869140625
103, 0, 0, 2050.500732421875
104, 0, 0, 1990.73974609375
105, 0, 0, 1937.32568359375
106, 0, 0, 1892.915649414062
107, 0, 0, 1847.2744140625
108, 0, 0, 1808.515380859375
109, 0, 0, 1773.304321289062
110, 0, 0, 1737.028930664062
111, 0, 0, 1705.14453125
112, 0, 0, 1667.229858398438
113, 0, 0, 1647.121704101562
114, 0, 0, 1613.931640625
115, 0, 0, 1589.67578125
116, 0, 0, 1561.47412109375
117, 0, 0, 1549.590698242188
118, 0, 0, 1521.230102539062
119, 0, 0, 1508.127197265625
120, 0, 0, 1486.31005859375
121, 0, 0, 1464.135375976562
122, 0, 0, 1440.585693359375
123, 0, 0, 1427.8349609375
124, 0, 0, 1414.042358398438
125, 0, 0, 1400.1787109375
126, 0, 0, 1378.30712890625
127, 0, 0, 1362.62255859375
128, 0, 0, 1353.932373046875
129, 0, 0, 1338.019287109375
130, 0, 0, 1322.239379882812
131, 0, 0, 1315.167846679688
132, 0, 0, 1298.306274414062
133, 0, 0, 1285.559448242188
134, 0, 0, 1275.275512695312
135, 0, 0, 1271.878295898438
136, 0, 0, 1254.419067382812
137, 0, 0, 1240.636596679688
138, 0, 0, 1236.855590820312
139, 0, 0, 1223.78955078125
140, 0, 0, 1213.733642578125
141, 0, 0, 1200.864624023438
142, 0, 0, 1196.606811523438
143, 0, 0, 1192.995849609375
144, 0, 0, 1181.09765625
145, 0, 0, 1172.9697265625
146, 0, 0, 1167.152709960938
147, 0, 0, 1150.761962890625
148, 0, 0, 1148.706298828125
149, 0, 0, 1139.541748046875
150, 0, 0, 1137.505981445312
151, 0, 0, 1116.8955078125
152, 0, 0, 1109.817138671875
153, 0, 0, 1110.365356445312
154, 0, 0, 1104.875610351562
155, 0, 0, 1099.734375
156, 0, 0, 1081.45703125
157, 0, 0, 1079.887451171875
158, 0, 0, 1076.795288085938
159, 0, 0, 1062.97509765625
160, 0, 0, 1072.14990234375
161, 0, 0, 1064.792236328125
162, 0, 0, 1052.555786132812
163, 0, 0, 1040.586669921875
164, 0, 0, 1046.4052734375
165, 0, 0, 1028.895629882812
166, 0, 0, 1029.17822265625
167, 0, 0, 1020.856201171875
168, 0, 0, 1020.238342285156
169, 0, 0, 1019.893371582031
170, 0, 0, 1006.30322265625
171, 0, 0, 1011.043395996094
172, 0, 0, 1005.623779296875
173, 0, 0, 992.0713500976562
174, 0, 0, 992.1153564453125
175, 0, 0, 987.91943359375
176, 0, 0, 985.4927368164062
177, 0, 0, 980.1643676757812
178, 0, 0, 973.7573852539062
179, 0, 0, 977.7177734375
