# TOPAS Version: 3.3.p1
# Parameter File: Test.txt
# Results for scorer MLIC_Scorer
# Scored in component: MLIC
# X in 180 bins of 0.222222 cm
# Y in 1 bin  of 10 cm
# Z in 1 bin  of 10 cm
# EnergyDeposit ( MeV ) : Sum   
0, 0, 0, 0
1, 0, 0, 0
2, 0, 0, 0
3, 0, 0, 0
4, 0, 0, 0
5, 0, 0, 0
6, 0, 0, 0
7, 0, 0, 0
8, 0, 0, 0
9, 0, 0, 0
10, 0, 0, 0
11, 0, 0, 0
12, 0, 0, 0
13, 0, 0, 0
14, 0, 0, 0
15, 0, 0, 0
16, 0, 0, 0
17, 0, 0, 0
18, 0, 0, 0
19, 0, 0, 0
20, 0, 0, 0
21, 0, 0, 0
22, 0, 0, 0
23, 0, 0, 0
24, 0, 0, 0
25, 0, 0, 0
26, 0, 0, 0
27, 0, 0, 0
28, 0, 0, 0
29, 0, 0, 0
30, 0, 0, 0
31, 0, 0, 0
32, 0, 0, 0
33, 0, 0, 0
34, 0, 0, 0
35, 0, 0, 0
36, 0, 0, 0
37, 0, 0, 0
38, 0, 0, 0
39, 0, 0, 0
40, 0, 0, 0
41, 0, 0, 0
42, 0, 0, 0
43, 0, 0, 0
44, 0, 0, 0
45, 0, 0, 0
46, 0, 0, 0
47, 0, 0, 0
48, 0, 0, 0
49, 0, 0, 0
50, 0, 0, 0
51, 0, 0, 0
52, 0, 0, 0
53, 0, 0, 0
54, 0, 0, 0
55, 0, 0, 0
56, 0, 0, 0
57, 0, 0, 0
58, 0, 0, 0
59, 0, 0, 0
60, 0, 0, 0
61, 0, 0, 0
62, 0, 0, 0
63, 0, 0, 0
64, 0, 0, 0
65, 0, 0, 0
66, 0, 0, 9.01509952545166
67, 0, 0, 8.328129768371582
68, 0, 0, 172.2305603027344
69, 0, 0, 720.2095947265625
70, 0, 0, 2018.860595703125
71, 0, 0, 4226.81005859375
72, 0, 0, 5963.63330078125
73, 0, 0, 6207.81396484375
74, 0, 0, 5631.501953125
75, 0, 0, 4732.43017578125
76, 0, 0, 4099.40283203125
77, 0, 0, 3693.85302734375
78, 0, 0, 3389.011474609375
79, 0, 0, 3162.74267578125
80, 0, 0, 2986.874267578125
81, 0, 0, 2837.64111328125
82, 0, 0, 2722.391357421875
83, 0, 0, 2611.5068359375
84, 0, 0, 2512.233154296875
85, 0, 0, 2424.842041015625
86, 0, 0, 2349.190185546875
87, 0, 0, 2281.30322265625
88, 0, 0, 2217.14208984375
89, 0, 0, 2154.919921875
90, 0, 0, 2104.07861328125
91, 0, 0, 2074.4248046875
92, 0, 0, 2023.418701171875
93, 0, 0, 1968.414428710938
94, 0, 0, 1948.54296875
95, 0, 0, 1902.495849609375
96, 0, 0, 1867.3369140625
97, 0, 0, 1839.500610351562
98, 0, 0, 1811.443359375
99, 0, 0, 1781.294067382812
100, 0, 0, 1755.208862304688
101, 0, 0, 1733.256591796875
102, 0, 0, 1708.534912109375
103, 0, 0, 1694.912841796875
104, 0, 0, 1668.390869140625
105, 0, 0, 1642.750854492188
106, 0, 0, 1616.843994140625
107, 0, 0, 1588.167358398438
108, 0, 0, 1576.599853515625
109, 0, 0, 1565.904541015625
110, 0, 0, 1546.086303710938
111, 0, 0, 1531.173828125
112, 0, 0, 1519.210327148438
113, 0, 0, 1494.658813476562
114, 0, 0, 1484.885498046875
115, 0, 0, 1472.444091796875
116, 0, 0, 1450.97900390625
117, 0, 0, 1447.724365234375
118, 0, 0, 1429.813232421875
119, 0, 0, 1420.020629882812
120, 0, 0, 1401.103881835938
121, 0, 0, 1397.180419921875
122, 0, 0, 1391.321533203125
123, 0, 0, 1367.509521484375
124, 0, 0, 1365.095703125
125, 0, 0, 1355.955078125
126, 0, 0, 1330.948120117188
127, 0, 0, 1327.938232421875
128, 0, 0, 1319.19970703125
129, 0, 0, 1314.153198242188
130, 0, 0, 1303.788696289062
131, 0, 0, 1292.4638671875
132, 0, 0, 1283.761962890625
133, 0, 0, 1282.23095703125
134, 0, 0, 1274.67236328125
135, 0, 0, 1264.366333007812
136, 0, 0, 1258.924926757812
137, 0, 0, 1256.312622070312
138, 0, 0, 1233.84814453125
139, 0, 0, 1231.021118164062
140, 0, 0, 1230.570068359375
141, 0, 0, 1215.191650390625
142, 0, 0, 1213.860717773438
143, 0, 0, 1202.218627929688
144, 0, 0, 1188.448608398438
145, 0, 0, 1211.321533203125
146, 0, 0, 1200.090698242188
147, 0, 0, 1170.608520507812
148, 0, 0, 1165.857055664062
149, 0, 0, 1176.50341796875
150, 0, 0, 1161.241333007812
151, 0, 0, 1146.249389648438
152, 0, 0, 1148.660766601562
153, 0, 0, 1146.497802734375
154, 0, 0, 1140.487548828125
155, 0, 0, 1128.28173828125
156, 0, 0, 1124.552612304688
157, 0, 0, 1110.927490234375
158, 0, 0, 1116.54052734375
159, 0, 0, 1115.536865234375
160, 0, 0, 1107.446899414062
161, 0, 0, 1103.273315429688
162, 0, 0, 1098.953369140625
163, 0, 0, 1087.323974609375
164, 0, 0, 1084.386108398438
165, 0, 0, 1084.8154296875
166, 0, 0, 1076.861694335938
167, 0, 0, 1072.197509765625
168, 0, 0, 1068.90283203125
169, 0, 0, 1063.999267578125
170, 0, 0, 1063.885620117188
171, 0, 0, 1052.673950195312
172, 0, 0, 1055.5966796875
173, 0, 0, 1051.093994140625
174, 0, 0, 1045.60400390625
175, 0, 0, 1044.077514648438
176, 0, 0, 1045.693481445312
177, 0, 0, 1039.651245117188
178, 0, 0, 1032.127075195312
179, 0, 0, 1023.997192382812
