# TOPAS Version: 3.3.p1
# Parameter File: Test.txt
# Results for scorer MLIC_Scorer
# Scored in component: MLIC
# X in 165 bins of 0.2 cm
# Y in 1 bin  of 10 cm
# Z in 1 bin  of 10 cm
# EnergyDeposit ( MeV ) : Sum   
0, 0, 0, 0
1, 0, 0, 0
2, 0, 0, 0
3, 0, 0, 0
4, 0, 0, 0
5, 0, 0, 0
6, 0, 0, 0
7, 0, 0, 0
8, 0, 0, 0
9, 0, 0, 0
10, 0, 0, 0
11, 0, 0, 0
12, 0, 0, 0
13, 0, 0, 0
14, 0, 0, 0
15, 0, 0, 0
16, 0, 0, 0
17, 0, 0, 0
18, 0, 0, 0
19, 0, 0, 0
20, 0, 0, 0
21, 0, 0, 0
22, 0, 0, 0
23, 0, 0, 0
24, 0, 0, 0
25, 0, 0, 0
26, 0, 0, 0
27, 0, 0, 0
28, 0, 0, 0
29, 0, 0, 0
30, 0, 0, 0
31, 0, 0, 0
32, 0, 0, 0
33, 0, 0, 0
34, 0, 0, 0
35, 0, 0, 0
36, 0, 0, 0
37, 0, 0, 0
38, 0, 0, 0
39, 0, 0, 0
40, 0, 0, 0
41, 0, 0, 0
42, 0, 0, 0
43, 0, 0, 0
44, 0, 0, 0
45, 0, 0, 0
46, 0, 0, 0
47, 0, 0, 0
48, 0, 0, 0
49, 0, 0, 0
50, 0, 0, 0
51, 0, 0, 0
52, 0, 0, 0
53, 0, 0, 0
54, 0, 0, 0
55, 0, 0, 0
56, 0, 0, 0
57, 0, 0, 0
58, 0, 0, 0
59, 0, 0, 0
60, 0, 0, 0
61, 0, 0, 0
62, 0, 0, 0
63, 0, 0, 0
64, 0, 0, 0
65, 0, 0, 0
66, 0, 0, 0
67, 0, 0, 0
68, 0, 0, 0
69, 0, 0, 0
70, 0, 0, 0
71, 0, 0, 0
72, 0, 0, 0
73, 0, 0, 0
74, 0, 0, 0
75, 0, 0, 0
76, 0, 0, 0
77, 0, 0, 0
78, 0, 0, 0
79, 0, 0, 0
80, 0, 0, 0
81, 0, 0, 0
82, 0, 0, 0
83, 0, 0, 0
84, 0, 0, 0
85, 0, 0, 0
86, 0, 0, 0
87, 0, 0, 0
88, 0, 0, 0
89, 0, 0, 0
90, 0, 0, 0
91, 0, 0, 0
92, 0, 0, 0
93, 0, 0, 0
94, 0, 0, 0
95, 0, 0, 0
96, 0, 0, 0
97, 0, 0, 0
98, 0, 0, 0
99, 0, 0, 0
100, 0, 0, 6.526145458221436
101, 0, 0, 71.15972900390625
102, 0, 0, 462.8287658691406
103, 0, 0, 1237.829345703125
104, 0, 0, 2801.50146484375
105, 0, 0, 4378.6337890625
106, 0, 0, 5453.52197265625
107, 0, 0, 5500.09521484375
108, 0, 0, 4938.84814453125
109, 0, 0, 4286.4130859375
110, 0, 0, 3766.08154296875
111, 0, 0, 3431.051513671875
112, 0, 0, 3159.67431640625
113, 0, 0, 2953.634033203125
114, 0, 0, 2785.81982421875
115, 0, 0, 2653.596923828125
116, 0, 0, 2533.636474609375
117, 0, 0, 2429.707275390625
118, 0, 0, 2347.232666015625
119, 0, 0, 2265.0927734375
120, 0, 0, 2201.37646484375
121, 0, 0, 2132.73193359375
122, 0, 0, 2074.962158203125
123, 0, 0, 2024.941528320312
124, 0, 0, 1982.4267578125
125, 0, 0, 1932.5302734375
126, 0, 0, 1897.244384765625
127, 0, 0, 1861.119262695312
128, 0, 0, 1813.582885742188
129, 0, 0, 1782.843017578125
130, 0, 0, 1753.513793945312
131, 0, 0, 1715.995239257812
132, 0, 0, 1699.741088867188
133, 0, 0, 1673.021606445312
134, 0, 0, 1654.011596679688
135, 0, 0, 1614.822387695312
136, 0, 0, 1593.385375976562
137, 0, 0, 1574.065307617188
138, 0, 0, 1558.56396484375
139, 0, 0, 1537.781860351562
140, 0, 0, 1518.807983398438
141, 0, 0, 1498.286987304688
142, 0, 0, 1479.781616210938
143, 0, 0, 1469.603271484375
144, 0, 0, 1444.650390625
145, 0, 0, 1435.5517578125
146, 0, 0, 1420.359741210938
147, 0, 0, 1404.103393554688
148, 0, 0, 1394.644653320312
149, 0, 0, 1378.1650390625
150, 0, 0, 1364.744873046875
151, 0, 0, 1349.306884765625
152, 0, 0, 1340.069458007812
153, 0, 0, 1328.86962890625
154, 0, 0, 1312.106689453125
155, 0, 0, 1303.553588867188
156, 0, 0, 1292.627197265625
157, 0, 0, 1290.848388671875
158, 0, 0, 1272.445922851562
159, 0, 0, 1266.4619140625
160, 0, 0, 1250.402099609375
161, 0, 0, 1253.627685546875
162, 0, 0, 1241.091552734375
163, 0, 0, 1232.841186523438
164, 0, 0, 1219.320190429688
