# TOPAS Version: 3.3.p1
# Parameter File: Test.txt
# Results for scorer MLIC_Scorer
# Scored in component: MLIC
# X in 180 bins of 0.177778 cm
# Y in 1 bin  of 10 cm
# Z in 1 bin  of 10 cm
# EnergyDeposit ( MeV ) : Sum   
0, 0, 0, 0
1, 0, 0, 0
2, 0, 0, 0
3, 0, 0, 0
4, 0, 0, 0
5, 0, 0, 0
6, 0, 0, 0
7, 0, 0, 0
8, 0, 0, 0
9, 0, 0, 0
10, 0, 0, 0
11, 0, 0, 0
12, 0, 0, 0
13, 0, 0, 0
14, 0, 0, 0
15, 0, 0, 0
16, 0, 0, 0
17, 0, 0, 0
18, 0, 0, 0
19, 0, 0, 0
20, 0, 0, 0
21, 0, 0, 0
22, 0, 0, 0
23, 0, 0, 0
24, 0, 0, 0
25, 0, 0, 0
26, 0, 0, 0
27, 0, 0, 0
28, 0, 0, 0
29, 0, 0, 0
30, 0, 0, 0
31, 0, 0, 0
32, 0, 0, 0
33, 0, 0, 0
34, 0, 0, 0
35, 0, 0, 0
36, 0, 0, 0
37, 0, 0, 0
38, 0, 0, 0
39, 0, 0, 0
40, 0, 0, 0
41, 0, 0, 0
42, 0, 0, 0
43, 0, 0, 0
44, 0, 0, 0
45, 0, 0, 0
46, 0, 0, 0
47, 0, 0, 0
48, 0, 0, 0
49, 0, 0, 0
50, 0, 0, 0
51, 0, 0, 0
52, 0, 0, 0
53, 0, 0, 0
54, 0, 0, 0
55, 0, 0, 0
56, 0, 0, 0
57, 0, 0, 0
58, 0, 0, 0
59, 0, 0, 0
60, 0, 0, 0
61, 0, 0, 0
62, 0, 0, 0
63, 0, 0, 0
64, 0, 0, 0
65, 0, 0, 0
66, 0, 0, 0
67, 0, 0, 0
68, 0, 0, 0
69, 0, 0, 0
70, 0, 0, 0
71, 0, 0, 0
72, 0, 0, 0
73, 0, 0, 0
74, 0, 0, 0
75, 0, 0, 0
76, 0, 0, 0
77, 0, 0, 0
78, 0, 0, 0
79, 0, 0, 0
80, 0, 0, 0
81, 0, 0, 0
82, 0, 0, 0
83, 0, 0, 0
84, 0, 0, 0
85, 0, 0, 0
86, 0, 0, 0
87, 0, 0, 0
88, 0, 0, 0
89, 0, 0, 0
90, 0, 0, 0
91, 0, 0, 0
92, 0, 0, 0.03333227336406708
93, 0, 0, 0
94, 0, 0, 0
95, 0, 0, 0
96, 0, 0, 0
97, 0, 0, 0
98, 0, 0, 0
99, 0, 0, 0
100, 0, 0, 0
101, 0, 0, 0
102, 0, 0, 0
103, 0, 0, 0
104, 0, 0, 0
105, 0, 0, 0
106, 0, 0, 0
107, 0, 0, 0
108, 0, 0, 0
109, 0, 0, 0
110, 0, 0, 0
111, 0, 0, 0
112, 0, 0, 0
113, 0, 0, 0
114, 0, 0, 0
115, 0, 0, 0
116, 0, 0, 0
117, 0, 0, 0
118, 0, 0, 0
119, 0, 0, 0
120, 0, 0, 0
121, 0, 0, 0
122, 0, 0, 0
123, 0, 0, 0
124, 0, 0, 0
125, 0, 0, 0
126, 0, 0, 0
127, 0, 0, 0
128, 0, 0, 6.70416259765625
129, 0, 0, 33.16208267211914
130, 0, 0, 60.27495956420898
131, 0, 0, 179.4200286865234
132, 0, 0, 331.3879089355469
133, 0, 0, 442.7410278320312
134, 0, 0, 472.8227233886719
135, 0, 0, 496.1158447265625
136, 0, 0, 452.9052429199219
137, 0, 0, 371.15478515625
138, 0, 0, 329.2855834960938
139, 0, 0, 302.1267700195312
140, 0, 0, 280.5633850097656
141, 0, 0, 263.2669982910156
142, 0, 0, 249.5519104003906
143, 0, 0, 237.4071807861328
144, 0, 0, 226.1516571044922
145, 0, 0, 218.4450378417969
146, 0, 0, 211.9665222167969
147, 0, 0, 204.5753173828125
148, 0, 0, 199.0655364990234
149, 0, 0, 194.2350769042969
150, 0, 0, 189.5480804443359
151, 0, 0, 183.8830718994141
152, 0, 0, 177.0108032226562
153, 0, 0, 173.3483276367188
154, 0, 0, 170.5535430908203
155, 0, 0, 167.2037353515625
156, 0, 0, 163.7493438720703
157, 0, 0, 162.9718780517578
158, 0, 0, 162.7550811767578
159, 0, 0, 156.9410095214844
160, 0, 0, 155.8605041503906
161, 0, 0, 152.0556030273438
162, 0, 0, 149.2302703857422
163, 0, 0, 148.9259033203125
164, 0, 0, 144.9049377441406
165, 0, 0, 141.700439453125
166, 0, 0, 141.5696716308594
167, 0, 0, 138.3412933349609
168, 0, 0, 139.9578094482422
169, 0, 0, 136.2297210693359
170, 0, 0, 135.1661529541016
171, 0, 0, 132.1541595458984
172, 0, 0, 128.5903167724609
173, 0, 0, 129.7485504150391
174, 0, 0, 129.9195404052734
175, 0, 0, 126.787971496582
176, 0, 0, 124.5461578369141
177, 0, 0, 126.1499176025391
178, 0, 0, 124.1932144165039
179, 0, 0, 122.0776824951172
