# TOPAS Version: 3.3.p1
# Parameter File: Test.txt
# Results for scorer MLIC_Scorer
# Scored in component: MLIC
# X in 180 bins of 0.177778 cm
# Y in 1 bin  of 10 cm
# Z in 1 bin  of 10 cm
# EnergyDeposit ( MeV ) : Sum   
0, 0, 0, 0
1, 0, 0, 0
2, 0, 0, 0
3, 0, 0, 0
4, 0, 0, 0
5, 0, 0, 0
6, 0, 0, 0
7, 0, 0, 0
8, 0, 0, 0
9, 0, 0, 0
10, 0, 0, 0
11, 0, 0, 0
12, 0, 0, 0
13, 0, 0, 0
14, 0, 0, 0
15, 0, 0, 0
16, 0, 0, 0
17, 0, 0, 0
18, 0, 0, 0
19, 0, 0, 0
20, 0, 0, 0
21, 0, 0, 0
22, 0, 0, 0
23, 0, 0, 0
24, 0, 0, 0
25, 0, 0, 0
26, 0, 0, 0
27, 0, 0, 0
28, 0, 0, 0
29, 0, 0, 0
30, 0, 0, 0
31, 0, 0, 0
32, 0, 0, 0
33, 0, 0, 0
34, 0, 0, 0
35, 0, 0, 0
36, 0, 0, 0
37, 0, 0, 0
38, 0, 0, 0
39, 0, 0, 0
40, 0, 0, 0
41, 0, 0, 0
42, 0, 0, 0
43, 0, 0, 0
44, 0, 0, 0
45, 0, 0, 0
46, 0, 0, 0
47, 0, 0, 0
48, 0, 0, 0
49, 0, 0, 0
50, 0, 0, 0
51, 0, 0, 0
52, 0, 0, 0
53, 0, 0, 0
54, 0, 0, 0
55, 0, 0, 0
56, 0, 0, 7.482649803161621
57, 0, 0, 52.27482604980469
58, 0, 0, 161.6405792236328
59, 0, 0, 275.3737182617188
60, 0, 0, 384.2039489746094
61, 0, 0, 445.2899780273438
62, 0, 0, 376.6389465332031
63, 0, 0, 313.9772644042969
64, 0, 0, 278.0468139648438
65, 0, 0, 254.18896484375
66, 0, 0, 231.3249816894531
67, 0, 0, 218.2164764404297
68, 0, 0, 205.1161804199219
69, 0, 0, 193.4502716064453
70, 0, 0, 185.3446807861328
71, 0, 0, 177.6616668701172
72, 0, 0, 172.7512359619141
73, 0, 0, 165.9807281494141
74, 0, 0, 160.9190673828125
75, 0, 0, 156.5745239257812
76, 0, 0, 150.4314422607422
77, 0, 0, 145.9384613037109
78, 0, 0, 144.4692993164062
79, 0, 0, 139.395751953125
80, 0, 0, 137.0612182617188
81, 0, 0, 133.23681640625
82, 0, 0, 132.8697509765625
83, 0, 0, 129.6105804443359
84, 0, 0, 128.5103607177734
85, 0, 0, 123.574462890625
86, 0, 0, 122.6022872924805
87, 0, 0, 120.3349151611328
88, 0, 0, 119.0963897705078
89, 0, 0, 117.4564208984375
90, 0, 0, 117.0891342163086
91, 0, 0, 113.4998626708984
92, 0, 0, 112.8778457641602
93, 0, 0, 110.7436981201172
94, 0, 0, 110.28955078125
95, 0, 0, 109.1095504760742
96, 0, 0, 107.4883728027344
97, 0, 0, 105.4348602294922
98, 0, 0, 103.2124252319336
99, 0, 0, 103.0423736572266
100, 0, 0, 99.13333129882812
101, 0, 0, 101.9367370605469
102, 0, 0, 103.4541854858398
103, 0, 0, 99.27127838134766
104, 0, 0, 97.40366363525391
105, 0, 0, 96.54450988769531
106, 0, 0, 97.07817840576172
107, 0, 0, 94.96126556396484
108, 0, 0, 95.01351928710938
109, 0, 0, 94.42597198486328
110, 0, 0, 92.85073089599609
111, 0, 0, 92.63058471679688
112, 0, 0, 89.98583984375
113, 0, 0, 92.09778594970703
114, 0, 0, 90.63783264160156
115, 0, 0, 89.99391937255859
116, 0, 0, 88.09717559814453
117, 0, 0, 86.7147216796875
118, 0, 0, 88.70386505126953
119, 0, 0, 86.08362579345703
120, 0, 0, 87.14284515380859
121, 0, 0, 85.08916473388672
122, 0, 0, 85.42002105712891
123, 0, 0, 85.12077331542969
124, 0, 0, 84.19525146484375
125, 0, 0, 83.78892517089844
126, 0, 0, 82.40094757080078
127, 0, 0, 84.1346435546875
128, 0, 0, 81.71909332275391
129, 0, 0, 80.21261596679688
130, 0, 0, 81.35899353027344
131, 0, 0, 79.75000762939453
132, 0, 0, 81.38330841064453
133, 0, 0, 78.71601104736328
134, 0, 0, 78.3604736328125
135, 0, 0, 79.56961822509766
136, 0, 0, 80.62752532958984
137, 0, 0, 78.21506500244141
138, 0, 0, 76.42118072509766
139, 0, 0, 76.52288818359375
140, 0, 0, 77.19393920898438
141, 0, 0, 74.69287109375
142, 0, 0, 74.48572540283203
143, 0, 0, 76.29831695556641
144, 0, 0, 75.00030517578125
145, 0, 0, 75.83382415771484
146, 0, 0, 75.85215759277344
147, 0, 0, 75.26963043212891
148, 0, 0, 73.82267761230469
149, 0, 0, 74.14199829101562
150, 0, 0, 72.13527679443359
151, 0, 0, 73.52898406982422
152, 0, 0, 72.01157379150391
153, 0, 0, 71.76470947265625
154, 0, 0, 71.77348327636719
155, 0, 0, 72.96030426025391
156, 0, 0, 71.40749359130859
157, 0, 0, 71.08389282226562
158, 0, 0, 72.50264739990234
159, 0, 0, 72.289794921875
160, 0, 0, 71.37877655029297
161, 0, 0, 69.46059417724609
162, 0, 0, 69.47052001953125
163, 0, 0, 69.76817321777344
164, 0, 0, 69.82221221923828
165, 0, 0, 69.07542419433594
166, 0, 0, 67.341796875
167, 0, 0, 68.89284515380859
168, 0, 0, 67.80916595458984
169, 0, 0, 68.34954833984375
170, 0, 0, 70.61959075927734
171, 0, 0, 70.37454223632812
172, 0, 0, 66.86028289794922
173, 0, 0, 67.32624816894531
174, 0, 0, 67.20845794677734
175, 0, 0, 66.87446594238281
176, 0, 0, 66.04293060302734
177, 0, 0, 68.63276672363281
178, 0, 0, 66.57175445556641
179, 0, 0, 66.59593200683594
