# TOPAS Version: 3.3.p1
# Parameter File: Test.txt
# Results for scorer MLIC_Scorer
# Scored in component: MLIC
# X in 180 bins of 0.183333 cm
# Y in 1 bin  of 10 cm
# Z in 1 bin  of 10 cm
# EnergyDeposit ( MeV ) : Sum   
0, 0, 0, 0
1, 0, 0, 0
2, 0, 0, 0
3, 0, 0, 0
4, 0, 0, 0
5, 0, 0, 0
6, 0, 0, 0
7, 0, 0, 0
8, 0, 0, 0
9, 0, 0, 0
10, 0, 0, 0
11, 0, 0, 0
12, 0, 0, 0
13, 0, 0, 0
14, 0, 0, 0
15, 0, 0, 0
16, 0, 0, 0
17, 0, 0, 0
18, 0, 0, 0
19, 0, 0, 0
20, 0, 0, 0
21, 0, 0, 0
22, 0, 0, 0
23, 0, 0, 0
24, 0, 0, 0
25, 0, 0, 0
26, 0, 0, 0
27, 0, 0, 0
28, 0, 0, 0
29, 0, 0, 0
30, 0, 0, 0
31, 0, 0, 0
32, 0, 0, 0
33, 0, 0, 0
34, 0, 0, 0.002989473287016153
35, 0, 0, 0
36, 0, 0, 0
37, 0, 0, 0
38, 0, 0, 0
39, 0, 0, 0.03609807044267654
40, 0, 0, 0
41, 0, 0, 0
42, 0, 0, 0.001486029126681387
43, 0, 0, 0
44, 0, 0, 0.00715605728328228
45, 0, 0, 0
46, 0, 0, 0
47, 0, 0, 7.769182205200195
48, 0, 0, 70.64240264892578
49, 0, 0, 286.5907287597656
50, 0, 0, 853.1482543945312
51, 0, 0, 2085.275146484375
52, 0, 0, 3410.61865234375
53, 0, 0, 4932.24951171875
54, 0, 0, 5249.419921875
55, 0, 0, 4932.9638671875
56, 0, 0, 4375.8408203125
57, 0, 0, 3761.042724609375
58, 0, 0, 3399.801513671875
59, 0, 0, 3096.611572265625
60, 0, 0, 2872.0361328125
61, 0, 0, 2708.939453125
62, 0, 0, 2577.9755859375
63, 0, 0, 2454.904541015625
64, 0, 0, 2357.3818359375
65, 0, 0, 2266.5361328125
66, 0, 0, 2198.885498046875
67, 0, 0, 2116.0126953125
68, 0, 0, 2056.501953125
69, 0, 0, 2000.883544921875
70, 0, 0, 1947.546142578125
71, 0, 0, 1899.273193359375
72, 0, 0, 1861.100219726562
73, 0, 0, 1821.247192382812
74, 0, 0, 1783.646728515625
75, 0, 0, 1744.681030273438
76, 0, 0, 1705.355102539062
77, 0, 0, 1672.053955078125
78, 0, 0, 1652.438598632812
79, 0, 0, 1620.18798828125
80, 0, 0, 1594.492065429688
81, 0, 0, 1564.560791015625
82, 0, 0, 1554.1083984375
83, 0, 0, 1526.062622070312
84, 0, 0, 1502.734375
85, 0, 0, 1490.210205078125
86, 0, 0, 1477.359008789062
87, 0, 0, 1449.625122070312
88, 0, 0, 1432.115966796875
89, 0, 0, 1419.610473632812
90, 0, 0, 1403.612426757812
91, 0, 0, 1390.492919921875
92, 0, 0, 1371.790405273438
93, 0, 0, 1359.32666015625
94, 0, 0, 1341.563842773438
95, 0, 0, 1323.965576171875
96, 0, 0, 1319.200927734375
97, 0, 0, 1308.731079101562
98, 0, 0, 1287.0546875
99, 0, 0, 1275.576171875
100, 0, 0, 1262.597778320312
101, 0, 0, 1254.47802734375
102, 0, 0, 1239.067138671875
103, 0, 0, 1237.524291992188
104, 0, 0, 1217.453002929688
105, 0, 0, 1210.66552734375
106, 0, 0, 1208.08935546875
107, 0, 0, 1201.400390625
108, 0, 0, 1187.364013671875
109, 0, 0, 1181.431396484375
110, 0, 0, 1165.74853515625
111, 0, 0, 1159.192626953125
112, 0, 0, 1150.4697265625
113, 0, 0, 1141.518188476562
114, 0, 0, 1132.027709960938
115, 0, 0, 1128.339965820312
116, 0, 0, 1128.354370117188
117, 0, 0, 1118.6748046875
118, 0, 0, 1106.8232421875
119, 0, 0, 1107.587646484375
120, 0, 0, 1097.0673828125
121, 0, 0, 1088.465209960938
122, 0, 0, 1082.555419921875
123, 0, 0, 1074.838012695312
124, 0, 0, 1070.91943359375
125, 0, 0, 1058.839599609375
126, 0, 0, 1053.971435546875
127, 0, 0, 1058.133178710938
128, 0, 0, 1054.521606445312
129, 0, 0, 1041.053955078125
130, 0, 0, 1046.5693359375
131, 0, 0, 1037.740112304688
132, 0, 0, 1030.632202148438
133, 0, 0, 1019.550964355469
134, 0, 0, 1015.546569824219
135, 0, 0, 1013.656433105469
136, 0, 0, 1012.148620605469
137, 0, 0, 1004.54541015625
138, 0, 0, 998.2811889648438
139, 0, 0, 1001.511352539062
140, 0, 0, 991.9895629882812
141, 0, 0, 973.3523559570312
142, 0, 0, 977.8325805664062
143, 0, 0, 973.1006469726562
144, 0, 0, 966.8175048828125
145, 0, 0, 970.1707153320312
146, 0, 0, 965.9280395507812
147, 0, 0, 959.49365234375
148, 0, 0, 957.7337646484375
149, 0, 0, 950.4661254882812
150, 0, 0, 947.6461181640625
151, 0, 0, 949.5735473632812
152, 0, 0, 937.5877685546875
153, 0, 0, 937.6010131835938
154, 0, 0, 927.7486572265625
155, 0, 0, 930.2709350585938
156, 0, 0, 923.0932006835938
157, 0, 0, 924.7210083007812
158, 0, 0, 923.7174682617188
159, 0, 0, 917.1697387695312
160, 0, 0, 914.0465087890625
161, 0, 0, 914.2808837890625
162, 0, 0, 917.88671875
163, 0, 0, 903.0957641601562
164, 0, 0, 898.3003540039062
165, 0, 0, 892.7969360351562
166, 0, 0, 896.894287109375
167, 0, 0, 886.186767578125
168, 0, 0, 881.2127075195312
169, 0, 0, 884.2487182617188
170, 0, 0, 879.6126098632812
171, 0, 0, 883.633544921875
172, 0, 0, 867.5546875
173, 0, 0, 868.3180541992188
174, 0, 0, 874.7659301757812
175, 0, 0, 872.18701171875
176, 0, 0, 868.9341430664062
177, 0, 0, 860.2526245117188
178, 0, 0, 862.793701171875
179, 0, 0, 856.5138549804688
