# TOPAS Version: 3.3.p1
# Parameter File: Test.txt
# Results for scorer MLIC_Scorer
# Scored in component: MLIC
# X in 180 bins of 0.177778 cm
# Y in 1 bin  of 10 cm
# Z in 1 bin  of 10 cm
# EnergyDeposit ( MeV ) : Sum   
0, 0, 0, 0
1, 0, 0, 0
2, 0, 0, 0
3, 0, 0, 0
4, 0, 0, 0
5, 0, 0, 0
6, 0, 0, 0
7, 0, 0, 0
8, 0, 0, 0
9, 0, 0, 0
10, 0, 0, 0
11, 0, 0, 0
12, 0, 0, 0
13, 0, 0, 0
14, 0, 0, 0
15, 0, 0, 0
16, 0, 0, 0
17, 0, 0, 0
18, 0, 0, 0
19, 0, 0, 0
20, 0, 0, 0
21, 0, 0, 0
22, 0, 0, 0
23, 0, 0, 0
24, 0, 0, 0
25, 0, 0, 0
26, 0, 0, 0
27, 0, 0, 0
28, 0, 0, 0
29, 0, 0, 0
30, 0, 0, 0
31, 0, 0, 0
32, 0, 0, 0
33, 0, 0, 0
34, 0, 0, 0
35, 0, 0, 0
36, 0, 0, 0
37, 0, 0, 0
38, 0, 0, 0
39, 0, 0, 0
40, 0, 0, 0
41, 0, 0, 0
42, 0, 0, 0
43, 0, 0, 0
44, 0, 0, 0
45, 0, 0, 0
46, 0, 0, 0
47, 0, 0, 0
48, 0, 0, 0
49, 0, 0, 0
50, 0, 0, 0
51, 0, 0, 0
52, 0, 0, 0
53, 0, 0, 0
54, 0, 0, 0
55, 0, 0, 0
56, 0, 0, 0
57, 0, 0, 0
58, 0, 0, 0
59, 0, 0, 0
60, 0, 0, 0
61, 0, 0, 0
62, 0, 0, 0
63, 0, 0, 0
64, 0, 0, 0
65, 0, 0, 0
66, 0, 0, 0
67, 0, 0, 0
68, 0, 0, 0
69, 0, 0, 0
70, 0, 0, 0
71, 0, 0, 0
72, 0, 0, 0
73, 0, 0, 0
74, 0, 0, 0
75, 0, 0, 0
76, 0, 0, 0
77, 0, 0, 0
78, 0, 0, 0
79, 0, 0, 0
80, 0, 0, 0
81, 0, 0, 0
82, 0, 0, 0
83, 0, 0, 0
84, 0, 0, 0
85, 0, 0, 0
86, 0, 0, 0.08194458484649658
87, 0, 0, 0
88, 0, 0, 0
89, 0, 0, 0
90, 0, 0, 0
91, 0, 0, 0
92, 0, 0, 36.56943511962891
93, 0, 0, 140.0475463867188
94, 0, 0, 561.3856201171875
95, 0, 0, 1609.340942382812
96, 0, 0, 2997.30078125
97, 0, 0, 4368.068359375
98, 0, 0, 4872.14794921875
99, 0, 0, 4954.47607421875
100, 0, 0, 4518.1669921875
101, 0, 0, 3973.501220703125
102, 0, 0, 3475.36181640625
103, 0, 0, 3171.30859375
104, 0, 0, 2915.013916015625
105, 0, 0, 2732.232421875
106, 0, 0, 2590.009765625
107, 0, 0, 2461.936279296875
108, 0, 0, 2351.879150390625
109, 0, 0, 2260.96142578125
110, 0, 0, 2182.457275390625
111, 0, 0, 2101.122314453125
112, 0, 0, 2047.885131835938
113, 0, 0, 1991.6318359375
114, 0, 0, 1932.74169921875
115, 0, 0, 1883.239013671875
116, 0, 0, 1837.725952148438
117, 0, 0, 1804.596557617188
118, 0, 0, 1762.8720703125
119, 0, 0, 1726.244384765625
120, 0, 0, 1700.220581054688
121, 0, 0, 1665.551879882812
122, 0, 0, 1632.11669921875
123, 0, 0, 1603.90185546875
124, 0, 0, 1581.35498046875
125, 0, 0, 1553.774536132812
126, 0, 0, 1527.8515625
127, 0, 0, 1509.272705078125
128, 0, 0, 1484.756591796875
129, 0, 0, 1470.46826171875
130, 0, 0, 1451.204223632812
131, 0, 0, 1434.630859375
132, 0, 0, 1412.992553710938
133, 0, 0, 1390.971313476562
134, 0, 0, 1379.502807617188
135, 0, 0, 1367.75390625
136, 0, 0, 1352.3134765625
137, 0, 0, 1339.754638671875
138, 0, 0, 1321.26220703125
139, 0, 0, 1313.524536132812
140, 0, 0, 1288.572143554688
141, 0, 0, 1283.086181640625
142, 0, 0, 1275.14599609375
143, 0, 0, 1258.139892578125
144, 0, 0, 1251.216918945312
145, 0, 0, 1237.947631835938
146, 0, 0, 1227.7060546875
147, 0, 0, 1223.267211914062
148, 0, 0, 1206.3935546875
149, 0, 0, 1200.524169921875
150, 0, 0, 1187.802734375
151, 0, 0, 1180.511352539062
152, 0, 0, 1162.17578125
153, 0, 0, 1153.662719726562
154, 0, 0, 1154.08740234375
155, 0, 0, 1147.220581054688
156, 0, 0, 1138.101440429688
157, 0, 0, 1130.598022460938
158, 0, 0, 1122.470581054688
159, 0, 0, 1110.775756835938
160, 0, 0, 1102.39794921875
161, 0, 0, 1098.428955078125
162, 0, 0, 1094.59130859375
163, 0, 0, 1088.606079101562
164, 0, 0, 1083.43798828125
165, 0, 0, 1071.066162109375
166, 0, 0, 1061.276977539062
167, 0, 0, 1061.069091796875
168, 0, 0, 1056.2939453125
169, 0, 0, 1041.068969726562
170, 0, 0, 1040.224609375
171, 0, 0, 1044.2431640625
172, 0, 0, 1031.021362304688
173, 0, 0, 1026.072875976562
174, 0, 0, 1016.023559570312
175, 0, 0, 1012.998168945312
176, 0, 0, 1018.679565429688
177, 0, 0, 1000.628967285156
178, 0, 0, 1000.760559082031
179, 0, 0, 1001.882629394531
