# TOPAS Version: 3.3.p1
# Parameter File: Test.txt
# Results for scorer MLIC_Scorer
# Scored in component: MLIC
# X in 180 bins of 0.177778 cm
# Y in 1 bin  of 10 cm
# Z in 1 bin  of 10 cm
# EnergyDeposit ( MeV ) : Sum   
0, 0, 0, 0
1, 0, 0, 0
2, 0, 0, 0
3, 0, 0, 0
4, 0, 0, 0
5, 0, 0, 0
6, 0, 0, 0
7, 0, 0, 0
8, 0, 0, 12.62015914916992
9, 0, 0, 178.3842468261719
10, 0, 0, 383.143798828125
11, 0, 0, 1099.995727539062
12, 0, 0, 2325.3330078125
13, 0, 0, 4136.36376953125
14, 0, 0, 4928.1806640625
15, 0, 0, 4894.357421875
16, 0, 0, 4597.5986328125
17, 0, 0, 4119.3720703125
18, 0, 0, 3634.651611328125
19, 0, 0, 3287.811767578125
20, 0, 0, 3003.643310546875
21, 0, 0, 2800.833251953125
22, 0, 0, 2635.73193359375
23, 0, 0, 2499.227783203125
24, 0, 0, 2391.4111328125
25, 0, 0, 2298.04150390625
26, 0, 0, 2209.103515625
27, 0, 0, 2132.7470703125
28, 0, 0, 2074.286865234375
29, 0, 0, 2013.160766601562
30, 0, 0, 1952.270874023438
31, 0, 0, 1892.9130859375
32, 0, 0, 1853.501953125
33, 0, 0, 1813.8154296875
34, 0, 0, 1776.862060546875
35, 0, 0, 1740.99072265625
36, 0, 0, 1708.580444335938
37, 0, 0, 1676.932250976562
38, 0, 0, 1649.23486328125
39, 0, 0, 1617.857299804688
40, 0, 0, 1594.481079101562
41, 0, 0, 1559.403564453125
42, 0, 0, 1536.075073242188
43, 0, 0, 1511.283325195312
44, 0, 0, 1497.507202148438
45, 0, 0, 1474.914916992188
46, 0, 0, 1449.875732421875
47, 0, 0, 1442.73583984375
48, 0, 0, 1419.22607421875
49, 0, 0, 1406.338500976562
50, 0, 0, 1381.651123046875
51, 0, 0, 1367.995727539062
52, 0, 0, 1351.745361328125
53, 0, 0, 1340.1904296875
54, 0, 0, 1326.385620117188
55, 0, 0, 1313.363403320312
56, 0, 0, 1301.271850585938
57, 0, 0, 1291.585693359375
58, 0, 0, 1269.886596679688
59, 0, 0, 1263.967407226562
60, 0, 0, 1254.256958007812
61, 0, 0, 1239.912353515625
62, 0, 0, 1228.985961914062
63, 0, 0, 1218.786865234375
64, 0, 0, 1207.230712890625
65, 0, 0, 1201.814208984375
66, 0, 0, 1191.34228515625
67, 0, 0, 1183.619750976562
68, 0, 0, 1163.630126953125
69, 0, 0, 1166.914672851562
70, 0, 0, 1155.588989257812
71, 0, 0, 1143.981811523438
72, 0, 0, 1133.369873046875
73, 0, 0, 1133.91552734375
74, 0, 0, 1120.476684570312
75, 0, 0, 1121.323120117188
76, 0, 0, 1111.559326171875
77, 0, 0, 1099.350219726562
78, 0, 0, 1093.558715820312
79, 0, 0, 1085.30615234375
80, 0, 0, 1079.962524414062
81, 0, 0, 1074.174072265625
82, 0, 0, 1063.851806640625
83, 0, 0, 1067.022705078125
84, 0, 0, 1055.671997070312
85, 0, 0, 1047.935424804688
86, 0, 0, 1038.48974609375
87, 0, 0, 1047.4853515625
88, 0, 0, 1041.413330078125
89, 0, 0, 1026.961181640625
90, 0, 0, 1025.439453125
91, 0, 0, 1015.073425292969
92, 0, 0, 1007.444030761719
93, 0, 0, 1010.634765625
94, 0, 0, 1004.165771484375
95, 0, 0, 997.3369750976562
96, 0, 0, 988.8998413085938
97, 0, 0, 990.1022338867188
98, 0, 0, 982.8552856445312
99, 0, 0, 979.662353515625
100, 0, 0, 975.8359985351562
101, 0, 0, 963.177490234375
102, 0, 0, 964.0465698242188
103, 0, 0, 957.384765625
104, 0, 0, 954.2234497070312
105, 0, 0, 954.1512451171875
106, 0, 0, 951.36083984375
107, 0, 0, 935.1024780273438
108, 0, 0, 939.7608642578125
109, 0, 0, 944.4684448242188
110, 0, 0, 934.3763427734375
111, 0, 0, 925.6053466796875
112, 0, 0, 918.6055297851562
113, 0, 0, 930.7758178710938
114, 0, 0, 916.99658203125
115, 0, 0, 911.300048828125
116, 0, 0, 914.5579223632812
117, 0, 0, 914.7340087890625
118, 0, 0, 897.7642822265625
119, 0, 0, 907.7183227539062
120, 0, 0, 906.5525512695312
121, 0, 0, 892.7528076171875
122, 0, 0, 897.2991943359375
123, 0, 0, 886.6997680664062
124, 0, 0, 884.0458374023438
125, 0, 0, 878.2234497070312
126, 0, 0, 880.7094116210938
127, 0, 0, 877.9235229492188
128, 0, 0, 872.6138916015625
129, 0, 0, 872.33349609375
130, 0, 0, 868.4417114257812
131, 0, 0, 872.4991455078125
132, 0, 0, 869.11767578125
133, 0, 0, 859.9738159179688
134, 0, 0, 848.532470703125
135, 0, 0, 849.1806640625
136, 0, 0, 850.67236328125
137, 0, 0, 849.767333984375
138, 0, 0, 850.6546020507812
139, 0, 0, 838.4779052734375
140, 0, 0, 845.3001708984375
141, 0, 0, 847.5847778320312
142, 0, 0, 839.3861694335938
143, 0, 0, 832.1732788085938
144, 0, 0, 830.2188110351562
145, 0, 0, 828.6841430664062
146, 0, 0, 823.8262939453125
147, 0, 0, 819.0857543945312
148, 0, 0, 823.3294677734375
149, 0, 0, 819.0015258789062
150, 0, 0, 814.1219482421875
151, 0, 0, 814.7125244140625
152, 0, 0, 812.5573120117188
153, 0, 0, 814.1703491210938
154, 0, 0, 809.287109375
155, 0, 0, 807.6968383789062
156, 0, 0, 801.5979614257812
157, 0, 0, 800.4386596679688
158, 0, 0, 805.1950073242188
159, 0, 0, 796.6818237304688
160, 0, 0, 794.0794677734375
161, 0, 0, 789.7621459960938
162, 0, 0, 793.2916870117188
163, 0, 0, 774.9694213867188
164, 0, 0, 786.4686279296875
165, 0, 0, 789.7694091796875
166, 0, 0, 790.23291015625
167, 0, 0, 781.1692504882812
168, 0, 0, 778.6994018554688
169, 0, 0, 782.4698486328125
170, 0, 0, 779.1222534179688
171, 0, 0, 775.7662353515625
172, 0, 0, 770.6864013671875
173, 0, 0, 769.8402099609375
174, 0, 0, 762.8031005859375
175, 0, 0, 770.0867309570312
176, 0, 0, 763.517333984375
177, 0, 0, 769.4512329101562
178, 0, 0, 762.4868774414062
179, 0, 0, 762.1529541015625
