# TOPAS Version: 3.3.p1
# Parameter File: Test.txt
# Results for scorer MLIC_Scorer
# Scored in component: MLIC
# X in 180 bins of 0.177778 cm
# Y in 1 bin  of 10 cm
# Z in 1 bin  of 10 cm
# EnergyDeposit ( MeV ) : Sum   
0, 0, 0, 0
1, 0, 0, 0
2, 0, 0, 0
3, 0, 0, 0
4, 0, 0, 0
5, 0, 0, 0
6, 0, 0, 0
7, 0, 0, 0
8, 0, 0, 0
9, 0, 0, 0
10, 0, 0, 0
11, 0, 0, 0
12, 0, 0, 0
13, 0, 0, 0
14, 0, 0, 0
15, 0, 0, 0
16, 0, 0, 0
17, 0, 0, 0
18, 0, 0, 0
19, 0, 0, 0
20, 0, 0, 0
21, 0, 0, 0
22, 0, 0, 0
23, 0, 0, 0
24, 0, 0, 0
25, 0, 0, 0
26, 0, 0, 0
27, 0, 0, 0
28, 0, 0, 0
29, 0, 0, 0
30, 0, 0, 0
31, 0, 0, 0
32, 0, 0, 0
33, 0, 0, 0
34, 0, 0, 0
35, 0, 0, 0
36, 0, 0, 0
37, 0, 0, 0
38, 0, 0, 0
39, 0, 0, 0
40, 0, 0, 0
41, 0, 0, 0
42, 0, 0, 0
43, 0, 0, 0
44, 0, 0, 0
45, 0, 0, 0
46, 0, 0, 0
47, 0, 0, 0
48, 0, 0, 0
49, 0, 0, 0
50, 0, 0, 0
51, 0, 0, 0
52, 0, 0, 0
53, 0, 0, 0
54, 0, 0, 0
55, 0, 0, 0
56, 0, 0, 0
57, 0, 0, 0
58, 0, 0, 0
59, 0, 0, 0
60, 0, 0, 0
61, 0, 0, 0
62, 0, 0, 0
63, 0, 0, 0
64, 0, 0, 0
65, 0, 0, 0
66, 0, 0, 0
67, 0, 0, 0
68, 0, 0, 0
69, 0, 0, 0
70, 0, 0, 0
71, 0, 0, 0
72, 0, 0, 0
73, 0, 0, 0
74, 0, 0, 0
75, 0, 0, 0
76, 0, 0, 0.7567647695541382
77, 0, 0, 23.70809364318848
78, 0, 0, 60.82261276245117
79, 0, 0, 197.7317352294922
80, 0, 0, 332.5525207519531
81, 0, 0, 407.8864135742188
82, 0, 0, 420.9212646484375
83, 0, 0, 405.2055358886719
84, 0, 0, 344.5310668945312
85, 0, 0, 293.8094787597656
86, 0, 0, 264.7614440917969
87, 0, 0, 243.4626159667969
88, 0, 0, 228.8643798828125
89, 0, 0, 216.8740539550781
90, 0, 0, 206.1833953857422
91, 0, 0, 200.8011627197266
92, 0, 0, 189.4874114990234
93, 0, 0, 186.0216979980469
94, 0, 0, 177.6139068603516
95, 0, 0, 171.8062286376953
96, 0, 0, 168.2080535888672
97, 0, 0, 162.3786926269531
98, 0, 0, 156.2722778320312
99, 0, 0, 153.1307373046875
100, 0, 0, 151.974853515625
101, 0, 0, 147.9589538574219
102, 0, 0, 143.4757995605469
103, 0, 0, 141.2815246582031
104, 0, 0, 139.0742645263672
105, 0, 0, 138.0508880615234
106, 0, 0, 135.0077819824219
107, 0, 0, 130.7537536621094
108, 0, 0, 130.5254211425781
109, 0, 0, 126.6015853881836
110, 0, 0, 127.3667678833008
111, 0, 0, 124.7671661376953
112, 0, 0, 122.6261215209961
113, 0, 0, 122.4716339111328
114, 0, 0, 119.6235122680664
115, 0, 0, 118.8073959350586
116, 0, 0, 116.5566253662109
117, 0, 0, 114.4814910888672
118, 0, 0, 116.0732727050781
119, 0, 0, 113.4175720214844
120, 0, 0, 110.8551406860352
121, 0, 0, 110.7431793212891
122, 0, 0, 110.9111251831055
123, 0, 0, 108.8689651489258
124, 0, 0, 106.089973449707
125, 0, 0, 105.6429824829102
126, 0, 0, 102.4753875732422
127, 0, 0, 104.2518005371094
128, 0, 0, 102.7081298828125
129, 0, 0, 102.5038909912109
130, 0, 0, 97.62036895751953
131, 0, 0, 100.3580474853516
132, 0, 0, 100.222038269043
133, 0, 0, 99.33402252197266
134, 0, 0, 97.52046203613281
135, 0, 0, 96.61209106445312
136, 0, 0, 98.55873107910156
137, 0, 0, 94.66880798339844
138, 0, 0, 94.84888458251953
139, 0, 0, 93.57138061523438
140, 0, 0, 91.98436737060547
141, 0, 0, 92.67681884765625
142, 0, 0, 93.30462646484375
143, 0, 0, 92.33473968505859
144, 0, 0, 90.947998046875
145, 0, 0, 91.06183624267578
146, 0, 0, 89.40288543701172
147, 0, 0, 90.4056396484375
148, 0, 0, 89.86395263671875
149, 0, 0, 87.10566711425781
150, 0, 0, 89.95584106445312
151, 0, 0, 86.06729888916016
152, 0, 0, 87.1375732421875
153, 0, 0, 87.42347717285156
154, 0, 0, 86.81513214111328
155, 0, 0, 84.18999481201172
156, 0, 0, 84.42558288574219
157, 0, 0, 84.96585083007812
158, 0, 0, 85.52809143066406
159, 0, 0, 84.47096252441406
160, 0, 0, 82.62255096435547
161, 0, 0, 84.78697204589844
162, 0, 0, 84.66918182373047
163, 0, 0, 81.84095001220703
164, 0, 0, 81.51329040527344
165, 0, 0, 81.78134918212891
166, 0, 0, 81.05194854736328
167, 0, 0, 82.28456115722656
168, 0, 0, 81.99494934082031
169, 0, 0, 77.73404693603516
170, 0, 0, 78.03238677978516
171, 0, 0, 78.06549072265625
172, 0, 0, 79.22951507568359
173, 0, 0, 78.02203369140625
174, 0, 0, 75.53236389160156
175, 0, 0, 77.52722930908203
176, 0, 0, 75.46868896484375
177, 0, 0, 76.91255950927734
178, 0, 0, 74.42385864257812
179, 0, 0, 77.93796539306641
