# TOPAS Version: 3.3.p1
# Parameter File: Test.txt
# Results for scorer MLIC_Scorer
# Scored in component: MLIC
# X in 180 bins of 0.177778 cm
# Y in 1 bin  of 10 cm
# Z in 1 bin  of 10 cm
# EnergyDeposit ( MeV ) : Sum   
0, 0, 0, 0
1, 0, 0, 0
2, 0, 0, 0
3, 0, 0, 0
4, 0, 0, 0
5, 0, 0, 0
6, 0, 0, 0
7, 0, 0, 0
8, 0, 0, 0
9, 0, 0, 0
10, 0, 0, 0
11, 0, 0, 0
12, 0, 0, 0
13, 0, 0, 0
14, 0, 0, 0
15, 0, 0, 0
16, 0, 0, 0
17, 0, 0, 0
18, 0, 0, 0
19, 0, 0, 0
20, 0, 0, 0
21, 0, 0, 0
22, 0, 0, 0
23, 0, 0, 0
24, 0, 0, 0
25, 0, 0, 0
26, 0, 0, 0
27, 0, 0, 0
28, 0, 0, 0
29, 0, 0, 0
30, 0, 0, 0
31, 0, 0, 0
32, 0, 0, 0
33, 0, 0, 0
34, 0, 0, 0
35, 0, 0, 0
36, 0, 0, 0
37, 0, 0, 0
38, 0, 0, 0
39, 0, 0, 0
40, 0, 0, 0
41, 0, 0, 0
42, 0, 0, 0
43, 0, 0, 0
44, 0, 0, 0
45, 0, 0, 0
46, 0, 0, 0
47, 0, 0, 0
48, 0, 0, 0
49, 0, 0, 0
50, 0, 0, 0
51, 0, 0, 0
52, 0, 0, 0
53, 0, 0, 0
54, 0, 0, 0
55, 0, 0, 0
56, 0, 0, 0
57, 0, 0, 0
58, 0, 0, 0
59, 0, 0, 0
60, 0, 0, 0
61, 0, 0, 0
62, 0, 0, 0
63, 0, 0, 0
64, 0, 0, 0
65, 0, 0, 0
66, 0, 0, 0
67, 0, 0, 0.003255889751017094
68, 0, 0, 0
69, 0, 0, 0
70, 0, 0, 0
71, 0, 0, 0
72, 0, 0, 0
73, 0, 0, 0
74, 0, 0, 0
75, 0, 0, 0
76, 0, 0, 0
77, 0, 0, 0
78, 0, 0, 0
79, 0, 0, 0
80, 0, 0, 0
81, 0, 0, 0
82, 0, 0, 0
83, 0, 0, 1.809581279754639
84, 0, 0, 28.05658149719238
85, 0, 0, 104.8216934204102
86, 0, 0, 403.3675231933594
87, 0, 0, 1050.38134765625
88, 0, 0, 2201.480712890625
89, 0, 0, 3623.572021484375
90, 0, 0, 4826.88330078125
91, 0, 0, 5034.580078125
92, 0, 0, 4731.53466796875
93, 0, 0, 4182.5498046875
94, 0, 0, 3702.690185546875
95, 0, 0, 3331.474365234375
96, 0, 0, 3029.354248046875
97, 0, 0, 2818.158935546875
98, 0, 0, 2648.947021484375
99, 0, 0, 2510.167236328125
100, 0, 0, 2404.070556640625
101, 0, 0, 2298.712646484375
102, 0, 0, 2218.288818359375
103, 0, 0, 2141.089111328125
104, 0, 0, 2079.92822265625
105, 0, 0, 2016.4951171875
106, 0, 0, 1961.372680664062
107, 0, 0, 1912.854736328125
108, 0, 0, 1860.771484375
109, 0, 0, 1824.378662109375
110, 0, 0, 1781.840087890625
111, 0, 0, 1751.400512695312
112, 0, 0, 1705.781860351562
113, 0, 0, 1676.302490234375
114, 0, 0, 1649.879638671875
115, 0, 0, 1620.241577148438
116, 0, 0, 1590.327880859375
117, 0, 0, 1563.695556640625
118, 0, 0, 1542.015258789062
119, 0, 0, 1516.443969726562
120, 0, 0, 1495.3544921875
121, 0, 0, 1478.131469726562
122, 0, 0, 1458.5927734375
123, 0, 0, 1442.2109375
124, 0, 0, 1420.125122070312
125, 0, 0, 1401.661376953125
126, 0, 0, 1388.000366210938
127, 0, 0, 1374.44873046875
128, 0, 0, 1358.81298828125
129, 0, 0, 1343.748046875
130, 0, 0, 1334.706420898438
131, 0, 0, 1310.331420898438
132, 0, 0, 1295.887817382812
133, 0, 0, 1294.293579101562
134, 0, 0, 1273.704467773438
135, 0, 0, 1266.208618164062
136, 0, 0, 1263.64697265625
137, 0, 0, 1237.133544921875
138, 0, 0, 1236.269897460938
139, 0, 0, 1223.296752929688
140, 0, 0, 1218.495239257812
141, 0, 0, 1206.244262695312
142, 0, 0, 1185.7314453125
143, 0, 0, 1175.844116210938
144, 0, 0, 1175.038818359375
145, 0, 0, 1166.467407226562
146, 0, 0, 1163.636840820312
147, 0, 0, 1150.594848632812
148, 0, 0, 1144.03515625
149, 0, 0, 1133.87353515625
150, 0, 0, 1119.1689453125
151, 0, 0, 1116.157592773438
152, 0, 0, 1106.065673828125
153, 0, 0, 1101.9306640625
154, 0, 0, 1099.868896484375
155, 0, 0, 1095.1875
156, 0, 0, 1086.950439453125
157, 0, 0, 1087.587280273438
158, 0, 0, 1076.1826171875
159, 0, 0, 1065.1591796875
160, 0, 0, 1057.055786132812
161, 0, 0, 1056.14990234375
162, 0, 0, 1057.888671875
163, 0, 0, 1039.256591796875
164, 0, 0, 1029.73486328125
165, 0, 0, 1027.640502929688
166, 0, 0, 1024.874877929688
167, 0, 0, 1018.8046875
168, 0, 0, 1010.366394042969
169, 0, 0, 1014.506469726562
170, 0, 0, 998.5144653320312
171, 0, 0, 995.2587890625
172, 0, 0, 980.7578735351562
173, 0, 0, 982.4169311523438
174, 0, 0, 986.3905029296875
175, 0, 0, 983.8513793945312
176, 0, 0, 975.7767944335938
177, 0, 0, 978.4893188476562
178, 0, 0, 974.8599853515625
179, 0, 0, 957.2918701171875
