# TOPAS Version: 3.3.p1
# Parameter File: Test.txt
# Results for scorer MLIC_Scorer
# Scored in component: MLIC
# X in 180 bins of 0.177778 cm
# Y in 1 bin  of 10 cm
# Z in 1 bin  of 10 cm
# EnergyDeposit ( MeV ) : Sum   
0, 0, 0, 0
1, 0, 0, 0.003986802883446217
2, 0, 0, 0
3, 0, 0, 0.0007983560208231211
4, 0, 0, 0
5, 0, 0, 0
6, 0, 0, 0
7, 0, 0, 0
8, 0, 0, 0
9, 0, 0, 5.348927974700928
10, 0, 0, 38.35006713867188
11, 0, 0, 432.1236572265625
12, 0, 0, 1042.928100585938
13, 0, 0, 2193.8603515625
14, 0, 0, 3678.6796875
15, 0, 0, 4732.4912109375
16, 0, 0, 5034.6943359375
17, 0, 0, 4752.28759765625
18, 0, 0, 4213.1142578125
19, 0, 0, 3682.882568359375
20, 0, 0, 3324.2900390625
21, 0, 0, 3036.0498046875
22, 0, 0, 2819.022216796875
23, 0, 0, 2661.302001953125
24, 0, 0, 2514.259765625
25, 0, 0, 2407.386962890625
26, 0, 0, 2311.6083984375
27, 0, 0, 2216.4296875
28, 0, 0, 2137.26416015625
29, 0, 0, 2077.174560546875
30, 0, 0, 2025.0693359375
31, 0, 0, 1960.8212890625
32, 0, 0, 1911.591186523438
33, 0, 0, 1865.287841796875
34, 0, 0, 1817.033569335938
35, 0, 0, 1785.277465820312
36, 0, 0, 1736.216796875
37, 0, 0, 1711.640380859375
38, 0, 0, 1674.223388671875
39, 0, 0, 1646.279418945312
40, 0, 0, 1623.625854492188
41, 0, 0, 1588.263793945312
42, 0, 0, 1564.403198242188
43, 0, 0, 1548.77001953125
44, 0, 0, 1516.891479492188
45, 0, 0, 1499.482055664062
46, 0, 0, 1485.197143554688
47, 0, 0, 1455.838989257812
48, 0, 0, 1437.331665039062
49, 0, 0, 1419.28759765625
50, 0, 0, 1401.214965820312
51, 0, 0, 1387.154418945312
52, 0, 0, 1378.9169921875
53, 0, 0, 1363.171997070312
54, 0, 0, 1343.2421875
55, 0, 0, 1330.602294921875
56, 0, 0, 1312.626220703125
57, 0, 0, 1304.716186523438
58, 0, 0, 1293.796020507812
59, 0, 0, 1279.694946289062
60, 0, 0, 1265.416137695312
61, 0, 0, 1249.696044921875
62, 0, 0, 1244.76318359375
63, 0, 0, 1230.456787109375
64, 0, 0, 1222.128051757812
65, 0, 0, 1215.62939453125
66, 0, 0, 1211.2099609375
67, 0, 0, 1194.409301757812
68, 0, 0, 1183.906494140625
69, 0, 0, 1175.154296875
70, 0, 0, 1164.5078125
71, 0, 0, 1151.77001953125
72, 0, 0, 1150.760986328125
73, 0, 0, 1147.070556640625
74, 0, 0, 1129.211303710938
75, 0, 0, 1124.2451171875
76, 0, 0, 1110.7626953125
77, 0, 0, 1105.977416992188
78, 0, 0, 1097.724243164062
79, 0, 0, 1091.912475585938
80, 0, 0, 1095.389038085938
81, 0, 0, 1076.765747070312
82, 0, 0, 1071.732177734375
83, 0, 0, 1064.662963867188
84, 0, 0, 1068.412353515625
85, 0, 0, 1064.606689453125
86, 0, 0, 1046.779907226562
87, 0, 0, 1048.6474609375
88, 0, 0, 1047.087158203125
89, 0, 0, 1031.571411132812
90, 0, 0, 1031.346557617188
91, 0, 0, 1016.692321777344
92, 0, 0, 1026.190795898438
93, 0, 0, 1009.655334472656
94, 0, 0, 1007.177368164062
95, 0, 0, 1002.576171875
96, 0, 0, 1000.855285644531
97, 0, 0, 990.6398315429688
98, 0, 0, 989.1506958007812
99, 0, 0, 982.2623291015625
100, 0, 0, 977.8749389648438
101, 0, 0, 971.8764038085938
102, 0, 0, 966.5037841796875
103, 0, 0, 964.8909912109375
104, 0, 0, 959.781494140625
105, 0, 0, 958.1682739257812
106, 0, 0, 952.4212646484375
107, 0, 0, 952.7987060546875
108, 0, 0, 948.598388671875
109, 0, 0, 933.7421875
110, 0, 0, 935.9207763671875
111, 0, 0, 932.6416015625
112, 0, 0, 924.9696044921875
113, 0, 0, 919.9180908203125
114, 0, 0, 921.8319091796875
115, 0, 0, 913.7279052734375
116, 0, 0, 915.5942993164062
117, 0, 0, 914.0165405273438
118, 0, 0, 905.321533203125
119, 0, 0, 897.4134521484375
120, 0, 0, 905.154296875
121, 0, 0, 901.8590087890625
122, 0, 0, 892.2195434570312
123, 0, 0, 892.4375610351562
124, 0, 0, 884.4913330078125
125, 0, 0, 880.4221801757812
126, 0, 0, 873.1635131835938
127, 0, 0, 885.7484741210938
128, 0, 0, 875.0263061523438
129, 0, 0, 876.165283203125
130, 0, 0, 874.5226440429688
131, 0, 0, 859.986083984375
132, 0, 0, 863.154052734375
133, 0, 0, 857.318115234375
134, 0, 0, 861.6500244140625
135, 0, 0, 857.8917236328125
136, 0, 0, 863.07958984375
137, 0, 0, 854.26611328125
138, 0, 0, 848.5205078125
139, 0, 0, 853.3081665039062
140, 0, 0, 840.8565063476562
141, 0, 0, 843.2721557617188
142, 0, 0, 837.9425048828125
143, 0, 0, 830.7507934570312
144, 0, 0, 831.2199096679688
145, 0, 0, 827.7514038085938
146, 0, 0, 824.4193115234375
147, 0, 0, 821.268798828125
148, 0, 0, 832.064697265625
149, 0, 0, 825.558349609375
150, 0, 0, 820.2866821289062
151, 0, 0, 820.7119750976562
152, 0, 0, 812.5678100585938
153, 0, 0, 808.95361328125
154, 0, 0, 817.816650390625
155, 0, 0, 806.8551635742188
156, 0, 0, 811.4103393554688
157, 0, 0, 816.1834106445312
158, 0, 0, 800.7177734375
159, 0, 0, 799.0950317382812
160, 0, 0, 792.3731079101562
161, 0, 0, 797.923828125
162, 0, 0, 793.7416381835938
163, 0, 0, 792.4451293945312
164, 0, 0, 790.6412353515625
165, 0, 0, 781.6375732421875
166, 0, 0, 781.7301025390625
167, 0, 0, 776.6071166992188
168, 0, 0, 780.3846435546875
169, 0, 0, 781.9501342773438
170, 0, 0, 778.1597900390625
171, 0, 0, 778.0371704101562
172, 0, 0, 773.929931640625
173, 0, 0, 770.6214599609375
174, 0, 0, 767.075927734375
175, 0, 0, 766.3876342773438
176, 0, 0, 761.0973510742188
177, 0, 0, 767.251953125
178, 0, 0, 771.2219848632812
179, 0, 0, 763.2359619140625
