# TOPAS Version: 3.3.p1
# Parameter File: Test.txt
# Results for scorer MLIC_Scorer
# Scored in component: MLIC
# X in 180 bins of 0.177778 cm
# Y in 1 bin  of 10 cm
# Z in 1 bin  of 10 cm
# EnergyDeposit ( MeV ) : Sum   
0, 0, 0, 0
1, 0, 0, 0
2, 0, 0, 0
3, 0, 0, 0
4, 0, 0, 0
5, 0, 0, 0
6, 0, 0, 0
7, 0, 0, 0
8, 0, 0, 0
9, 0, 0, 0
10, 0, 0, 0
11, 0, 0, 0
12, 0, 0, 0
13, 0, 0, 0
14, 0, 0, 0
15, 0, 0, 0
16, 0, 0, 0
17, 0, 0, 0
18, 0, 0, 0
19, 0, 0, 0
20, 0, 0, 0
21, 0, 0, 0
22, 0, 0, 0
23, 0, 0, 0
24, 0, 0, 0
25, 0, 0, 0
26, 0, 0, 0
27, 0, 0, 0
28, 0, 0, 0
29, 0, 0, 0
30, 0, 0, 0
31, 0, 0, 0
32, 0, 0, 0
33, 0, 0, 0
34, 0, 0, 0
35, 0, 0, 0
36, 0, 0, 0
37, 0, 0, 0
38, 0, 0, 0
39, 0, 0, 0
40, 0, 0, 0
41, 0, 0, 0
42, 0, 0, 0
43, 0, 0, 0
44, 0, 0, 0
45, 0, 0, 0
46, 0, 0, 0
47, 0, 0, 0
48, 0, 0, 0
49, 0, 0, 0
50, 0, 0, 0
51, 0, 0, 0
52, 0, 0, 12.43976402282715
53, 0, 0, 70.14129638671875
54, 0, 0, 113.9467468261719
55, 0, 0, 222.2598571777344
56, 0, 0, 340.3763427734375
57, 0, 0, 386.9595336914062
58, 0, 0, 353.2300109863281
59, 0, 0, 316.0949096679688
60, 0, 0, 263.7049560546875
61, 0, 0, 246.4022827148438
62, 0, 0, 224.1976928710938
63, 0, 0, 207.6627655029297
64, 0, 0, 193.2384796142578
65, 0, 0, 182.2434844970703
66, 0, 0, 175.2093811035156
67, 0, 0, 168.0487518310547
68, 0, 0, 160.5664215087891
69, 0, 0, 154.5218048095703
70, 0, 0, 151.2896728515625
71, 0, 0, 145.8060150146484
72, 0, 0, 141.9084014892578
73, 0, 0, 138.8012390136719
74, 0, 0, 135.1388702392578
75, 0, 0, 132.7841491699219
76, 0, 0, 127.9982147216797
77, 0, 0, 127.1936874389648
78, 0, 0, 124.0220489501953
79, 0, 0, 122.4692611694336
80, 0, 0, 117.5605697631836
81, 0, 0, 117.8856048583984
82, 0, 0, 116.9588241577148
83, 0, 0, 114.962532043457
84, 0, 0, 110.9440994262695
85, 0, 0, 109.1311264038086
86, 0, 0, 108.3422470092773
87, 0, 0, 106.2552795410156
88, 0, 0, 105.4588928222656
89, 0, 0, 104.7249069213867
90, 0, 0, 102.9580001831055
91, 0, 0, 103.4749069213867
92, 0, 0, 102.6498336791992
93, 0, 0, 97.99600982666016
94, 0, 0, 99.64756774902344
95, 0, 0, 95.71946716308594
96, 0, 0, 96.90720367431641
97, 0, 0, 94.16223907470703
98, 0, 0, 95.23399353027344
99, 0, 0, 93.00203704833984
100, 0, 0, 91.85202026367188
101, 0, 0, 90.72068786621094
102, 0, 0, 91.06702423095703
103, 0, 0, 91.63604736328125
104, 0, 0, 89.07493591308594
105, 0, 0, 89.2203369140625
106, 0, 0, 87.38848114013672
107, 0, 0, 84.29942321777344
108, 0, 0, 84.18240356445312
109, 0, 0, 84.26308441162109
110, 0, 0, 83.82061004638672
111, 0, 0, 84.26320648193359
112, 0, 0, 85.03155517578125
113, 0, 0, 83.99252319335938
114, 0, 0, 83.502197265625
115, 0, 0, 80.40768432617188
116, 0, 0, 83.7537841796875
117, 0, 0, 80.50846099853516
118, 0, 0, 80.88796234130859
119, 0, 0, 79.57720184326172
120, 0, 0, 79.31385803222656
121, 0, 0, 78.76522064208984
122, 0, 0, 77.90641021728516
123, 0, 0, 77.85984039306641
124, 0, 0, 79.97664642333984
125, 0, 0, 76.11743927001953
126, 0, 0, 74.41315460205078
127, 0, 0, 76.28800964355469
128, 0, 0, 74.62903594970703
129, 0, 0, 75.20560455322266
130, 0, 0, 74.96279144287109
131, 0, 0, 74.67772674560547
132, 0, 0, 75.40194702148438
133, 0, 0, 75.02120208740234
134, 0, 0, 73.84003448486328
135, 0, 0, 73.64508056640625
136, 0, 0, 71.47445678710938
137, 0, 0, 72.04961395263672
138, 0, 0, 72.46181488037109
139, 0, 0, 72.41304016113281
140, 0, 0, 69.72032928466797
141, 0, 0, 71.31163024902344
142, 0, 0, 69.35730743408203
143, 0, 0, 69.58733367919922
144, 0, 0, 68.40943908691406
145, 0, 0, 70.61921691894531
146, 0, 0, 69.78372192382812
147, 0, 0, 69.10612487792969
148, 0, 0, 69.94430541992188
149, 0, 0, 67.20793914794922
150, 0, 0, 67.53022766113281
151, 0, 0, 67.96842956542969
152, 0, 0, 66.84815216064453
153, 0, 0, 66.36495208740234
154, 0, 0, 67.52143859863281
155, 0, 0, 65.03833770751953
156, 0, 0, 65.90020751953125
157, 0, 0, 65.43990325927734
158, 0, 0, 65.48895263671875
159, 0, 0, 65.37982940673828
160, 0, 0, 65.48731231689453
161, 0, 0, 63.6966438293457
162, 0, 0, 64.26242828369141
163, 0, 0, 63.3907470703125
164, 0, 0, 63.42910385131836
165, 0, 0, 64.22368621826172
166, 0, 0, 63.6200065612793
167, 0, 0, 63.0399284362793
168, 0, 0, 63.27473449707031
169, 0, 0, 62.19748687744141
170, 0, 0, 63.4947395324707
171, 0, 0, 61.62129592895508
172, 0, 0, 62.98793792724609
173, 0, 0, 61.9708366394043
174, 0, 0, 60.44309997558594
175, 0, 0, 60.98923110961914
176, 0, 0, 60.61713790893555
177, 0, 0, 60.84717178344727
178, 0, 0, 61.34812545776367
179, 0, 0, 62.32635116577148
