# TOPAS Version: 3.3.p1
# Parameter File: Test.txt
# Results for scorer MLIC_Scorer
# Scored in component: MLIC
# X in 180 bins of 0.222222 cm
# Y in 1 bin  of 10 cm
# Z in 1 bin  of 10 cm
# EnergyDeposit ( MeV ) : Sum   
0, 0, 0, 0
1, 0, 0, 0
2, 0, 0, 0
3, 0, 0, 0
4, 0, 0, 0
5, 0, 0, 0
6, 0, 0, 0
7, 0, 0, 0
8, 0, 0, 0
9, 0, 0, 0
10, 0, 0, 0
11, 0, 0, 0
12, 0, 0, 0
13, 0, 0, 0
14, 0, 0, 0
15, 0, 0, 0
16, 0, 0, 0
17, 0, 0, 0
18, 0, 0, 0
19, 0, 0, 0
20, 0, 0, 0.03032312542200089
21, 0, 0, 0
22, 0, 0, 0
23, 0, 0, 0
24, 0, 0, 0
25, 0, 0, 0
26, 0, 0, 0.0005820118240080774
27, 0, 0, 0
28, 0, 0, 0
29, 0, 0, 0
30, 0, 0, 0
31, 0, 0, 0
32, 0, 0, 0
33, 0, 0, 0
34, 0, 0, 0
35, 0, 0, 0.003854214213788509
36, 0, 0, 0.003120549023151398
37, 0, 0, 0
38, 0, 0, 0
39, 0, 0, 0
40, 0, 0, 0
41, 0, 0, 0
42, 0, 0, 0
43, 0, 0, 0
44, 0, 0, 0
45, 0, 0, 0.04068583622574806
46, 0, 0, 0
47, 0, 0, 0
48, 0, 0, 0
49, 0, 0, 0
50, 0, 0, 0
51, 0, 0, 0
52, 0, 0, 0
53, 0, 0, 0
54, 0, 0, 0
55, 0, 0, 0
56, 0, 0, 0
57, 0, 0, 0
58, 0, 0, 0.002553538419306278
59, 0, 0, 0
60, 0, 0, 0
61, 0, 0, 0.003133311867713928
62, 0, 0, 0
63, 0, 0, 0
64, 0, 0, 0.02538074925541878
65, 0, 0, 0
66, 0, 0, 0
67, 0, 0, 0
68, 0, 0, 0.001273617381229997
69, 0, 0, 12.06683158874512
70, 0, 0, 119.7934494018555
71, 0, 0, 726.2747802734375
72, 0, 0, 2127.81689453125
73, 0, 0, 4626.1484375
74, 0, 0, 6085.01904296875
75, 0, 0, 6215.90869140625
76, 0, 0, 5449.97802734375
77, 0, 0, 4683.35009765625
78, 0, 0, 4076.181884765625
79, 0, 0, 3662.71435546875
80, 0, 0, 3370.722412109375
81, 0, 0, 3158.00341796875
82, 0, 0, 2979.097900390625
83, 0, 0, 2827.5615234375
84, 0, 0, 2708.728515625
85, 0, 0, 2597.109619140625
86, 0, 0, 2513.877197265625
87, 0, 0, 2421.509033203125
88, 0, 0, 2341.180908203125
89, 0, 0, 2280.38720703125
90, 0, 0, 2213.381103515625
91, 0, 0, 2165.081298828125
92, 0, 0, 2109.279541015625
93, 0, 0, 2062.7265625
94, 0, 0, 2018.321411132812
95, 0, 0, 1985.434692382812
96, 0, 0, 1935.02783203125
97, 0, 0, 1910.753295898438
98, 0, 0, 1861.362182617188
99, 0, 0, 1838.1259765625
100, 0, 0, 1806.705688476562
101, 0, 0, 1780.762084960938
102, 0, 0, 1749.593872070312
103, 0, 0, 1728.422607421875
104, 0, 0, 1705.934936523438
105, 0, 0, 1686.912719726562
106, 0, 0, 1654.931274414062
107, 0, 0, 1639.63330078125
108, 0, 0, 1625.486938476562
109, 0, 0, 1598.679321289062
110, 0, 0, 1580.217895507812
111, 0, 0, 1560.528930664062
112, 0, 0, 1546.063720703125
113, 0, 0, 1527.64501953125
114, 0, 0, 1509.2958984375
115, 0, 0, 1491.591430664062
116, 0, 0, 1484.732543945312
117, 0, 0, 1469.682250976562
118, 0, 0, 1449.584594726562
119, 0, 0, 1432.780517578125
120, 0, 0, 1424.609985351562
121, 0, 0, 1413.467163085938
122, 0, 0, 1405.878540039062
123, 0, 0, 1390.447265625
124, 0, 0, 1383.094360351562
125, 0, 0, 1366.705688476562
126, 0, 0, 1362.134033203125
127, 0, 0, 1342.41015625
128, 0, 0, 1340.100952148438
129, 0, 0, 1330.09765625
130, 0, 0, 1318.226196289062
131, 0, 0, 1307.687744140625
132, 0, 0, 1307.308471679688
133, 0, 0, 1297.44873046875
134, 0, 0, 1289.284301757812
135, 0, 0, 1276.881469726562
136, 0, 0, 1267.313110351562
137, 0, 0, 1263.558349609375
138, 0, 0, 1242.79541015625
139, 0, 0, 1247.533325195312
140, 0, 0, 1246.802978515625
141, 0, 0, 1231.26513671875
142, 0, 0, 1226.623779296875
143, 0, 0, 1213.228149414062
144, 0, 0, 1214.089599609375
145, 0, 0, 1205.86767578125
146, 0, 0, 1196.331665039062
147, 0, 0, 1187.479614257812
148, 0, 0, 1188.4423828125
149, 0, 0, 1175.398315429688
150, 0, 0, 1169.056762695312
151, 0, 0, 1160.427978515625
152, 0, 0, 1164.341186523438
153, 0, 0, 1150.919311523438
154, 0, 0, 1149.668823242188
155, 0, 0, 1134.96630859375
156, 0, 0, 1135.9951171875
157, 0, 0, 1133.322387695312
158, 0, 0, 1132.1142578125
159, 0, 0, 1112.7724609375
160, 0, 0, 1120.728515625
161, 0, 0, 1113.8251953125
162, 0, 0, 1106.702880859375
163, 0, 0, 1100.016845703125
164, 0, 0, 1101.527221679688
165, 0, 0, 1081.205810546875
166, 0, 0, 1087.60205078125
167, 0, 0, 1085.769165039062
168, 0, 0, 1078.13623046875
169, 0, 0, 1076.508666992188
170, 0, 0, 1072.671630859375
171, 0, 0, 1064.255126953125
172, 0, 0, 1061.037109375
173, 0, 0, 1061.975219726562
174, 0, 0, 1057.403930664062
175, 0, 0, 1044.186645507812
176, 0, 0, 1051.430786132812
177, 0, 0, 1038.701171875
178, 0, 0, 1036.974975585938
179, 0, 0, 1027.25341796875
