# TOPAS Version: 3.3.p1
# Parameter File: Test.txt
# Results for scorer MLIC_Scorer
# Scored in component: MLIC
# X in 180 bins of 0.183333 cm
# Y in 1 bin  of 10 cm
# Z in 1 bin  of 10 cm
# EnergyDeposit ( MeV ) : Sum   
0, 0, 0, 0
1, 0, 0, 0
2, 0, 0, 0
3, 0, 0, 0
4, 0, 0, 0
5, 0, 0, 0
6, 0, 0, 0
7, 0, 0, 0
8, 0, 0, 0
9, 0, 0, 0
10, 0, 0, 0
11, 0, 0, 0
12, 0, 0, 0
13, 0, 0, 0
14, 0, 0, 0
15, 0, 0, 0
16, 0, 0, 0
17, 0, 0, 0
18, 0, 0, 0
19, 0, 0, 0
20, 0, 0, 0
21, 0, 0, 0
22, 0, 0, 0
23, 0, 0, 0
24, 0, 0, 0
25, 0, 0, 0
26, 0, 0, 0
27, 0, 0, 0
28, 0, 0, 0
29, 0, 0, 0
30, 0, 0, 0
31, 0, 0, 0
32, 0, 0, 0
33, 0, 0, 0
34, 0, 0, 0
35, 0, 0, 0
36, 0, 0, 0
37, 0, 0, 0
38, 0, 0, 0
39, 0, 0, 0
40, 0, 0, 0
41, 0, 0, 0
42, 0, 0, 0
43, 0, 0, 0
44, 0, 0, 0
45, 0, 0, 0
46, 0, 0, 0
47, 0, 0, 0.03838903456926346
48, 0, 0, 0
49, 0, 0, 0
50, 0, 0, 0
51, 0, 0, 0
52, 0, 0, 0
53, 0, 0, 0.004011089913547039
54, 0, 0, 0
55, 0, 0, 0.004214044660329819
56, 0, 0, 6.781593799591064
57, 0, 0, 119.311279296875
58, 0, 0, 442.3813781738281
59, 0, 0, 1270.338989257812
60, 0, 0, 2552.24462890625
61, 0, 0, 4053.37841796875
62, 0, 0, 5016.9150390625
63, 0, 0, 5141.3076171875
64, 0, 0, 4800.119140625
65, 0, 0, 4162.61279296875
66, 0, 0, 3645.62109375
67, 0, 0, 3267.082275390625
68, 0, 0, 3024.115478515625
69, 0, 0, 2831.985107421875
70, 0, 0, 2664.44677734375
71, 0, 0, 2531.333251953125
72, 0, 0, 2412.46142578125
73, 0, 0, 2313.832275390625
74, 0, 0, 2237.638916015625
75, 0, 0, 2163.254150390625
76, 0, 0, 2098.896484375
77, 0, 0, 2038.501586914062
78, 0, 0, 1982.413940429688
79, 0, 0, 1929.735961914062
80, 0, 0, 1889.162841796875
81, 0, 0, 1845.48046875
82, 0, 0, 1802.464599609375
83, 0, 0, 1768.6240234375
84, 0, 0, 1737.399658203125
85, 0, 0, 1700.720336914062
86, 0, 0, 1671.375122070312
87, 0, 0, 1647.580078125
88, 0, 0, 1619.041137695312
89, 0, 0, 1592.123901367188
90, 0, 0, 1565.325317382812
91, 0, 0, 1543.254028320312
92, 0, 0, 1525.602905273438
93, 0, 0, 1504.921630859375
94, 0, 0, 1477.443115234375
95, 0, 0, 1462.615234375
96, 0, 0, 1439.07421875
97, 0, 0, 1430.376708984375
98, 0, 0, 1408.991821289062
99, 0, 0, 1394.820556640625
100, 0, 0, 1377.604125976562
101, 0, 0, 1360.143310546875
102, 0, 0, 1349.520874023438
103, 0, 0, 1334.519165039062
104, 0, 0, 1319.103271484375
105, 0, 0, 1301.119995117188
106, 0, 0, 1303.4404296875
107, 0, 0, 1284.079223632812
108, 0, 0, 1272.547973632812
109, 0, 0, 1264.721801757812
110, 0, 0, 1252.52490234375
111, 0, 0, 1249.749389648438
112, 0, 0, 1228.961303710938
113, 0, 0, 1225.494140625
114, 0, 0, 1207.859619140625
115, 0, 0, 1204.962036132812
116, 0, 0, 1197.873046875
117, 0, 0, 1189.090698242188
118, 0, 0, 1173.495971679688
119, 0, 0, 1158.751831054688
120, 0, 0, 1156.859985351562
121, 0, 0, 1148.938232421875
122, 0, 0, 1152.0830078125
123, 0, 0, 1133.69580078125
124, 0, 0, 1121.798828125
125, 0, 0, 1117.233276367188
126, 0, 0, 1112.0078125
127, 0, 0, 1107.93603515625
128, 0, 0, 1098.656127929688
129, 0, 0, 1096.856079101562
130, 0, 0, 1089.336669921875
131, 0, 0, 1079.844604492188
132, 0, 0, 1075.43603515625
133, 0, 0, 1072.968872070312
134, 0, 0, 1066.417602539062
135, 0, 0, 1059.419677734375
136, 0, 0, 1049.151489257812
137, 0, 0, 1043.306030273438
138, 0, 0, 1042.303833007812
139, 0, 0, 1026.968383789062
140, 0, 0, 1031.99658203125
141, 0, 0, 1028.300903320312
142, 0, 0, 1026.969970703125
143, 0, 0, 1019.454956054688
144, 0, 0, 1009.725158691406
145, 0, 0, 1010.918029785156
146, 0, 0, 1000.323852539062
147, 0, 0, 996.0108032226562
148, 0, 0, 995.7466430664062
149, 0, 0, 984.9808959960938
150, 0, 0, 982.2650146484375
151, 0, 0, 976.6994018554688
152, 0, 0, 972.82373046875
153, 0, 0, 967.766357421875
154, 0, 0, 958.6317138671875
155, 0, 0, 955.9133911132812
156, 0, 0, 953.1261596679688
157, 0, 0, 956.4342041015625
158, 0, 0, 946.9198608398438
159, 0, 0, 941.8736572265625
160, 0, 0, 943.6419067382812
161, 0, 0, 939.78955078125
162, 0, 0, 940.2553100585938
163, 0, 0, 935.3985595703125
164, 0, 0, 925.3875732421875
165, 0, 0, 922.7694702148438
166, 0, 0, 921.9888305664062
167, 0, 0, 920.3671264648438
168, 0, 0, 909.9434814453125
169, 0, 0, 909.9515991210938
170, 0, 0, 898.7379150390625
171, 0, 0, 906.3416137695312
172, 0, 0, 903.4679565429688
173, 0, 0, 889.3999633789062
174, 0, 0, 886.0950927734375
175, 0, 0, 889.7246704101562
176, 0, 0, 891.5697021484375
177, 0, 0, 884.5003051757812
178, 0, 0, 886.0198974609375
179, 0, 0, 879.1362915039062
