# TOPAS Version: 3.3.p1
# Parameter File: Test.txt
# Results for scorer MLIC_Scorer
# Scored in component: MLIC
# X in 180 bins of 0.183333 cm
# Y in 1 bin  of 10 cm
# Z in 1 bin  of 10 cm
# EnergyDeposit ( MeV ) : Sum   
0, 0, 0, 0
1, 0, 0, 0
2, 0, 0, 0
3, 0, 0, 0
4, 0, 0, 0
5, 0, 0, 0
6, 0, 0, 0
7, 0, 0, 0
8, 0, 0, 0
9, 0, 0, 0
10, 0, 0, 0
11, 0, 0, 0
12, 0, 0, 0
13, 0, 0, 0
14, 0, 0, 0
15, 0, 0, 0
16, 0, 0, 0
17, 0, 0, 0
18, 0, 0, 0
19, 0, 0, 0
20, 0, 0, 0
21, 0, 0, 0
22, 0, 0, 0
23, 0, 0, 0
24, 0, 0, 0
25, 0, 0, 0
26, 0, 0, 0
27, 0, 0, 0
28, 0, 0, 0
29, 0, 0, 0
30, 0, 0, 0
31, 0, 0, 0
32, 0, 0, 0
33, 0, 0, 0
34, 0, 0, 0
35, 0, 0, 0
36, 0, 0, 0
37, 0, 0, 0
38, 0, 0, 0
39, 0, 0, 0
40, 0, 0, 0
41, 0, 0, 0
42, 0, 0, 0
43, 0, 0, 0
44, 0, 0, 0
45, 0, 0, 0
46, 0, 0, 0
47, 0, 0, 0
48, 0, 0, 0
49, 0, 0, 0
50, 0, 0, 0
51, 0, 0, 0
52, 0, 0, 0
53, 0, 0, 0
54, 0, 0, 0
55, 0, 0, 0
56, 0, 0, 0
57, 0, 0, 0
58, 0, 0, 0
59, 0, 0, 0
60, 0, 0, 0
61, 0, 0, 0
62, 0, 0, 0
63, 0, 0, 0
64, 0, 0, 0
65, 0, 0, 0
66, 0, 0, 0
67, 0, 0, 0
68, 0, 0, 0
69, 0, 0, 0
70, 0, 0, 0
71, 0, 0, 0
72, 0, 0, 0
73, 0, 0, 0
74, 0, 0, 0
75, 0, 0, 0
76, 0, 0, 0
77, 0, 0, 0
78, 0, 0, 0
79, 0, 0, 0
80, 0, 0, 0
81, 0, 0, 0.01554212067276239
82, 0, 0, 0.02075101435184479
83, 0, 0, 0
84, 0, 0, 0
85, 0, 0, 0
86, 0, 0, 0
87, 0, 0, 0
88, 0, 0, 0
89, 0, 0, 0
90, 0, 0, 0
91, 0, 0, 0
92, 0, 0, 0
93, 0, 0, 0
94, 0, 0, 0
95, 0, 0, 0
96, 0, 0, 0.001860260730609298
97, 0, 0, 0
98, 0, 0, 0
99, 0, 0, 0.02346215397119522
100, 0, 0, 0
101, 0, 0, 0
102, 0, 0, 0
103, 0, 0, 0.03547793254256248
104, 0, 0, 0
105, 0, 0, 0
106, 0, 0, 0
107, 0, 0, 0
108, 0, 0, 0.000730283441953361
109, 0, 0, 0
110, 0, 0, 58.55842971801758
111, 0, 0, 189.6157836914062
112, 0, 0, 873.8113403320312
113, 0, 0, 1994.890869140625
114, 0, 0, 3418.831298828125
115, 0, 0, 4685.390625
116, 0, 0, 5190.9296875
117, 0, 0, 4978.64794921875
118, 0, 0, 4436.62744140625
119, 0, 0, 3870.517333984375
120, 0, 0, 3411.05615234375
121, 0, 0, 3111.656982421875
122, 0, 0, 2898.341796875
123, 0, 0, 2716.885009765625
124, 0, 0, 2583.604736328125
125, 0, 0, 2458.86962890625
126, 0, 0, 2363.014404296875
127, 0, 0, 2275.35400390625
128, 0, 0, 2200.429931640625
129, 0, 0, 2128.453125
130, 0, 0, 2061.59130859375
131, 0, 0, 2008.691528320312
132, 0, 0, 1945.013793945312
133, 0, 0, 1906.690795898438
134, 0, 0, 1857.220336914062
135, 0, 0, 1819.817138671875
136, 0, 0, 1789.061767578125
137, 0, 0, 1749.01953125
138, 0, 0, 1711.088500976562
139, 0, 0, 1673.56494140625
140, 0, 0, 1654.436401367188
141, 0, 0, 1626.001586914062
142, 0, 0, 1598.183715820312
143, 0, 0, 1569.342651367188
144, 0, 0, 1552.105834960938
145, 0, 0, 1532.719848632812
146, 0, 0, 1516.063354492188
147, 0, 0, 1487.610229492188
148, 0, 0, 1466.401977539062
149, 0, 0, 1448.15576171875
150, 0, 0, 1430.387939453125
151, 0, 0, 1413.234008789062
152, 0, 0, 1400.574951171875
153, 0, 0, 1387.705078125
154, 0, 0, 1372.2998046875
155, 0, 0, 1355.589233398438
156, 0, 0, 1339.400024414062
157, 0, 0, 1333.063110351562
158, 0, 0, 1314.920532226562
159, 0, 0, 1302.551147460938
160, 0, 0, 1285.2548828125
161, 0, 0, 1270.753051757812
162, 0, 0, 1266.9951171875
163, 0, 0, 1257.896850585938
164, 0, 0, 1249.10888671875
165, 0, 0, 1236.177368164062
166, 0, 0, 1219.015625
167, 0, 0, 1219.708618164062
168, 0, 0, 1209.664184570312
169, 0, 0, 1193.984497070312
170, 0, 0, 1188.2080078125
171, 0, 0, 1177.877197265625
172, 0, 0, 1176.7685546875
173, 0, 0, 1167.365600585938
174, 0, 0, 1153.080932617188
175, 0, 0, 1147.63330078125
176, 0, 0, 1134.843505859375
177, 0, 0, 1135.42724609375
178, 0, 0, 1132.095336914062
179, 0, 0, 1117.85205078125
