# TOPAS Version: 3.3.p1
# Parameter File: Test.txt
# Results for scorer MLIC_Scorer
# Scored in component: MLIC
# X in 180 bins of 0.177778 cm
# Y in 1 bin  of 10 cm
# Z in 1 bin  of 10 cm
# EnergyDeposit ( MeV ) : Sum   
0, 0, 0, 0
1, 0, 0, 0
2, 0, 0, 0
3, 0, 0, 0
4, 0, 0, 0
5, 0, 0, 0
6, 0, 0, 0
7, 0, 0, 0
8, 0, 0, 0
9, 0, 0, 0
10, 0, 0, 0
11, 0, 0, 0
12, 0, 0, 0
13, 0, 0, 0
14, 0, 0, 0
15, 0, 0, 0
16, 0, 0, 0
17, 0, 0, 0
18, 0, 0, 0
19, 0, 0, 0
20, 0, 0, 0
21, 0, 0, 0.03887380659580231
22, 0, 0, 0
23, 0, 0, 0
24, 0, 0, 0.05426642298698425
25, 0, 0, 0
26, 0, 0, 0.0006287722499109805
27, 0, 0, 0
28, 0, 0, 12.94159412384033
29, 0, 0, 32.942138671875
30, 0, 0, 85.07593536376953
31, 0, 0, 359.8425598144531
32, 0, 0, 1082.570922851562
33, 0, 0, 2235.951416015625
34, 0, 0, 3708.89208984375
35, 0, 0, 4782.12744140625
36, 0, 0, 5036.6201171875
37, 0, 0, 4727.57568359375
38, 0, 0, 4214.7900390625
39, 0, 0, 3660.2646484375
40, 0, 0, 3305.411376953125
41, 0, 0, 3020.135986328125
42, 0, 0, 2803.748291015625
43, 0, 0, 2652.074462890625
44, 0, 0, 2515.2548828125
45, 0, 0, 2393.288330078125
46, 0, 0, 2303.772216796875
47, 0, 0, 2218.432861328125
48, 0, 0, 2136.177001953125
49, 0, 0, 2070.805419921875
50, 0, 0, 2014.256469726562
51, 0, 0, 1948.525146484375
52, 0, 0, 1903.719482421875
53, 0, 0, 1860.129638671875
54, 0, 0, 1819.027709960938
55, 0, 0, 1780.14990234375
56, 0, 0, 1740.310791015625
57, 0, 0, 1703.693115234375
58, 0, 0, 1675.572265625
59, 0, 0, 1641.574096679688
60, 0, 0, 1616.25537109375
61, 0, 0, 1587.904541015625
62, 0, 0, 1572.937377929688
63, 0, 0, 1541.287963867188
64, 0, 0, 1515.109497070312
65, 0, 0, 1491.665771484375
66, 0, 0, 1475.292358398438
67, 0, 0, 1455.624145507812
68, 0, 0, 1437.0703125
69, 0, 0, 1420.993286132812
70, 0, 0, 1407.424682617188
71, 0, 0, 1392.194946289062
72, 0, 0, 1373.703125
73, 0, 0, 1347.023803710938
74, 0, 0, 1339.556396484375
75, 0, 0, 1327.456420898438
76, 0, 0, 1320.074096679688
77, 0, 0, 1293.140991210938
78, 0, 0, 1292.1728515625
79, 0, 0, 1276.3701171875
80, 0, 0, 1266.555053710938
81, 0, 0, 1246.97021484375
82, 0, 0, 1242.997314453125
83, 0, 0, 1230.256958007812
84, 0, 0, 1221.627197265625
85, 0, 0, 1219.226318359375
86, 0, 0, 1203.094482421875
87, 0, 0, 1195.487182617188
88, 0, 0, 1178.680786132812
89, 0, 0, 1173.884643554688
90, 0, 0, 1163.495727539062
91, 0, 0, 1153.23876953125
92, 0, 0, 1142.449462890625
93, 0, 0, 1138.846801757812
94, 0, 0, 1135.72216796875
95, 0, 0, 1132.114013671875
96, 0, 0, 1113.359252929688
97, 0, 0, 1109.113891601562
98, 0, 0, 1103.033081054688
99, 0, 0, 1093.692260742188
100, 0, 0, 1094.793212890625
101, 0, 0, 1080.25341796875
102, 0, 0, 1072.486083984375
103, 0, 0, 1070.642944335938
104, 0, 0, 1061.546630859375
105, 0, 0, 1063.885986328125
106, 0, 0, 1058.191040039062
107, 0, 0, 1044.433715820312
108, 0, 0, 1036.685302734375
109, 0, 0, 1034.281005859375
110, 0, 0, 1031.032958984375
111, 0, 0, 1026.027099609375
112, 0, 0, 1030.4443359375
113, 0, 0, 1007.818542480469
114, 0, 0, 1006.375610351562
115, 0, 0, 999.4725952148438
116, 0, 0, 992.6555786132812
117, 0, 0, 992.11669921875
118, 0, 0, 993.6170043945312
119, 0, 0, 987.6298828125
120, 0, 0, 973.4346923828125
121, 0, 0, 973.4533081054688
122, 0, 0, 969.3359985351562
123, 0, 0, 966.7300415039062
124, 0, 0, 962.085693359375
125, 0, 0, 959.3168334960938
126, 0, 0, 951.99365234375
127, 0, 0, 949.4954833984375
128, 0, 0, 942.7587890625
129, 0, 0, 943.6513671875
130, 0, 0, 939.4439697265625
131, 0, 0, 934.2901611328125
132, 0, 0, 923.842041015625
133, 0, 0, 921.4114990234375
134, 0, 0, 915.29150390625
135, 0, 0, 922.973876953125
136, 0, 0, 915.5762939453125
137, 0, 0, 908.9345703125
138, 0, 0, 908.4902954101562
139, 0, 0, 910.539794921875
140, 0, 0, 905.33642578125
141, 0, 0, 901.2131958007812
142, 0, 0, 898.4933471679688
143, 0, 0, 888.5099487304688
144, 0, 0, 892.1644897460938
145, 0, 0, 879.5525512695312
146, 0, 0, 883.2288818359375
147, 0, 0, 879.2533569335938
148, 0, 0, 874.0984497070312
149, 0, 0, 874.6785888671875
150, 0, 0, 868.4721069335938
151, 0, 0, 865.313720703125
152, 0, 0, 867.224365234375
153, 0, 0, 862.7999267578125
154, 0, 0, 852.9556274414062
155, 0, 0, 857.7787475585938
156, 0, 0, 851.9178466796875
157, 0, 0, 855.5699462890625
158, 0, 0, 843.7696533203125
159, 0, 0, 839.8465576171875
160, 0, 0, 840.8896484375
161, 0, 0, 829.2216186523438
162, 0, 0, 838.3110961914062
163, 0, 0, 821.2477416992188
164, 0, 0, 832.0977783203125
165, 0, 0, 831.0671997070312
166, 0, 0, 823.275390625
167, 0, 0, 822.7149658203125
168, 0, 0, 831.8992919921875
169, 0, 0, 822.55615234375
170, 0, 0, 816.6014404296875
171, 0, 0, 814.5230712890625
172, 0, 0, 811.7764892578125
173, 0, 0, 821.2478637695312
174, 0, 0, 808.9817504882812
175, 0, 0, 803.0243530273438
176, 0, 0, 809.3019409179688
177, 0, 0, 802.879638671875
178, 0, 0, 795.6070556640625
179, 0, 0, 800.8724975585938
