# TOPAS Version: 3.3.p1
# Parameter File: Test.txt
# Results for scorer MLIC_Scorer
# Scored in component: MLIC
# X in 180 bins of 0.177778 cm
# Y in 1 bin  of 10 cm
# Z in 1 bin  of 10 cm
# EnergyDeposit ( MeV ) : Sum   
0, 0, 0, 0
1, 0, 0, 0
2, 0, 0, 0
3, 0, 0, 0
4, 0, 0, 0
5, 0, 0, 0
6, 0, 0, 0
7, 0, 0, 0
8, 0, 0, 0
9, 0, 0, 0
10, 0, 0, 0
11, 0, 0, 0
12, 0, 0, 0
13, 0, 0, 0
14, 0, 0, 0
15, 0, 0, 0
16, 0, 0, 0
17, 0, 0, 0
18, 0, 0, 0
19, 0, 0, 0
20, 0, 0, 0
21, 0, 0, 0
22, 0, 0, 0
23, 0, 0, 0
24, 0, 0, 0
25, 0, 0, 0
26, 0, 0, 0
27, 0, 0, 0
28, 0, 0, 0
29, 0, 0, 0
30, 0, 0, 0
31, 0, 0, 0
32, 0, 0, 0
33, 0, 0, 0
34, 0, 0, 0
35, 0, 0, 0
36, 0, 0, 0
37, 0, 0, 0
38, 0, 0, 0
39, 0, 0, 0
40, 0, 0, 0
41, 0, 0, 0
42, 0, 0, 0
43, 0, 0, 0
44, 0, 0, 0
45, 0, 0, 0
46, 0, 0, 0
47, 0, 0, 0
48, 0, 0, 0
49, 0, 0, 0
50, 0, 0, 0
51, 0, 0, 0
52, 0, 0, 0
53, 0, 0, 0
54, 0, 0, 0
55, 0, 0, 0
56, 0, 0, 0
57, 0, 0, 0
58, 0, 0, 0
59, 0, 0, 0
60, 0, 0, 0
61, 0, 0, 0
62, 0, 0, 0
63, 0, 0, 0
64, 0, 0, 0
65, 0, 0, 0
66, 0, 0, 0
67, 0, 0, 0
68, 0, 0, 0
69, 0, 0, 0
70, 0, 0, 0
71, 0, 0, 0
72, 0, 0, 0
73, 0, 0, 0
74, 0, 0, 0
75, 0, 0, 0
76, 0, 0, 0
77, 0, 0, 0
78, 0, 0, 0
79, 0, 0, 0
80, 0, 0, 0
81, 0, 0, 0
82, 0, 0, 0
83, 0, 0, 0
84, 0, 0, 0
85, 0, 0, 0
86, 0, 0, 0
87, 0, 0, 0
88, 0, 0, 0
89, 0, 0, 0
90, 0, 0, 0
91, 0, 0, 0
92, 0, 0, 0
93, 0, 0, 0
94, 0, 0, 0
95, 0, 0, 0
96, 0, 0, 0
97, 0, 0, 0
98, 0, 0, 0
99, 0, 0, 0
100, 0, 0, 0
101, 0, 0, 0
102, 0, 0, 0
103, 0, 0, 0
104, 0, 0, 0
105, 0, 0, 0
106, 0, 0, 0
107, 0, 0, 0
108, 0, 0, 9.409615516662598
109, 0, 0, 36.25978088378906
110, 0, 0, 85.46511077880859
111, 0, 0, 166.4971160888672
112, 0, 0, 191.7238922119141
113, 0, 0, 250.4621429443359
114, 0, 0, 248.9566955566406
115, 0, 0, 231.8633422851562
116, 0, 0, 210.8298797607422
117, 0, 0, 198.5219879150391
118, 0, 0, 172.0909271240234
119, 0, 0, 156.9965972900391
120, 0, 0, 149.1276245117188
121, 0, 0, 139.9234008789062
122, 0, 0, 132.8540191650391
123, 0, 0, 125.0682067871094
124, 0, 0, 119.9626235961914
125, 0, 0, 115.9945755004883
126, 0, 0, 112.7936325073242
127, 0, 0, 109.3445434570312
128, 0, 0, 107.2732772827148
129, 0, 0, 102.5102081298828
130, 0, 0, 101.3835220336914
131, 0, 0, 97.64680480957031
132, 0, 0, 96.33600616455078
133, 0, 0, 93.75714111328125
134, 0, 0, 91.79987335205078
135, 0, 0, 90.75888061523438
136, 0, 0, 89.20272064208984
137, 0, 0, 87.74917602539062
138, 0, 0, 86.53160858154297
139, 0, 0, 84.29969024658203
140, 0, 0, 82.13640594482422
141, 0, 0, 81.53658294677734
142, 0, 0, 79.98428344726562
143, 0, 0, 77.56253051757812
144, 0, 0, 78.24008178710938
145, 0, 0, 75.96065521240234
146, 0, 0, 75.85103607177734
147, 0, 0, 74.79678344726562
148, 0, 0, 74.17566680908203
149, 0, 0, 75.38773345947266
150, 0, 0, 73.62908172607422
151, 0, 0, 71.42891693115234
152, 0, 0, 71.224853515625
153, 0, 0, 69.87837219238281
154, 0, 0, 71.05457305908203
155, 0, 0, 68.13594055175781
156, 0, 0, 69.73783111572266
157, 0, 0, 66.94538879394531
158, 0, 0, 67.68573760986328
159, 0, 0, 68.32479095458984
160, 0, 0, 64.85805511474609
161, 0, 0, 67.57070922851562
162, 0, 0, 65.06948089599609
163, 0, 0, 64.72880554199219
164, 0, 0, 62.736083984375
165, 0, 0, 63.82486724853516
166, 0, 0, 61.73700714111328
167, 0, 0, 63.15458297729492
168, 0, 0, 62.14982986450195
169, 0, 0, 61.69255065917969
170, 0, 0, 59.76323318481445
171, 0, 0, 61.73884582519531
172, 0, 0, 58.62656402587891
173, 0, 0, 58.06265258789062
174, 0, 0, 58.84733581542969
175, 0, 0, 61.00035858154297
176, 0, 0, 57.93233489990234
177, 0, 0, 59.39991760253906
178, 0, 0, 58.38540649414062
179, 0, 0, 56.38736343383789
