# TOPAS Version: 3.3.p1
# Parameter File: Test.txt
# Results for scorer MLIC_Scorer
# Scored in component: MLIC
# X in 180 bins of 0.177778 cm
# Y in 1 bin  of 10 cm
# Z in 1 bin  of 10 cm
# EnergyDeposit ( MeV ) : Sum   
0, 0, 0, 0
1, 0, 0, 0
2, 0, 0, 0
3, 0, 0, 0
4, 0, 0, 0
5, 0, 0, 0
6, 0, 0, 0
7, 0, 0, 0
8, 0, 0, 0
9, 0, 0, 0
10, 0, 0, 0
11, 0, 0, 0
12, 0, 0, 8.406726556131616e-05
13, 0, 0, 0.0319237969815731
14, 0, 0, 10.43621826171875
15, 0, 0, 6.18093204498291
16, 0, 0, 40.03530120849609
17, 0, 0, 220.1128540039062
18, 0, 0, 786.588623046875
19, 0, 0, 1862.876831054688
20, 0, 0, 3138.64306640625
21, 0, 0, 4582.072265625
22, 0, 0, 4852.99462890625
23, 0, 0, 4875.38525390625
24, 0, 0, 4448.08056640625
25, 0, 0, 3860.952392578125
26, 0, 0, 3436.390625
27, 0, 0, 3107.68115234375
28, 0, 0, 2885.169189453125
29, 0, 0, 2708.64501953125
30, 0, 0, 2561.390869140625
31, 0, 0, 2437.497802734375
32, 0, 0, 2333.69287109375
33, 0, 0, 2243.991943359375
34, 0, 0, 2172.070068359375
35, 0, 0, 2100.58544921875
36, 0, 0, 2035.177490234375
37, 0, 0, 1976.789794921875
38, 0, 0, 1928.420776367188
39, 0, 0, 1877.86328125
40, 0, 0, 1830.234497070312
41, 0, 0, 1787.265625
42, 0, 0, 1760.316528320312
43, 0, 0, 1723.2548828125
44, 0, 0, 1689.423217773438
45, 0, 0, 1652.150268554688
46, 0, 0, 1621.67724609375
47, 0, 0, 1601.901000976562
48, 0, 0, 1577.572021484375
49, 0, 0, 1548.6015625
50, 0, 0, 1531.22900390625
51, 0, 0, 1502.7119140625
52, 0, 0, 1485.422241210938
53, 0, 0, 1463.545654296875
54, 0, 0, 1451.0810546875
55, 0, 0, 1432.240844726562
56, 0, 0, 1418.052612304688
57, 0, 0, 1393.41943359375
58, 0, 0, 1379.461791992188
59, 0, 0, 1365.682861328125
60, 0, 0, 1348.892944335938
61, 0, 0, 1335.620483398438
62, 0, 0, 1323.250122070312
63, 0, 0, 1305.356079101562
64, 0, 0, 1295.820556640625
65, 0, 0, 1274.747436523438
66, 0, 0, 1269.568115234375
67, 0, 0, 1251.76513671875
68, 0, 0, 1251.266235351562
69, 0, 0, 1237.086669921875
70, 0, 0, 1222
71, 0, 0, 1217.511840820312
72, 0, 0, 1204.14306640625
73, 0, 0, 1189.660888671875
74, 0, 0, 1181.863891601562
75, 0, 0, 1176.496459960938
76, 0, 0, 1166.03955078125
77, 0, 0, 1168.059326171875
78, 0, 0, 1151.498779296875
79, 0, 0, 1142.118530273438
80, 0, 0, 1135.326293945312
81, 0, 0, 1122.756225585938
82, 0, 0, 1127.055541992188
83, 0, 0, 1118.51611328125
84, 0, 0, 1112.994873046875
85, 0, 0, 1095.202392578125
86, 0, 0, 1089.796020507812
87, 0, 0, 1079.536987304688
88, 0, 0, 1076.870849609375
89, 0, 0, 1071.677001953125
90, 0, 0, 1063.656372070312
91, 0, 0, 1066.309692382812
92, 0, 0, 1056.337890625
93, 0, 0, 1044.94677734375
94, 0, 0, 1043.14892578125
95, 0, 0, 1031.067504882812
96, 0, 0, 1026.080932617188
97, 0, 0, 1024.710205078125
98, 0, 0, 1020.390258789062
99, 0, 0, 1017.421325683594
100, 0, 0, 1002.246154785156
101, 0, 0, 1002.049682617188
102, 0, 0, 999.1741333007812
103, 0, 0, 996.315673828125
104, 0, 0, 988.2405395507812
105, 0, 0, 980.3876953125
106, 0, 0, 983.1636962890625
107, 0, 0, 980.1303100585938
108, 0, 0, 979.9480590820312
109, 0, 0, 972.7278442382812
110, 0, 0, 960.932861328125
111, 0, 0, 954.0014038085938
112, 0, 0, 942.9048461914062
113, 0, 0, 954.15087890625
114, 0, 0, 949.8988647460938
115, 0, 0, 941.3585815429688
116, 0, 0, 936.8565673828125
117, 0, 0, 935.9364013671875
118, 0, 0, 926.24951171875
119, 0, 0, 923.4086303710938
120, 0, 0, 925.5929565429688
121, 0, 0, 922.1162109375
122, 0, 0, 920.4005737304688
123, 0, 0, 918.8081665039062
124, 0, 0, 908.3984375
125, 0, 0, 903.3676147460938
126, 0, 0, 902.821044921875
127, 0, 0, 903.6903686523438
128, 0, 0, 895.63916015625
129, 0, 0, 893.956787109375
130, 0, 0, 890.5692749023438
131, 0, 0, 888.1423950195312
132, 0, 0, 877.6111450195312
133, 0, 0, 881.2398071289062
134, 0, 0, 874.1527099609375
135, 0, 0, 877.848388671875
136, 0, 0, 870.623046875
137, 0, 0, 868.661376953125
138, 0, 0, 859.4656982421875
139, 0, 0, 867.3480834960938
140, 0, 0, 859.4019165039062
141, 0, 0, 852.2622680664062
142, 0, 0, 857.0755615234375
143, 0, 0, 848.263916015625
144, 0, 0, 847.0927734375
145, 0, 0, 847.2313232421875
146, 0, 0, 842.9588012695312
147, 0, 0, 848.2647094726562
148, 0, 0, 838.3662719726562
149, 0, 0, 837.1873168945312
150, 0, 0, 832.5426635742188
151, 0, 0, 836.0930786132812
152, 0, 0, 830.183837890625
153, 0, 0, 827.2324829101562
154, 0, 0, 825.6536254882812
155, 0, 0, 822.7216796875
156, 0, 0, 815.6710815429688
157, 0, 0, 818.1183471679688
158, 0, 0, 811.3394775390625
159, 0, 0, 813.3140258789062
160, 0, 0, 807.27783203125
161, 0, 0, 811.4689331054688
162, 0, 0, 811.2377319335938
163, 0, 0, 810.2359008789062
164, 0, 0, 799.1221923828125
165, 0, 0, 799.8862915039062
166, 0, 0, 799.3670654296875
167, 0, 0, 794.2755737304688
168, 0, 0, 792.5048828125
169, 0, 0, 796.3773193359375
170, 0, 0, 793.04443359375
171, 0, 0, 792.5453491210938
172, 0, 0, 797.8922119140625
173, 0, 0, 785.1469116210938
174, 0, 0, 784.9522705078125
175, 0, 0, 782.9380493164062
176, 0, 0, 776.6061401367188
177, 0, 0, 776.9457397460938
178, 0, 0, 771.5159301757812
179, 0, 0, 761.342529296875
