# TOPAS Version: 3.3.p1
# Parameter File: Test.txt
# Results for scorer MLIC_Scorer
# Scored in component: MLIC
# X in 180 bins of 0.177778 cm
# Y in 1 bin  of 10 cm
# Z in 1 bin  of 10 cm
# EnergyDeposit ( MeV ) : Sum   
0, 0, 0, 0
1, 0, 0, 0
2, 0, 0, 0
3, 0, 0, 0
4, 0, 0, 0
5, 0, 0, 0
6, 0, 0, 0
7, 0, 0, 0
8, 0, 0, 0
9, 0, 0, 0
10, 0, 0, 0
11, 0, 0, 0
12, 0, 0, 0
13, 0, 0, 0
14, 0, 0, 0
15, 0, 0, 0
16, 0, 0, 0
17, 0, 0, 0
18, 0, 0, 0
19, 0, 0, 0
20, 0, 0, 0
21, 0, 0, 0
22, 0, 0, 0
23, 0, 0, 0
24, 0, 0, 0
25, 0, 0, 0
26, 0, 0, 0
27, 0, 0, 0
28, 0, 0, 0
29, 0, 0, 0
30, 0, 0, 0
31, 0, 0, 0
32, 0, 0, 0
33, 0, 0, 0
34, 0, 0, 0
35, 0, 0, 0
36, 0, 0, 0
37, 0, 0, 0
38, 0, 0, 0
39, 0, 0, 0
40, 0, 0, 0
41, 0, 0, 0
42, 0, 0, 0
43, 0, 0, 0
44, 0, 0, 0
45, 0, 0, 0
46, 0, 0, 0
47, 0, 0, 0
48, 0, 0, 0
49, 0, 0, 0
50, 0, 0, 0
51, 0, 0, 0
52, 0, 0, 0
53, 0, 0, 0
54, 0, 0, 0
55, 0, 0, 0
56, 0, 0, 0
57, 0, 0, 0
58, 0, 0, 0
59, 0, 0, 0
60, 0, 0, 0
61, 0, 0, 0
62, 0, 0, 0
63, 0, 0, 0
64, 0, 0, 0
65, 0, 0, 0
66, 0, 0, 0
67, 0, 0, 0
68, 0, 0, 0
69, 0, 0, 0
70, 0, 0, 0
71, 0, 0, 0
72, 0, 0, 0
73, 0, 0, 0
74, 0, 0, 0
75, 0, 0, 0
76, 0, 0, 0
77, 0, 0, 5.943996802670881e-05
78, 0, 0, 0
79, 0, 0, 0
80, 0, 0, 0
81, 0, 0, 0
82, 0, 0, 0
83, 0, 0, 0
84, 0, 0, 0
85, 0, 0, 0
86, 0, 0, 0.04687051475048065
87, 0, 0, 0.9322401285171509
88, 0, 0, 119.3483428955078
89, 0, 0, 509.697265625
90, 0, 0, 1481.862548828125
91, 0, 0, 2985.308349609375
92, 0, 0, 4396.39794921875
93, 0, 0, 5180.67724609375
94, 0, 0, 4892.03857421875
95, 0, 0, 4554.84814453125
96, 0, 0, 3929.837646484375
97, 0, 0, 3470.139892578125
98, 0, 0, 3144.36572265625
99, 0, 0, 2906.75244140625
100, 0, 0, 2727.818603515625
101, 0, 0, 2583.267822265625
102, 0, 0, 2459.39453125
103, 0, 0, 2346.7958984375
104, 0, 0, 2258.567626953125
105, 0, 0, 2174.90673828125
106, 0, 0, 2102.814453125
107, 0, 0, 2039.5751953125
108, 0, 0, 1987.017333984375
109, 0, 0, 1932.508911132812
110, 0, 0, 1885.853515625
111, 0, 0, 1834.702758789062
112, 0, 0, 1798.00830078125
113, 0, 0, 1753.901611328125
114, 0, 0, 1729.655029296875
115, 0, 0, 1694.441650390625
116, 0, 0, 1659.2333984375
117, 0, 0, 1628.629028320312
118, 0, 0, 1606.041625976562
119, 0, 0, 1578.415893554688
120, 0, 0, 1560.566650390625
121, 0, 0, 1532.053588867188
122, 0, 0, 1501.078735351562
123, 0, 0, 1481.489624023438
124, 0, 0, 1466.88818359375
125, 0, 0, 1446.182373046875
126, 0, 0, 1429.80859375
127, 0, 0, 1408.7119140625
128, 0, 0, 1397.216186523438
129, 0, 0, 1382.713623046875
130, 0, 0, 1359.5244140625
131, 0, 0, 1352.44873046875
132, 0, 0, 1330.863891601562
133, 0, 0, 1323.826538085938
134, 0, 0, 1300.12158203125
135, 0, 0, 1298.247802734375
136, 0, 0, 1281.9892578125
137, 0, 0, 1268.571655273438
138, 0, 0, 1260.369018554688
139, 0, 0, 1245.458251953125
140, 0, 0, 1235.42333984375
141, 0, 0, 1227.972290039062
142, 0, 0, 1216.253051757812
143, 0, 0, 1205.582885742188
144, 0, 0, 1194.801879882812
145, 0, 0, 1191.112060546875
146, 0, 0, 1178.891235351562
147, 0, 0, 1165.277465820312
148, 0, 0, 1165.5888671875
149, 0, 0, 1149.355834960938
150, 0, 0, 1140.966430664062
151, 0, 0, 1137.66943359375
152, 0, 0, 1131.54052734375
153, 0, 0, 1117.277099609375
154, 0, 0, 1114.482543945312
155, 0, 0, 1104.591674804688
156, 0, 0, 1101.141967773438
157, 0, 0, 1085.617431640625
158, 0, 0, 1092.630249023438
159, 0, 0, 1083.982666015625
160, 0, 0, 1074.473388671875
161, 0, 0, 1063.427734375
162, 0, 0, 1058.128784179688
163, 0, 0, 1060.798095703125
164, 0, 0, 1042.485961914062
165, 0, 0, 1044.664672851562
166, 0, 0, 1040.045288085938
167, 0, 0, 1040.540405273438
168, 0, 0, 1026.60546875
169, 0, 0, 1022.570922851562
170, 0, 0, 1018.150817871094
171, 0, 0, 1012.153991699219
172, 0, 0, 1004.457824707031
173, 0, 0, 998.4246826171875
174, 0, 0, 992.8479614257812
175, 0, 0, 986.7236328125
176, 0, 0, 984.5919799804688
177, 0, 0, 983.421630859375
178, 0, 0, 972.6630249023438
179, 0, 0, 971.3305053710938
