# TOPAS Version: 3.3.p1
# Parameter File: Test.txt
# Results for scorer MLIC_Scorer
# Scored in component: MLIC
# X in 180 bins of 0.183333 cm
# Y in 1 bin  of 10 cm
# Z in 1 bin  of 10 cm
# EnergyDeposit ( MeV ) : Sum   
0, 0, 0, 0
1, 0, 0, 0
2, 0, 0, 0
3, 0, 0, 0
4, 0, 0, 0
5, 0, 0, 0
6, 0, 0, 0
7, 0, 0, 0
8, 0, 0, 0
9, 0, 0, 0
10, 0, 0, 0
11, 0, 0, 0
12, 0, 0, 0
13, 0, 0, 0
14, 0, 0, 0
15, 0, 0, 0
16, 0, 0, 0
17, 0, 0, 0
18, 0, 0, 0
19, 0, 0, 0
20, 0, 0, 0
21, 0, 0, 0
22, 0, 0, 0
23, 0, 0, 0
24, 0, 0, 0
25, 0, 0, 0
26, 0, 0, 0
27, 0, 0, 0
28, 0, 0, 0
29, 0, 0, 0
30, 0, 0, 0
31, 0, 0, 0
32, 0, 0, 0
33, 0, 0, 0
34, 0, 0, 0
35, 0, 0, 0
36, 0, 0, 0
37, 0, 0, 0
38, 0, 0, 0
39, 0, 0, 0
40, 0, 0, 0
41, 0, 0, 0
42, 0, 0, 0
43, 0, 0, 0
44, 0, 0, 0
45, 0, 0, 0
46, 0, 0, 0.0005501893465407193
47, 0, 0, 0.003687914693728089
48, 0, 0, 0
49, 0, 0, 0
50, 0, 0, 0
51, 0, 0, 0.03035379573702812
52, 0, 0, 0.03853244334459305
53, 0, 0, 0
54, 0, 0, 0
55, 0, 0, 0
56, 0, 0, 0
57, 0, 0, 0.02708089724183083
58, 0, 0, 0
59, 0, 0, 0
60, 0, 0, 6.757023220416158e-05
61, 0, 0, 7.614645481109619
62, 0, 0, 35.35649490356445
63, 0, 0, 189.3148651123047
64, 0, 0, 665.9381103515625
65, 0, 0, 1931.35546875
66, 0, 0, 3452.216552734375
67, 0, 0, 4655.5830078125
68, 0, 0, 5189.06494140625
69, 0, 0, 5104.26025390625
70, 0, 0, 4466.62451171875
71, 0, 0, 3884.453125
72, 0, 0, 3427.405517578125
73, 0, 0, 3126.018798828125
74, 0, 0, 2906.626220703125
75, 0, 0, 2722.335205078125
76, 0, 0, 2588.786865234375
77, 0, 0, 2466.36376953125
78, 0, 0, 2363.289306640625
79, 0, 0, 2275.605712890625
80, 0, 0, 2200.23291015625
81, 0, 0, 2129.157958984375
82, 0, 0, 2061.116455078125
83, 0, 0, 2010.322021484375
84, 0, 0, 1954.291137695312
85, 0, 0, 1900.669921875
86, 0, 0, 1870.450805664062
87, 0, 0, 1819.32275390625
88, 0, 0, 1786.523193359375
89, 0, 0, 1748.13330078125
90, 0, 0, 1711.119384765625
91, 0, 0, 1685.41748046875
92, 0, 0, 1651.162109375
93, 0, 0, 1627.027221679688
94, 0, 0, 1603.430053710938
95, 0, 0, 1578.505981445312
96, 0, 0, 1551.889892578125
97, 0, 0, 1524.87353515625
98, 0, 0, 1504.130859375
99, 0, 0, 1485.804443359375
100, 0, 0, 1468.230834960938
101, 0, 0, 1459.59619140625
102, 0, 0, 1436.49658203125
103, 0, 0, 1418.155517578125
104, 0, 0, 1404.15185546875
105, 0, 0, 1384.206420898438
106, 0, 0, 1368.580078125
107, 0, 0, 1358.94140625
108, 0, 0, 1340.013671875
109, 0, 0, 1332.609497070312
110, 0, 0, 1313.569458007812
111, 0, 0, 1300.575073242188
112, 0, 0, 1290.228881835938
113, 0, 0, 1281.12744140625
114, 0, 0, 1271.057250976562
115, 0, 0, 1257.22607421875
116, 0, 0, 1249.986938476562
117, 0, 0, 1240.093505859375
118, 0, 0, 1224.103271484375
119, 0, 0, 1216.102783203125
120, 0, 0, 1207.2119140625
121, 0, 0, 1199.234008789062
122, 0, 0, 1186.3525390625
123, 0, 0, 1188.432983398438
124, 0, 0, 1171.5234375
125, 0, 0, 1166.0498046875
126, 0, 0, 1153.615844726562
127, 0, 0, 1147.97412109375
128, 0, 0, 1140.744750976562
129, 0, 0, 1132.899169921875
130, 0, 0, 1128.12890625
131, 0, 0, 1116.890380859375
132, 0, 0, 1104.635498046875
133, 0, 0, 1101.767456054688
134, 0, 0, 1089.151245117188
135, 0, 0, 1086.195556640625
136, 0, 0, 1082.952270507812
137, 0, 0, 1078.222778320312
138, 0, 0, 1062.445678710938
139, 0, 0, 1063.188842773438
140, 0, 0, 1060.60107421875
141, 0, 0, 1055.400024414062
142, 0, 0, 1046.51318359375
143, 0, 0, 1044.834594726562
144, 0, 0, 1040.065795898438
145, 0, 0, 1033.013793945312
146, 0, 0, 1033.609008789062
147, 0, 0, 1024.093017578125
148, 0, 0, 1013.683471679688
149, 0, 0, 1010.469604492188
150, 0, 0, 1005.768432617188
151, 0, 0, 999.8120727539062
152, 0, 0, 994.9031372070312
153, 0, 0, 990.4443969726562
154, 0, 0, 986.4293212890625
155, 0, 0, 986.92236328125
156, 0, 0, 982.39990234375
157, 0, 0, 976.2462158203125
158, 0, 0, 963.3919067382812
159, 0, 0, 968.9567260742188
160, 0, 0, 964.6298217773438
161, 0, 0, 963.5134887695312
162, 0, 0, 950.2439575195312
163, 0, 0, 953.09130859375
164, 0, 0, 953.119384765625
165, 0, 0, 945.252685546875
166, 0, 0, 939.04638671875
167, 0, 0, 942.4317626953125
168, 0, 0, 932.8284301757812
169, 0, 0, 933.336669921875
170, 0, 0, 930.220703125
171, 0, 0, 932.3675537109375
172, 0, 0, 918.2867431640625
173, 0, 0, 916.6356201171875
174, 0, 0, 908.7987060546875
175, 0, 0, 903.588623046875
176, 0, 0, 898.7313842773438
177, 0, 0, 902.3605346679688
178, 0, 0, 904.2815551757812
179, 0, 0, 895.354248046875
