# TOPAS Version: 3.3.p1
# Parameter File: Test.txt
# Results for scorer MLIC_Scorer
# Scored in component: MLIC
# X in 180 bins of 0.183333 cm
# Y in 1 bin  of 10 cm
# Z in 1 bin  of 10 cm
# EnergyDeposit ( MeV ) : Sum   
0, 0, 0, 0
1, 0, 0, 0
2, 0, 0, 0
3, 0, 0, 0
4, 0, 0, 0
5, 0, 0, 0
6, 0, 0, 0
7, 0, 0, 0
8, 0, 0, 0
9, 0, 0, 0
10, 0, 0, 0
11, 0, 0, 0
12, 0, 0, 0
13, 0, 0, 0
14, 0, 0, 0
15, 0, 0, 0
16, 0, 0, 0
17, 0, 0, 0
18, 0, 0, 0
19, 0, 0, 0
20, 0, 0, 0
21, 0, 0, 0
22, 0, 0, 0
23, 0, 0, 0
24, 0, 0, 0
25, 0, 0, 0
26, 0, 0, 0
27, 0, 0, 0
28, 0, 0, 0
29, 0, 0, 0
30, 0, 0, 0
31, 0, 0, 0
32, 0, 0, 0
33, 0, 0, 0
34, 0, 0, 0
35, 0, 0, 0
36, 0, 0, 0
37, 0, 0, 0
38, 0, 0, 0
39, 0, 0, 0
40, 0, 0, 0
41, 0, 0, 0.01783588156104088
42, 0, 0, 0
43, 0, 0, 0
44, 0, 0, 0
45, 0, 0, 0
46, 0, 0, 0
47, 0, 0, 0
48, 0, 0, 0
49, 0, 0, 0
50, 0, 0, 0
51, 0, 0, 0
52, 0, 0, 0
53, 0, 0, 0
54, 0, 0, 0
55, 0, 0, 0
56, 0, 0, 0
57, 0, 0, 0
58, 0, 0, 0
59, 0, 0, 0
60, 0, 0, 0
61, 0, 0, 0
62, 0, 0, 0
63, 0, 0, 0
64, 0, 0, 0
65, 0, 0, 0
66, 0, 0, 0
67, 0, 0, 0
68, 0, 0, 0
69, 0, 0, 0
70, 0, 0, 0
71, 0, 0, 0
72, 0, 0, 0
73, 0, 0, 0
74, 0, 0, 0
75, 0, 0, 0
76, 0, 0, 0
77, 0, 0, 0
78, 0, 0, 0
79, 0, 0, 0
80, 0, 0, 0
81, 0, 0, 0
82, 0, 0, 0
83, 0, 0, 0
84, 0, 0, 0
85, 0, 0, 0
86, 0, 0, 0
87, 0, 0, 0
88, 0, 0, 0
89, 0, 0, 0
90, 0, 0, 0
91, 0, 0, 0
92, 0, 0, 0
93, 0, 0, 0
94, 0, 0, 0
95, 0, 0, 0
96, 0, 0, 0
97, 0, 0, 0
98, 0, 0, 0
99, 0, 0, 0
100, 0, 0, 0
101, 0, 0, 0
102, 0, 0, 0
103, 0, 0, 0
104, 0, 0, 0.03815177083015442
105, 0, 0, 0
106, 0, 0, 0
107, 0, 0, 0
108, 0, 0, 0
109, 0, 0, 0
110, 0, 0, 0
111, 0, 0, 0.001473159529268742
112, 0, 0, 0
113, 0, 0, 0
114, 0, 0, 0
115, 0, 0, 0
116, 0, 0, 0
117, 0, 0, 0
118, 0, 0, 0
119, 0, 0, 0.0417306199669838
120, 0, 0, 77.79302215576172
121, 0, 0, 258.4865112304688
122, 0, 0, 951.4369506835938
123, 0, 0, 2107.53369140625
124, 0, 0, 3823.273681640625
125, 0, 0, 4753.20263671875
126, 0, 0, 4943.66455078125
127, 0, 0, 4986.15478515625
128, 0, 0, 4358.49560546875
129, 0, 0, 3807.795166015625
130, 0, 0, 3395.375
131, 0, 0, 3105.754150390625
132, 0, 0, 2882.52783203125
133, 0, 0, 2711.096923828125
134, 0, 0, 2565.781982421875
135, 0, 0, 2448.60791015625
136, 0, 0, 2360.009765625
137, 0, 0, 2271.872314453125
138, 0, 0, 2185.4833984375
139, 0, 0, 2116.970947265625
140, 0, 0, 2051.181884765625
141, 0, 0, 2001.571655273438
142, 0, 0, 1944.89453125
143, 0, 0, 1901.109619140625
144, 0, 0, 1851.643188476562
145, 0, 0, 1805.982299804688
146, 0, 0, 1778.583374023438
147, 0, 0, 1748.92919921875
148, 0, 0, 1705.501220703125
149, 0, 0, 1683.425659179688
150, 0, 0, 1654.030883789062
151, 0, 0, 1626.767822265625
152, 0, 0, 1602.259643554688
153, 0, 0, 1570.201049804688
154, 0, 0, 1554.013671875
155, 0, 0, 1525.897583007812
156, 0, 0, 1507.53564453125
157, 0, 0, 1486.381591796875
158, 0, 0, 1472.108642578125
159, 0, 0, 1454.957275390625
160, 0, 0, 1436.138916015625
161, 0, 0, 1406.088134765625
162, 0, 0, 1398.324584960938
163, 0, 0, 1379.3642578125
164, 0, 0, 1368.920043945312
165, 0, 0, 1354.327758789062
166, 0, 0, 1336.672973632812
167, 0, 0, 1324.658813476562
168, 0, 0, 1312.886352539062
169, 0, 0, 1306.081298828125
170, 0, 0, 1288.86669921875
171, 0, 0, 1280.45849609375
172, 0, 0, 1263.02978515625
173, 0, 0, 1250.858154296875
174, 0, 0, 1252.581176757812
175, 0, 0, 1238.627563476562
176, 0, 0, 1228.571655273438
177, 0, 0, 1209.9169921875
178, 0, 0, 1203.115966796875
179, 0, 0, 1196.758911132812
