# TOPAS Version: 3.3.p1
# Parameter File: Test.txt
# Results for scorer MLIC_Scorer
# Scored in component: MLIC
# X in 180 bins of 0.177778 cm
# Y in 1 bin  of 10 cm
# Z in 1 bin  of 10 cm
# EnergyDeposit ( MeV ) : Sum   
0, 0, 0, 0
1, 0, 0, 0
2, 0, 0, 0
3, 0, 0, 0
4, 0, 0, 0
5, 0, 0, 0
6, 0, 0, 0
7, 0, 0, 0
8, 0, 0, 0
9, 0, 0, 0
10, 0, 0, 0
11, 0, 0, 0
12, 0, 0, 0
13, 0, 0, 0
14, 0, 0, 0
15, 0, 0, 0
16, 0, 0, 0
17, 0, 0, 0
18, 0, 0, 0
19, 0, 0, 0
20, 0, 0, 0
21, 0, 0, 0
22, 0, 0, 0
23, 0, 0, 0
24, 0, 0, 0
25, 0, 0, 0
26, 0, 0, 0
27, 0, 0, 0
28, 0, 0, 0
29, 0, 0, 0
30, 0, 0, 0
31, 0, 0, 0
32, 0, 0, 0
33, 0, 0, 0
34, 0, 0, 0
35, 0, 0, 0
36, 0, 0, 0
37, 0, 0, 0
38, 0, 0, 0
39, 0, 0, 0
40, 0, 0, 0
41, 0, 0, 0
42, 0, 0, 0
43, 0, 0, 0
44, 0, 0, 0
45, 0, 0, 0
46, 0, 0, 0
47, 0, 0, 0
48, 0, 0, 0
49, 0, 0, 0
50, 0, 0, 0
51, 0, 0, 0
52, 0, 0, 0
53, 0, 0, 0
54, 0, 0, 0
55, 0, 0, 0
56, 0, 0, 0
57, 0, 0, 0
58, 0, 0, 0
59, 0, 0, 0
60, 0, 0, 0
61, 0, 0, 0
62, 0, 0, 0
63, 0, 0, 0
64, 0, 0, 0
65, 0, 0, 0
66, 0, 0, 0
67, 0, 0, 0
68, 0, 0, 0
69, 0, 0, 0
70, 0, 0, 0
71, 0, 0, 0
72, 0, 0, 0
73, 0, 0, 0
74, 0, 0, 0
75, 0, 0, 0
76, 0, 0, 0
77, 0, 0, 0
78, 0, 0, 0
79, 0, 0, 0
80, 0, 0, 0
81, 0, 0, 0
82, 0, 0, 0
83, 0, 0, 0
84, 0, 0, 0
85, 0, 0, 0
86, 0, 0, 13.85565567016602
87, 0, 0, 54.56379699707031
88, 0, 0, 133.8429412841797
89, 0, 0, 580.8037109375
90, 0, 0, 1537.6806640625
91, 0, 0, 2899.180908203125
92, 0, 0, 4154.05322265625
93, 0, 0, 5092.1845703125
94, 0, 0, 5159.92724609375
95, 0, 0, 4571.37939453125
96, 0, 0, 3881.39208984375
97, 0, 0, 3478.09716796875
98, 0, 0, 3157.89013671875
99, 0, 0, 2913.2734375
100, 0, 0, 2728.265380859375
101, 0, 0, 2577.273681640625
102, 0, 0, 2452.15234375
103, 0, 0, 2354.377197265625
104, 0, 0, 2265.555419921875
105, 0, 0, 2180.014892578125
106, 0, 0, 2111.4921875
107, 0, 0, 2041.2529296875
108, 0, 0, 1985.773071289062
109, 0, 0, 1933.902099609375
110, 0, 0, 1886.123046875
111, 0, 0, 1838.152709960938
112, 0, 0, 1807.083862304688
113, 0, 0, 1757.26220703125
114, 0, 0, 1718.410888671875
115, 0, 0, 1692.086791992188
116, 0, 0, 1671.134521484375
117, 0, 0, 1639.168334960938
118, 0, 0, 1601.904541015625
119, 0, 0, 1583.110961914062
120, 0, 0, 1557.725341796875
121, 0, 0, 1527.059814453125
122, 0, 0, 1513.779174804688
123, 0, 0, 1500.617431640625
124, 0, 0, 1470.387451171875
125, 0, 0, 1445.911987304688
126, 0, 0, 1434.792724609375
127, 0, 0, 1411.071655273438
128, 0, 0, 1399.479125976562
129, 0, 0, 1380.248168945312
130, 0, 0, 1362.686157226562
131, 0, 0, 1345.291748046875
132, 0, 0, 1335.761596679688
133, 0, 0, 1316.70556640625
134, 0, 0, 1310.157104492188
135, 0, 0, 1296.31201171875
136, 0, 0, 1279.786499023438
137, 0, 0, 1270.4609375
138, 0, 0, 1252.398559570312
139, 0, 0, 1247.550903320312
140, 0, 0, 1237.582885742188
141, 0, 0, 1222.0166015625
142, 0, 0, 1221.89892578125
143, 0, 0, 1204.863647460938
144, 0, 0, 1193.247680664062
145, 0, 0, 1187.6884765625
146, 0, 0, 1179.442016601562
147, 0, 0, 1173.253662109375
148, 0, 0, 1161.795654296875
149, 0, 0, 1164.178466796875
150, 0, 0, 1143.919677734375
151, 0, 0, 1137.241577148438
152, 0, 0, 1130.9365234375
153, 0, 0, 1119.466918945312
154, 0, 0, 1108.228759765625
155, 0, 0, 1103.590454101562
156, 0, 0, 1100.494995117188
157, 0, 0, 1086.765991210938
158, 0, 0, 1089.797607421875
159, 0, 0, 1072.248168945312
160, 0, 0, 1074.44873046875
161, 0, 0, 1061.278930664062
162, 0, 0, 1066.204467773438
163, 0, 0, 1045.513671875
164, 0, 0, 1045.168823242188
165, 0, 0, 1036.9951171875
166, 0, 0, 1036.785522460938
167, 0, 0, 1033.422241210938
168, 0, 0, 1024.187133789062
169, 0, 0, 1018.174682617188
170, 0, 0, 1015.162719726562
171, 0, 0, 1007.946228027344
172, 0, 0, 1004.275329589844
173, 0, 0, 994.3926391601562
174, 0, 0, 996.7039184570312
175, 0, 0, 997.9486694335938
176, 0, 0, 984.407470703125
177, 0, 0, 980.0396118164062
178, 0, 0, 970.6807861328125
179, 0, 0, 967.5505981445312
