# TOPAS Version: 3.3.p1
# Parameter File: Test.txt
# Results for scorer MLIC_Scorer
# Scored in component: MLIC
# X in 180 bins of 0.177778 cm
# Y in 1 bin  of 10 cm
# Z in 1 bin  of 10 cm
# EnergyDeposit ( MeV ) : Sum   
0, 0, 0, 0
1, 0, 0, 0
2, 0, 0, 0
3, 0, 0, 0
4, 0, 0, 0
5, 0, 0, 0
6, 0, 0, 0
7, 0, 0, 0
8, 0, 0, 0
9, 0, 0, 0
10, 0, 0, 0
11, 0, 0, 0
12, 0, 0, 0
13, 0, 0, 0
14, 0, 0, 0
15, 0, 0, 0
16, 0, 0, 0
17, 0, 0, 0
18, 0, 0, 0
19, 0, 0, 0
20, 0, 0, 0
21, 0, 0, 0
22, 0, 0, 0
23, 0, 0, 0
24, 0, 0, 0
25, 0, 0, 0
26, 0, 0, 0
27, 0, 0, 0
28, 0, 0, 0
29, 0, 0, 0
30, 0, 0, 0
31, 0, 0, 0
32, 0, 0, 0
33, 0, 0, 0
34, 0, 0, 0
35, 0, 0, 0
36, 0, 0, 0
37, 0, 0, 0
38, 0, 0, 0
39, 0, 0, 0
40, 0, 0, 0
41, 0, 0, 0
42, 0, 0, 0
43, 0, 0, 0
44, 0, 0, 0
45, 0, 0, 0
46, 0, 0, 0
47, 0, 0, 0
48, 0, 0, 0
49, 0, 0, 0
50, 0, 0, 0
51, 0, 0, 0
52, 0, 0, 0
53, 0, 0, 0
54, 0, 0, 10.92868328094482
55, 0, 0, 17.79949378967285
56, 0, 0, 104.7312393188477
57, 0, 0, 217.4147338867188
58, 0, 0, 321.7727966308594
59, 0, 0, 387.3026733398438
60, 0, 0, 373.7134704589844
61, 0, 0, 328.4888610839844
62, 0, 0, 307.853271484375
63, 0, 0, 265.3163757324219
64, 0, 0, 247.1274871826172
65, 0, 0, 227.5943756103516
66, 0, 0, 211.7387084960938
67, 0, 0, 199.3449554443359
68, 0, 0, 186.9324035644531
69, 0, 0, 179.5113067626953
70, 0, 0, 173.2270355224609
71, 0, 0, 167.3709564208984
72, 0, 0, 159.0720672607422
73, 0, 0, 156.0724029541016
74, 0, 0, 153.3840179443359
75, 0, 0, 147.6953735351562
76, 0, 0, 144.1179809570312
77, 0, 0, 141.4719696044922
78, 0, 0, 137.4396820068359
79, 0, 0, 134.2980346679688
80, 0, 0, 132.750732421875
81, 0, 0, 129.4585418701172
82, 0, 0, 125.8814010620117
83, 0, 0, 124.8883438110352
84, 0, 0, 122.6513748168945
85, 0, 0, 120.46728515625
86, 0, 0, 119.2505722045898
87, 0, 0, 116.4858703613281
88, 0, 0, 114.0995483398438
89, 0, 0, 113.6914443969727
90, 0, 0, 111.9099731445312
91, 0, 0, 110.4956130981445
92, 0, 0, 108.225944519043
93, 0, 0, 108.3995742797852
94, 0, 0, 106.2262496948242
95, 0, 0, 104.7819519042969
96, 0, 0, 106.0380020141602
97, 0, 0, 100.688232421875
98, 0, 0, 100.9529113769531
99, 0, 0, 101.8022766113281
100, 0, 0, 100.8262100219727
101, 0, 0, 97.714111328125
102, 0, 0, 96.87735748291016
103, 0, 0, 96.68076324462891
104, 0, 0, 95.92707824707031
105, 0, 0, 93.24986267089844
106, 0, 0, 94.005126953125
107, 0, 0, 95.17446899414062
108, 0, 0, 93.32196807861328
109, 0, 0, 92.76006317138672
110, 0, 0, 90.32691192626953
111, 0, 0, 92.30757141113281
112, 0, 0, 89.89704132080078
113, 0, 0, 89.910400390625
114, 0, 0, 87.80780792236328
115, 0, 0, 86.32976531982422
116, 0, 0, 86.42640686035156
117, 0, 0, 84.39750671386719
118, 0, 0, 83.65367889404297
119, 0, 0, 84.9290771484375
120, 0, 0, 84.409912109375
121, 0, 0, 84.92696380615234
122, 0, 0, 84.67113494873047
123, 0, 0, 84.56542205810547
124, 0, 0, 82.48672485351562
125, 0, 0, 82.37526702880859
126, 0, 0, 82.776611328125
127, 0, 0, 82.40499877929688
128, 0, 0, 80.56699371337891
129, 0, 0, 80.90569305419922
130, 0, 0, 79.93244934082031
131, 0, 0, 81.57715606689453
132, 0, 0, 78.00962066650391
133, 0, 0, 79.59674835205078
134, 0, 0, 78.20445251464844
135, 0, 0, 78.27660369873047
136, 0, 0, 76.50257873535156
137, 0, 0, 76.50844573974609
138, 0, 0, 76.35350036621094
139, 0, 0, 74.90852355957031
140, 0, 0, 74.75614166259766
141, 0, 0, 75.14459228515625
142, 0, 0, 75.65688323974609
143, 0, 0, 74.34183502197266
144, 0, 0, 72.83599090576172
145, 0, 0, 75.83345031738281
146, 0, 0, 75.18965911865234
147, 0, 0, 72.46040344238281
148, 0, 0, 73.42453765869141
149, 0, 0, 71.89453125
150, 0, 0, 69.23435974121094
151, 0, 0, 72.32018280029297
152, 0, 0, 72.17234039306641
153, 0, 0, 72.51276397705078
154, 0, 0, 72.15831756591797
155, 0, 0, 71.6533203125
156, 0, 0, 72.31817626953125
157, 0, 0, 70.28581237792969
158, 0, 0, 70.06338500976562
159, 0, 0, 69.01470947265625
160, 0, 0, 69.90591430664062
161, 0, 0, 68.38205718994141
162, 0, 0, 69.73561096191406
163, 0, 0, 68.19530487060547
164, 0, 0, 67.23213195800781
165, 0, 0, 69.87901306152344
166, 0, 0, 69.06681823730469
167, 0, 0, 65.92388153076172
168, 0, 0, 66.05087280273438
169, 0, 0, 67.73130035400391
170, 0, 0, 67.25322723388672
171, 0, 0, 66.76857757568359
172, 0, 0, 67.20223999023438
173, 0, 0, 66.52616882324219
174, 0, 0, 64.98495483398438
175, 0, 0, 65.86898040771484
176, 0, 0, 64.94108581542969
177, 0, 0, 64.25778961181641
178, 0, 0, 66.96874237060547
179, 0, 0, 65.04344940185547
