# TOPAS Version: 3.3.p1
# Parameter File: Test.txt
# Results for scorer MLIC_Scorer
# Scored in component: MLIC
# X in 180 bins of 0.177778 cm
# Y in 1 bin  of 10 cm
# Z in 1 bin  of 10 cm
# EnergyDeposit ( MeV ) : Sum   
0, 0, 0, 0
1, 0, 0, 0
2, 0, 0, 0
3, 0, 0, 0
4, 0, 0, 0
5, 0, 0, 0
6, 0, 0, 0
7, 0, 0, 0
8, 0, 0, 0
9, 0, 0, 0
10, 0, 0, 0
11, 0, 0, 0
12, 0, 0, 0
13, 0, 0, 0
14, 0, 0, 0
15, 0, 0, 0
16, 0, 0, 6.409959316253662
17, 0, 0, 53.64505767822266
18, 0, 0, 230.0567932128906
19, 0, 0, 596.8358154296875
20, 0, 0, 1484.052001953125
21, 0, 0, 2740.60205078125
22, 0, 0, 4258.1630859375
23, 0, 0, 4944.78955078125
24, 0, 0, 4964.421875
25, 0, 0, 4540.8359375
26, 0, 0, 4009.48388671875
27, 0, 0, 3512.57373046875
28, 0, 0, 3165.764892578125
29, 0, 0, 2926.552490234375
30, 0, 0, 2744.38671875
31, 0, 0, 2597.723876953125
32, 0, 0, 2470.786865234375
33, 0, 0, 2362.17626953125
34, 0, 0, 2256.32373046875
35, 0, 0, 2185.625732421875
36, 0, 0, 2115.360595703125
37, 0, 0, 2051.855224609375
38, 0, 0, 1994.100830078125
39, 0, 0, 1939.35498046875
40, 0, 0, 1889.083374023438
41, 0, 0, 1846.95458984375
42, 0, 0, 1804.585571289062
43, 0, 0, 1769.917724609375
44, 0, 0, 1732.296997070312
45, 0, 0, 1700.810180664062
46, 0, 0, 1663.753051757812
47, 0, 0, 1634.64892578125
48, 0, 0, 1606.130249023438
49, 0, 0, 1591.742065429688
50, 0, 0, 1558.698608398438
51, 0, 0, 1534.109985351562
52, 0, 0, 1507.5009765625
53, 0, 0, 1490.738037109375
54, 0, 0, 1467.937744140625
55, 0, 0, 1445.797729492188
56, 0, 0, 1437.950561523438
57, 0, 0, 1408.224609375
58, 0, 0, 1398.372924804688
59, 0, 0, 1380.766723632812
60, 0, 0, 1366.032104492188
61, 0, 0, 1356.324584960938
62, 0, 0, 1329.21142578125
63, 0, 0, 1324.582275390625
64, 0, 0, 1310.959594726562
65, 0, 0, 1297.54736328125
66, 0, 0, 1282.779418945312
67, 0, 0, 1277.516967773438
68, 0, 0, 1263.935668945312
69, 0, 0, 1253.015380859375
70, 0, 0, 1242.79638671875
71, 0, 0, 1225.543701171875
72, 0, 0, 1212.1171875
73, 0, 0, 1208.435791015625
74, 0, 0, 1190.441162109375
75, 0, 0, 1187.609497070312
76, 0, 0, 1176.470458984375
77, 0, 0, 1177.1181640625
78, 0, 0, 1160.088500976562
79, 0, 0, 1157.065673828125
80, 0, 0, 1147.126098632812
81, 0, 0, 1137.549194335938
82, 0, 0, 1129.260375976562
83, 0, 0, 1121.033325195312
84, 0, 0, 1112.628662109375
85, 0, 0, 1100.370483398438
86, 0, 0, 1100.07275390625
87, 0, 0, 1087.646606445312
88, 0, 0, 1087.954467773438
89, 0, 0, 1078.623779296875
90, 0, 0, 1078.893432617188
91, 0, 0, 1070.225219726562
92, 0, 0, 1054.837890625
93, 0, 0, 1054.350830078125
94, 0, 0, 1050.328247070312
95, 0, 0, 1037.9560546875
96, 0, 0, 1044.405883789062
97, 0, 0, 1036.547973632812
98, 0, 0, 1028.66162109375
99, 0, 0, 1026.968994140625
100, 0, 0, 1018.555969238281
101, 0, 0, 1006.038330078125
102, 0, 0, 1006.961242675781
103, 0, 0, 993.080322265625
104, 0, 0, 994.461181640625
105, 0, 0, 988.9810180664062
106, 0, 0, 988.6282958984375
107, 0, 0, 976.468994140625
108, 0, 0, 968.7176513671875
109, 0, 0, 975.3543090820312
110, 0, 0, 962.5968627929688
111, 0, 0, 967.7161254882812
112, 0, 0, 959.5528564453125
113, 0, 0, 948.5802001953125
114, 0, 0, 952.7236328125
115, 0, 0, 943.4159545898438
116, 0, 0, 945.80419921875
117, 0, 0, 938.4513549804688
118, 0, 0, 935.7997436523438
119, 0, 0, 936.7229614257812
120, 0, 0, 931.512451171875
121, 0, 0, 920.1000366210938
122, 0, 0, 917.747802734375
123, 0, 0, 912.5095825195312
124, 0, 0, 905.2994995117188
125, 0, 0, 911.981689453125
126, 0, 0, 902.5938720703125
127, 0, 0, 897.134521484375
128, 0, 0, 901.9290771484375
129, 0, 0, 893.8258666992188
130, 0, 0, 891.7506103515625
131, 0, 0, 895.7831420898438
132, 0, 0, 885.0181884765625
133, 0, 0, 885.2987670898438
134, 0, 0, 880.1773071289062
135, 0, 0, 877.0699462890625
136, 0, 0, 863.318359375
137, 0, 0, 866.9231567382812
138, 0, 0, 871.5745239257812
139, 0, 0, 867.3582153320312
140, 0, 0, 862.9803466796875
141, 0, 0, 859.0775146484375
142, 0, 0, 857.4321899414062
143, 0, 0, 856.6724853515625
144, 0, 0, 855.5435791015625
145, 0, 0, 845.8013916015625
146, 0, 0, 846.12158203125
147, 0, 0, 846.3553466796875
148, 0, 0, 838.4954223632812
149, 0, 0, 844.3828125
150, 0, 0, 837.17431640625
151, 0, 0, 842.082275390625
152, 0, 0, 824.6012573242188
153, 0, 0, 831.257568359375
154, 0, 0, 834.328125
155, 0, 0, 828.5947265625
156, 0, 0, 822.3195190429688
157, 0, 0, 823.841552734375
158, 0, 0, 822.4932250976562
159, 0, 0, 816.177734375
160, 0, 0, 813.5430297851562
161, 0, 0, 810.28955078125
162, 0, 0, 812.5704956054688
163, 0, 0, 807.0126953125
164, 0, 0, 808.0779418945312
165, 0, 0, 800.9974975585938
166, 0, 0, 794.2127685546875
167, 0, 0, 806.8041381835938
168, 0, 0, 790.1475830078125
169, 0, 0, 794.7972412109375
170, 0, 0, 782.267822265625
171, 0, 0, 784.2040405273438
172, 0, 0, 787.8372192382812
173, 0, 0, 794.3245239257812
174, 0, 0, 784.59716796875
175, 0, 0, 783.22265625
176, 0, 0, 782.8767700195312
177, 0, 0, 786.7706909179688
178, 0, 0, 776.3334350585938
179, 0, 0, 777.606201171875
