# TOPAS Version: 3.3.p1
# Parameter File: Test.txt
# Results for scorer MLIC_Scorer
# Scored in component: MLIC
# X in 165 bins of 0.2 cm
# Y in 1 bin  of 10 cm
# Z in 1 bin  of 10 cm
# EnergyDeposit ( MeV ) : Sum   
0, 0, 0, 534.9136352539062
1, 0, 0, 1589.624755859375
2, 0, 0, 2975.615234375
3, 0, 0, 4718.69091796875
4, 0, 0, 5412.91796875
5, 0, 0, 5345.33203125
6, 0, 0, 4819.07958984375
7, 0, 0, 4174.6982421875
8, 0, 0, 3753.518798828125
9, 0, 0, 3396.87255859375
10, 0, 0, 3134.052001953125
11, 0, 0, 2930.088134765625
12, 0, 0, 2764.235107421875
13, 0, 0, 2637.578369140625
14, 0, 0, 2525.140869140625
15, 0, 0, 2425.443603515625
16, 0, 0, 2332.5234375
17, 0, 0, 2263.051025390625
18, 0, 0, 2188.8291015625
19, 0, 0, 2122.005126953125
20, 0, 0, 2076.390869140625
21, 0, 0, 2014.880737304688
22, 0, 0, 1970.593139648438
23, 0, 0, 1923.029296875
24, 0, 0, 1891.253784179688
25, 0, 0, 1847.987060546875
26, 0, 0, 1817.204833984375
27, 0, 0, 1779.712524414062
28, 0, 0, 1752.015014648438
29, 0, 0, 1724.007934570312
30, 0, 0, 1695.780395507812
31, 0, 0, 1657.67138671875
32, 0, 0, 1641.025390625
33, 0, 0, 1613.719482421875
34, 0, 0, 1589.07421875
35, 0, 0, 1581.541015625
36, 0, 0, 1552.161376953125
37, 0, 0, 1528.634521484375
38, 0, 0, 1520.950439453125
39, 0, 0, 1500.330200195312
40, 0, 0, 1470.844116210938
41, 0, 0, 1466.038208007812
42, 0, 0, 1443.38818359375
43, 0, 0, 1429.662353515625
44, 0, 0, 1417.850341796875
45, 0, 0, 1396.389770507812
46, 0, 0, 1390.447143554688
47, 0, 0, 1380.365234375
48, 0, 0, 1359.77392578125
49, 0, 0, 1355.014404296875
50, 0, 0, 1341.18896484375
51, 0, 0, 1329.310791015625
52, 0, 0, 1308.853149414062
53, 0, 0, 1300.05078125
54, 0, 0, 1290.665771484375
55, 0, 0, 1283.630249023438
56, 0, 0, 1272.174682617188
57, 0, 0, 1262.169555664062
58, 0, 0, 1253.9267578125
59, 0, 0, 1245.233520507812
60, 0, 0, 1232.750610351562
61, 0, 0, 1221.168212890625
62, 0, 0, 1214.908325195312
63, 0, 0, 1214.31298828125
64, 0, 0, 1209.012817382812
65, 0, 0, 1192.284423828125
66, 0, 0, 1188.590698242188
67, 0, 0, 1178.404418945312
68, 0, 0, 1165.650268554688
69, 0, 0, 1163.31298828125
70, 0, 0, 1150.981811523438
71, 0, 0, 1148.666625976562
72, 0, 0, 1144.522216796875
73, 0, 0, 1140.788208007812
74, 0, 0, 1130.640625
75, 0, 0, 1134.376831054688
76, 0, 0, 1125.310913085938
77, 0, 0, 1102.462646484375
78, 0, 0, 1110.59619140625
79, 0, 0, 1094.170776367188
80, 0, 0, 1097.746459960938
81, 0, 0, 1091.67578125
82, 0, 0, 1084.268188476562
83, 0, 0, 1075.998291015625
84, 0, 0, 1071.563598632812
85, 0, 0, 1074.742309570312
86, 0, 0, 1053.86962890625
87, 0, 0, 1053.900512695312
88, 0, 0, 1052.889282226562
89, 0, 0, 1050.848754882812
90, 0, 0, 1040.330078125
91, 0, 0, 1039.020385742188
92, 0, 0, 1039.20947265625
93, 0, 0, 1029.363159179688
94, 0, 0, 1023.736877441406
95, 0, 0, 1014.669860839844
96, 0, 0, 1024.948852539062
97, 0, 0, 1012.204284667969
98, 0, 0, 1003.998107910156
99, 0, 0, 1008.577758789062
100, 0, 0, 1004.470092773438
101, 0, 0, 992.6905517578125
102, 0, 0, 993.7080688476562
103, 0, 0, 989.5117797851562
104, 0, 0, 979.8573608398438
105, 0, 0, 988.2162475585938
106, 0, 0, 973.69189453125
107, 0, 0, 975.8040161132812
108, 0, 0, 967.489501953125
109, 0, 0, 963.2669677734375
110, 0, 0, 965.9555053710938
111, 0, 0, 953.92333984375
112, 0, 0, 957.943115234375
113, 0, 0, 955.8058471679688
114, 0, 0, 954.0592041015625
115, 0, 0, 945.6696166992188
116, 0, 0, 938.73828125
117, 0, 0, 941.68994140625
118, 0, 0, 933.7036743164062
119, 0, 0, 937.1173706054688
120, 0, 0, 930.0035400390625
121, 0, 0, 933.1716918945312
122, 0, 0, 925.3985595703125
123, 0, 0, 916.3678588867188
124, 0, 0, 912.0745239257812
125, 0, 0, 913.083251953125
126, 0, 0, 915.9839477539062
127, 0, 0, 914.3184204101562
128, 0, 0, 909.6781005859375
129, 0, 0, 909.625732421875
130, 0, 0, 905.9076538085938
131, 0, 0, 896.6846923828125
132, 0, 0, 895.7521362304688
133, 0, 0, 892.16455078125
134, 0, 0, 900.6979370117188
135, 0, 0, 887.1197509765625
136, 0, 0, 889.1563720703125
137, 0, 0, 883.8055419921875
138, 0, 0, 889.1947021484375
139, 0, 0, 880.617919921875
140, 0, 0, 879.8455200195312
141, 0, 0, 878.0227661132812
142, 0, 0, 867.0789794921875
143, 0, 0, 868.16162109375
144, 0, 0, 859.37158203125
145, 0, 0, 874.00341796875
146, 0, 0, 868.908447265625
147, 0, 0, 866.4911499023438
148, 0, 0, 863.3080444335938
149, 0, 0, 853.94677734375
150, 0, 0, 851.0157470703125
151, 0, 0, 859.3797607421875
152, 0, 0, 851.0123901367188
153, 0, 0, 845.5624389648438
154, 0, 0, 844.8557739257812
155, 0, 0, 839.35693359375
156, 0, 0, 848.015869140625
157, 0, 0, 845.6429443359375
158, 0, 0, 832.1383666992188
159, 0, 0, 834.618408203125
160, 0, 0, 836.1472778320312
161, 0, 0, 834.4306640625
162, 0, 0, 828.2568969726562
163, 0, 0, 823.5489501953125
164, 0, 0, 826.2169189453125
