# TOPAS Version: 3.3.p1
# Parameter File: Test.txt
# Results for scorer MLIC_Scorer
# Scored in component: MLIC
# X in 180 bins of 0.177778 cm
# Y in 1 bin  of 10 cm
# Z in 1 bin  of 10 cm
# EnergyDeposit ( MeV ) : Sum   
0, 0, 0, 0
1, 0, 0, 0
2, 0, 0, 0
3, 0, 0, 0
4, 0, 0, 0
5, 0, 0, 0
6, 0, 0, 0
7, 0, 0, 0
8, 0, 0, 0
9, 0, 0, 0
10, 0, 0, 0
11, 0, 0, 0
12, 0, 0, 0
13, 0, 0, 0
14, 0, 0, 0
15, 0, 0, 0
16, 0, 0, 0
17, 0, 0, 0
18, 0, 0, 0
19, 0, 0, 0
20, 0, 0, 0.01093933265656233
21, 0, 0, 0
22, 0, 0, 12.07724094390869
23, 0, 0, 28.35305786132812
24, 0, 0, 128.1580505371094
25, 0, 0, 474.0349426269531
26, 0, 0, 1277.0498046875
27, 0, 0, 2546.4423828125
28, 0, 0, 3987.374755859375
29, 0, 0, 5046.17529296875
30, 0, 0, 4994.42333984375
31, 0, 0, 4601.15478515625
32, 0, 0, 4085.337890625
33, 0, 0, 3581.244873046875
34, 0, 0, 3222.65283203125
35, 0, 0, 2960.56884765625
36, 0, 0, 2765.7373046875
37, 0, 0, 2608.622314453125
38, 0, 0, 2477.613037109375
39, 0, 0, 2375.70263671875
40, 0, 0, 2276.904541015625
41, 0, 0, 2196.48779296875
42, 0, 0, 2123.049560546875
43, 0, 0, 2061.251708984375
44, 0, 0, 1992.023071289062
45, 0, 0, 1939.988525390625
46, 0, 0, 1898.444702148438
47, 0, 0, 1848.001586914062
48, 0, 0, 1807.236083984375
49, 0, 0, 1765.690673828125
50, 0, 0, 1738.921875
51, 0, 0, 1693.264892578125
52, 0, 0, 1680.115356445312
53, 0, 0, 1636.04638671875
54, 0, 0, 1615.86279296875
55, 0, 0, 1590.512817382812
56, 0, 0, 1564.997924804688
57, 0, 0, 1541.530517578125
58, 0, 0, 1524.319213867188
59, 0, 0, 1493.007934570312
60, 0, 0, 1478.077514648438
61, 0, 0, 1453.290405273438
62, 0, 0, 1436.21142578125
63, 0, 0, 1411.483276367188
64, 0, 0, 1407.417358398438
65, 0, 0, 1383.612182617188
66, 0, 0, 1369.936645507812
67, 0, 0, 1358.287841796875
68, 0, 0, 1334.913696289062
69, 0, 0, 1323.320678710938
70, 0, 0, 1317.710205078125
71, 0, 0, 1296.903564453125
72, 0, 0, 1283.958740234375
73, 0, 0, 1277.965454101562
74, 0, 0, 1263.484130859375
75, 0, 0, 1258.138793945312
76, 0, 0, 1244.078735351562
77, 0, 0, 1230.9140625
78, 0, 0, 1228.154663085938
79, 0, 0, 1211.978637695312
80, 0, 0, 1204.736450195312
81, 0, 0, 1189.875
82, 0, 0, 1179.6689453125
83, 0, 0, 1161.667602539062
84, 0, 0, 1156.732421875
85, 0, 0, 1156.715209960938
86, 0, 0, 1147.576293945312
87, 0, 0, 1139.197875976562
88, 0, 0, 1128.459594726562
89, 0, 0, 1122.071533203125
90, 0, 0, 1116.053955078125
91, 0, 0, 1108.168090820312
92, 0, 0, 1101.98388671875
93, 0, 0, 1090.611328125
94, 0, 0, 1086.170166015625
95, 0, 0, 1078.393920898438
96, 0, 0, 1069.94921875
97, 0, 0, 1068.036376953125
98, 0, 0, 1068.623291015625
99, 0, 0, 1056.8095703125
100, 0, 0, 1049.888061523438
101, 0, 0, 1044.833862304688
102, 0, 0, 1038.919311523438
103, 0, 0, 1038.556640625
104, 0, 0, 1024.911987304688
105, 0, 0, 1024.691162109375
106, 0, 0, 1020.418334960938
107, 0, 0, 1014.777770996094
108, 0, 0, 1003.256530761719
109, 0, 0, 1007.096862792969
110, 0, 0, 993.0909423828125
111, 0, 0, 990.4010620117188
112, 0, 0, 985.98291015625
113, 0, 0, 977.8997802734375
114, 0, 0, 978.9152221679688
115, 0, 0, 971.3486328125
116, 0, 0, 972.2132568359375
117, 0, 0, 965.8637084960938
118, 0, 0, 963.5015869140625
119, 0, 0, 955.337158203125
120, 0, 0, 945.3413696289062
121, 0, 0, 953.3915405273438
122, 0, 0, 962.6314086914062
123, 0, 0, 942.4281616210938
124, 0, 0, 923.97509765625
125, 0, 0, 930.9330444335938
126, 0, 0, 928.1370239257812
127, 0, 0, 923.4816284179688
128, 0, 0, 924.064208984375
129, 0, 0, 916.26025390625
130, 0, 0, 905.6953735351562
131, 0, 0, 910.0545043945312
132, 0, 0, 902.742919921875
133, 0, 0, 904.4938354492188
134, 0, 0, 896.4159545898438
135, 0, 0, 890.599609375
136, 0, 0, 894.1074829101562
137, 0, 0, 896.7904052734375
138, 0, 0, 880.3751831054688
139, 0, 0, 875.8225708007812
140, 0, 0, 881.1158447265625
141, 0, 0, 873.0537109375
142, 0, 0, 865.866455078125
143, 0, 0, 870.2745361328125
144, 0, 0, 864.0466918945312
145, 0, 0, 871.4857177734375
146, 0, 0, 863.4903564453125
147, 0, 0, 854.3428955078125
148, 0, 0, 857.4803466796875
149, 0, 0, 861.095458984375
150, 0, 0, 851.681640625
151, 0, 0, 856.9963989257812
152, 0, 0, 855.1332397460938
153, 0, 0, 845.9789428710938
154, 0, 0, 837.5464477539062
155, 0, 0, 838.858154296875
156, 0, 0, 846.749267578125
157, 0, 0, 835.4228515625
158, 0, 0, 834.8529663085938
159, 0, 0, 821.5985107421875
160, 0, 0, 825.1707763671875
161, 0, 0, 817.2769165039062
162, 0, 0, 826.5938720703125
163, 0, 0, 821.7786254882812
164, 0, 0, 819.5814208984375
165, 0, 0, 817.3729248046875
166, 0, 0, 817.1746826171875
167, 0, 0, 815.7271118164062
168, 0, 0, 810.3683471679688
169, 0, 0, 800.6130981445312
170, 0, 0, 804.4883422851562
171, 0, 0, 801.0945434570312
172, 0, 0, 803.5021362304688
173, 0, 0, 792.3453369140625
174, 0, 0, 806.7450561523438
175, 0, 0, 791.7640380859375
176, 0, 0, 795.0637817382812
177, 0, 0, 797.7049560546875
178, 0, 0, 793.3065185546875
179, 0, 0, 791.6353149414062
