# TOPAS Version: 3.3.p1
# Parameter File: Test.txt
# Results for scorer MLIC_Scorer
# Scored in component: MLIC
# X in 180 bins of 0.183333 cm
# Y in 1 bin  of 10 cm
# Z in 1 bin  of 10 cm
# EnergyDeposit ( MeV ) : Sum   
0, 0, 0, 0
1, 0, 0, 0
2, 0, 0, 0
3, 0, 0, 0
4, 0, 0, 0
5, 0, 0, 0
6, 0, 0, 0
7, 0, 0, 0
8, 0, 0, 0
9, 0, 0, 0
10, 0, 0, 0
11, 0, 0, 0
12, 0, 0, 0
13, 0, 0, 0
14, 0, 0, 0
15, 0, 0, 0.02421564795076847
16, 0, 0, 0
17, 0, 0, 8.279145549749956e-05
18, 0, 0, 0.001029942650347948
19, 0, 0, 0
20, 0, 0, 0
21, 0, 0, 0
22, 0, 0, 0
23, 0, 0, 0
24, 0, 0, 0.001191229792311788
25, 0, 0, 0
26, 0, 0, 0.002573789097368717
27, 0, 0, 0
28, 0, 0, 0
29, 0, 0, 0.007380926515907049
30, 0, 0, 0
31, 0, 0, 0
32, 0, 0, 0.004317165352404118
33, 0, 0, 0
34, 0, 0, 0
35, 0, 0, 0
36, 0, 0, 0
37, 0, 0, 0
38, 0, 0, 0
39, 0, 0, 0
40, 0, 0, 0
41, 0, 0, 0.000517086882609874
42, 0, 0, 0
43, 0, 0, 0
44, 0, 0, 0
45, 0, 0, 0
46, 0, 0, 0
47, 0, 0, 0
48, 0, 0, 0
49, 0, 0, 0
50, 0, 0, 0
51, 0, 0, 0
52, 0, 0, 0
53, 0, 0, 10.681471824646
54, 0, 0, 104.7920455932617
55, 0, 0, 495.3489685058594
56, 0, 0, 1374.358154296875
57, 0, 0, 3021.904296875
58, 0, 0, 4424.03515625
59, 0, 0, 5081.1455078125
60, 0, 0, 5052.4365234375
61, 0, 0, 4698.2041015625
62, 0, 0, 4019.390869140625
63, 0, 0, 3556.119384765625
64, 0, 0, 3222.421875
65, 0, 0, 2975.410400390625
66, 0, 0, 2799.644775390625
67, 0, 0, 2631.551025390625
68, 0, 0, 2510.90576171875
69, 0, 0, 2398.660888671875
70, 0, 0, 2315.73828125
71, 0, 0, 2226.93212890625
72, 0, 0, 2145.6103515625
73, 0, 0, 2085.966796875
74, 0, 0, 2027.282958984375
75, 0, 0, 1975.1982421875
76, 0, 0, 1919.263793945312
77, 0, 0, 1871.738403320312
78, 0, 0, 1838.153442382812
79, 0, 0, 1797.963134765625
80, 0, 0, 1757.512573242188
81, 0, 0, 1728.597900390625
82, 0, 0, 1694.05419921875
83, 0, 0, 1659.90283203125
84, 0, 0, 1630
85, 0, 0, 1615.315551757812
86, 0, 0, 1584.794799804688
87, 0, 0, 1569.236206054688
88, 0, 0, 1546.533935546875
89, 0, 0, 1524.529052734375
90, 0, 0, 1496.4130859375
91, 0, 0, 1476.960571289062
92, 0, 0, 1459.2705078125
93, 0, 0, 1442.718139648438
94, 0, 0, 1421.207397460938
95, 0, 0, 1409.425659179688
96, 0, 0, 1393.452392578125
97, 0, 0, 1385.038696289062
98, 0, 0, 1363.18115234375
99, 0, 0, 1348.047973632812
100, 0, 0, 1334.940063476562
101, 0, 0, 1323.657836914062
102, 0, 0, 1315.89404296875
103, 0, 0, 1297.326904296875
104, 0, 0, 1287.157958984375
105, 0, 0, 1266.278564453125
106, 0, 0, 1268.052856445312
107, 0, 0, 1251.894897460938
108, 0, 0, 1241.144165039062
109, 0, 0, 1231.227783203125
110, 0, 0, 1214.76953125
111, 0, 0, 1201.439086914062
112, 0, 0, 1201.928588867188
113, 0, 0, 1193.379150390625
114, 0, 0, 1183.388549804688
115, 0, 0, 1175.4091796875
116, 0, 0, 1165.113403320312
117, 0, 0, 1158.794555664062
118, 0, 0, 1143.317749023438
119, 0, 0, 1140.493774414062
120, 0, 0, 1136.098876953125
121, 0, 0, 1125.722778320312
122, 0, 0, 1117.800537109375
123, 0, 0, 1113.2451171875
124, 0, 0, 1110.595458984375
125, 0, 0, 1093.68701171875
126, 0, 0, 1087.63525390625
127, 0, 0, 1091.301635742188
128, 0, 0, 1081.36083984375
129, 0, 0, 1069.560546875
130, 0, 0, 1071.580078125
131, 0, 0, 1054.252075195312
132, 0, 0, 1055.969848632812
133, 0, 0, 1042.723022460938
134, 0, 0, 1046.50390625
135, 0, 0, 1035.680786132812
136, 0, 0, 1032.808837890625
137, 0, 0, 1032.367797851562
138, 0, 0, 1020.699279785156
139, 0, 0, 1015.128173828125
140, 0, 0, 1007.124267578125
141, 0, 0, 1015.942565917969
142, 0, 0, 1006.580139160156
143, 0, 0, 992.8546752929688
144, 0, 0, 1006.365234375
145, 0, 0, 997.0402221679688
146, 0, 0, 989.139892578125
147, 0, 0, 978.1434326171875
148, 0, 0, 974.597412109375
149, 0, 0, 974.4769287109375
150, 0, 0, 974.18994140625
151, 0, 0, 963.8738403320312
152, 0, 0, 965.4622802734375
153, 0, 0, 957.8577270507812
154, 0, 0, 946.8964233398438
155, 0, 0, 953.4934692382812
156, 0, 0, 940.4786987304688
157, 0, 0, 940.531982421875
158, 0, 0, 946.0567016601562
159, 0, 0, 930.8482055664062
160, 0, 0, 932.0632934570312
161, 0, 0, 931.8690185546875
162, 0, 0, 917.93994140625
163, 0, 0, 913.63720703125
164, 0, 0, 911.4417114257812
165, 0, 0, 913.4236450195312
166, 0, 0, 906.4734497070312
167, 0, 0, 902.6180419921875
168, 0, 0, 899.795654296875
169, 0, 0, 901.2037353515625
170, 0, 0, 891.6522216796875
171, 0, 0, 900.6226806640625
172, 0, 0, 890.3942260742188
173, 0, 0, 886.296875
174, 0, 0, 888.2864990234375
175, 0, 0, 884.1563110351562
176, 0, 0, 874.6802368164062
177, 0, 0, 883.1810302734375
178, 0, 0, 870.9208374023438
179, 0, 0, 869.1961669921875
