# TOPAS Version: 3.3.p1
# Parameter File: Test.txt
# Results for scorer MLIC_Scorer
# Scored in component: MLIC
# X in 180 bins of 0.183333 cm
# Y in 1 bin  of 10 cm
# Z in 1 bin  of 10 cm
# EnergyDeposit ( MeV ) : Sum   
0, 0, 0, 0
1, 0, 0, 0
2, 0, 0, 0
3, 0, 0, 0
4, 0, 0, 0
5, 0, 0, 0
6, 0, 0, 0
7, 0, 0, 0
8, 0, 0, 0
9, 0, 0, 0
10, 0, 0, 0
11, 0, 0, 0
12, 0, 0, 0
13, 0, 0, 0
14, 0, 0, 0
15, 0, 0, 0
16, 0, 0, 0
17, 0, 0, 0
18, 0, 0, 0
19, 0, 0, 0
20, 0, 0, 0
21, 0, 0, 0
22, 0, 0, 0
23, 0, 0, 0
24, 0, 0, 0
25, 0, 0, 0
26, 0, 0, 0
27, 0, 0, 0
28, 0, 0, 0
29, 0, 0, 0
30, 0, 0, 0
31, 0, 0, 0
32, 0, 0, 0
33, 0, 0, 0
34, 0, 0, 0
35, 0, 0, 0
36, 0, 0, 0
37, 0, 0, 0
38, 0, 0, 0
39, 0, 0, 0
40, 0, 0, 0
41, 0, 0, 0
42, 0, 0, 0
43, 0, 0, 0
44, 0, 0, 0
45, 0, 0, 0
46, 0, 0, 0
47, 0, 0, 0
48, 0, 0, 0
49, 0, 0, 0
50, 0, 0, 0
51, 0, 0, 0
52, 0, 0, 0
53, 0, 0, 0
54, 0, 0, 0
55, 0, 0, 0
56, 0, 0, 0
57, 0, 0, 0
58, 0, 0, 0
59, 0, 0, 0
60, 0, 0, 0
61, 0, 0, 0
62, 0, 0, 0
63, 0, 0, 0
64, 0, 0, 0
65, 0, 0, 0
66, 0, 0, 0
67, 0, 0, 0
68, 0, 0, 0
69, 0, 0, 0
70, 0, 0, 0
71, 0, 0, 0
72, 0, 0, 0
73, 0, 0, 0
74, 0, 0, 0
75, 0, 0, 0
76, 0, 0, 0
77, 0, 0, 0
78, 0, 0, 0
79, 0, 0, 0
80, 0, 0, 0
81, 0, 0, 0
82, 0, 0, 0
83, 0, 0, 0
84, 0, 0, 0
85, 0, 0, 0
86, 0, 0, 0
87, 0, 0, 0
88, 0, 0, 0
89, 0, 0, 0
90, 0, 0, 0
91, 0, 0, 0
92, 0, 0, 0
93, 0, 0, 0
94, 0, 0, 0
95, 0, 0, 0
96, 0, 0, 0
97, 0, 0, 0
98, 0, 0, 0
99, 0, 0, 0
100, 0, 0, 0
101, 0, 0, 0
102, 0, 0, 0
103, 0, 0, 0
104, 0, 0, 0
105, 0, 0, 0.04298685863614082
106, 0, 0, 0
107, 0, 0, 0
108, 0, 0, 0
109, 0, 0, 0.007779420353472233
110, 0, 0, 0.03249520435929298
111, 0, 0, 19.4791374206543
112, 0, 0, 29.29567718505859
113, 0, 0, 121.9120178222656
114, 0, 0, 500.5516662597656
115, 0, 0, 1540.291259765625
116, 0, 0, 2961.893310546875
117, 0, 0, 4467.587890625
118, 0, 0, 5229.63232421875
119, 0, 0, 5138.5068359375
120, 0, 0, 4622.05908203125
121, 0, 0, 3961.940185546875
122, 0, 0, 3538.448974609375
123, 0, 0, 3202.462890625
124, 0, 0, 2962.75439453125
125, 0, 0, 2771.1572265625
126, 0, 0, 2623.19921875
127, 0, 0, 2494.059814453125
128, 0, 0, 2389.22509765625
129, 0, 0, 2291.9521484375
130, 0, 0, 2211.754150390625
131, 0, 0, 2147.201904296875
132, 0, 0, 2083.99609375
133, 0, 0, 2026.024047851562
134, 0, 0, 1967.583984375
135, 0, 0, 1919.732299804688
136, 0, 0, 1879.374633789062
137, 0, 0, 1821.718505859375
138, 0, 0, 1794.284057617188
139, 0, 0, 1757.173706054688
140, 0, 0, 1719.569702148438
141, 0, 0, 1687.689575195312
142, 0, 0, 1662.205200195312
143, 0, 0, 1636.848999023438
144, 0, 0, 1613.262329101562
145, 0, 0, 1585.657470703125
146, 0, 0, 1549.389282226562
147, 0, 0, 1536.2119140625
148, 0, 0, 1514.592651367188
149, 0, 0, 1490.210205078125
150, 0, 0, 1475.181884765625
151, 0, 0, 1456.996948242188
152, 0, 0, 1444.761962890625
153, 0, 0, 1422.349853515625
154, 0, 0, 1407.978149414062
155, 0, 0, 1394.451416015625
156, 0, 0, 1373.3955078125
157, 0, 0, 1362.434204101562
158, 0, 0, 1353.052368164062
159, 0, 0, 1331.183349609375
160, 0, 0, 1324.50146484375
161, 0, 0, 1307.999877929688
162, 0, 0, 1300.259643554688
163, 0, 0, 1291.603637695312
164, 0, 0, 1271.252197265625
165, 0, 0, 1260.885498046875
166, 0, 0, 1242.714477539062
167, 0, 0, 1240.764038085938
168, 0, 0, 1232.41552734375
169, 0, 0, 1221.750122070312
170, 0, 0, 1209.905029296875
171, 0, 0, 1197.32861328125
172, 0, 0, 1198.865478515625
173, 0, 0, 1175.1748046875
174, 0, 0, 1168.0205078125
175, 0, 0, 1175.146484375
176, 0, 0, 1158.351196289062
177, 0, 0, 1148.985717773438
178, 0, 0, 1141.02490234375
179, 0, 0, 1136.542724609375
