# TOPAS Version: 3.3.p1
# Parameter File: Test.txt
# Results for scorer MLIC_Scorer
# Scored in component: MLIC
# X in 180 bins of 0.183333 cm
# Y in 1 bin  of 10 cm
# Z in 1 bin  of 10 cm
# EnergyDeposit ( MeV ) : Sum   
0, 0, 0, 0
1, 0, 0, 0
2, 0, 0, 0
3, 0, 0, 0
4, 0, 0, 0
5, 0, 0, 0
6, 0, 0, 0
7, 0, 0, 0
8, 0, 0, 0
9, 0, 0, 0
10, 0, 0, 0
11, 0, 0, 0
12, 0, 0, 0
13, 0, 0, 0
14, 0, 0, 0
15, 0, 0, 0
16, 0, 0, 0
17, 0, 0, 0
18, 0, 0, 0
19, 0, 0, 0
20, 0, 0, 0
21, 0, 0, 0
22, 0, 0, 0
23, 0, 0, 0
24, 0, 0, 0
25, 0, 0, 0
26, 0, 0, 0
27, 0, 0, 0
28, 0, 0, 0
29, 0, 0, 0
30, 0, 0, 0
31, 0, 0, 0
32, 0, 0, 0
33, 0, 0, 0
34, 0, 0, 0
35, 0, 0, 0
36, 0, 0, 0
37, 0, 0, 0
38, 0, 0, 0
39, 0, 0, 0
40, 0, 0, 0
41, 0, 0, 0
42, 0, 0, 0
43, 0, 0, 0
44, 0, 0, 0.005941991228610277
45, 0, 0, 0.03594256192445755
46, 0, 0, 57.76972198486328
47, 0, 0, 391.0886535644531
48, 0, 0, 1148.093505859375
49, 0, 0, 2510.837158203125
50, 0, 0, 3733.822265625
51, 0, 0, 4766.896484375
52, 0, 0, 5227.8095703125
53, 0, 0, 4832.5771484375
54, 0, 0, 4248.72314453125
55, 0, 0, 3718.817626953125
56, 0, 0, 3328.036865234375
57, 0, 0, 3059.124755859375
58, 0, 0, 2852.417724609375
59, 0, 0, 2689.806884765625
60, 0, 0, 2550.428466796875
61, 0, 0, 2433.911865234375
62, 0, 0, 2336.316162109375
63, 0, 0, 2247.4892578125
64, 0, 0, 2175.347412109375
65, 0, 0, 2113.333740234375
66, 0, 0, 2040.306884765625
67, 0, 0, 1989.709716796875
68, 0, 0, 1941.643310546875
69, 0, 0, 1892.026000976562
70, 0, 0, 1847.52294921875
71, 0, 0, 1806.954223632812
72, 0, 0, 1771.265014648438
73, 0, 0, 1737.204467773438
74, 0, 0, 1709.448486328125
75, 0, 0, 1678.889770507812
76, 0, 0, 1645.717163085938
77, 0, 0, 1626.035766601562
78, 0, 0, 1604.6650390625
79, 0, 0, 1571.246459960938
80, 0, 0, 1548.628173828125
81, 0, 0, 1531.00439453125
82, 0, 0, 1510.723022460938
83, 0, 0, 1478.2470703125
84, 0, 0, 1471.234252929688
85, 0, 0, 1445.977416992188
86, 0, 0, 1431.049072265625
87, 0, 0, 1409.265625
88, 0, 0, 1392.03564453125
89, 0, 0, 1380.337890625
90, 0, 0, 1362.361083984375
91, 0, 0, 1359.51953125
92, 0, 0, 1345.926879882812
93, 0, 0, 1323.362426757812
94, 0, 0, 1321.447998046875
95, 0, 0, 1296.820678710938
96, 0, 0, 1284.128295898438
97, 0, 0, 1285.4169921875
98, 0, 0, 1271.3935546875
99, 0, 0, 1258.570068359375
100, 0, 0, 1239.840942382812
101, 0, 0, 1223.697021484375
102, 0, 0, 1222.43798828125
103, 0, 0, 1212.9189453125
104, 0, 0, 1203.28955078125
105, 0, 0, 1196.824584960938
106, 0, 0, 1189.331909179688
107, 0, 0, 1173.486938476562
108, 0, 0, 1169.216186523438
109, 0, 0, 1156.53173828125
110, 0, 0, 1149.964965820312
111, 0, 0, 1141.999755859375
112, 0, 0, 1129.822509765625
113, 0, 0, 1119.584228515625
114, 0, 0, 1121.615966796875
115, 0, 0, 1112.655151367188
116, 0, 0, 1106.7412109375
117, 0, 0, 1094.42919921875
118, 0, 0, 1098.86572265625
119, 0, 0, 1089.844970703125
120, 0, 0, 1086.453125
121, 0, 0, 1073.626098632812
122, 0, 0, 1061.578735351562
123, 0, 0, 1070.0419921875
124, 0, 0, 1065.913452148438
125, 0, 0, 1051.213623046875
126, 0, 0, 1047.7744140625
127, 0, 0, 1038.843383789062
128, 0, 0, 1033.942138671875
129, 0, 0, 1035.95361328125
130, 0, 0, 1022.170104980469
131, 0, 0, 1023.639892578125
132, 0, 0, 1022.298461914062
133, 0, 0, 1007.279724121094
134, 0, 0, 1009.221069335938
135, 0, 0, 1000.115234375
136, 0, 0, 998.2886962890625
137, 0, 0, 1002.208740234375
138, 0, 0, 984.0664672851562
139, 0, 0, 980.7122192382812
140, 0, 0, 973.670166015625
141, 0, 0, 978.372802734375
142, 0, 0, 977.8457641601562
143, 0, 0, 967.3472900390625
144, 0, 0, 966.18359375
145, 0, 0, 959.9713745117188
146, 0, 0, 953.04052734375
147, 0, 0, 948.20703125
148, 0, 0, 940.010498046875
149, 0, 0, 944.2395629882812
150, 0, 0, 941.7691650390625
151, 0, 0, 936.499755859375
152, 0, 0, 930.0755615234375
153, 0, 0, 922.554931640625
154, 0, 0, 922.2569580078125
155, 0, 0, 921.9478149414062
156, 0, 0, 924.5081176757812
157, 0, 0, 910.224853515625
158, 0, 0, 911.564697265625
159, 0, 0, 900.74609375
160, 0, 0, 900.76513671875
161, 0, 0, 893.4293212890625
162, 0, 0, 902.0820922851562
163, 0, 0, 895.4039916992188
164, 0, 0, 894.9781494140625
165, 0, 0, 888.6371459960938
166, 0, 0, 884.4169921875
167, 0, 0, 891.8519897460938
168, 0, 0, 877.1759033203125
169, 0, 0, 878.3324584960938
170, 0, 0, 876.709716796875
171, 0, 0, 875.5763549804688
172, 0, 0, 864.1017456054688
173, 0, 0, 869.3623657226562
174, 0, 0, 857.973876953125
175, 0, 0, 863.7919311523438
176, 0, 0, 858.0479736328125
177, 0, 0, 852.6259155273438
178, 0, 0, 859.2723999023438
179, 0, 0, 850.9984130859375
