# TOPAS Version: 3.3.p1
# Parameter File: Test.txt
# Results for scorer MLIC_Scorer
# Scored in component: MLIC
# X in 180 bins of 0.177778 cm
# Y in 1 bin  of 10 cm
# Z in 1 bin  of 10 cm
# EnergyDeposit ( MeV ) : Sum   
0, 0, 0, 0
1, 0, 0, 0
2, 0, 0, 0
3, 0, 0, 0
4, 0, 0, 0
5, 0, 0, 0
6, 0, 0, 0
7, 0, 0, 0
8, 0, 0, 0
9, 0, 0, 0
10, 0, 0, 0
11, 0, 0, 0
12, 0, 0, 0
13, 0, 0, 0
14, 0, 0, 0
15, 0, 0, 0
16, 0, 0, 0
17, 0, 0, 0
18, 0, 0, 0
19, 0, 0, 0
20, 0, 0, 0
21, 0, 0, 0
22, 0, 0, 0
23, 0, 0, 0
24, 0, 0, 0
25, 0, 0, 0
26, 0, 0, 0
27, 0, 0, 0
28, 0, 0, 0
29, 0, 0, 0
30, 0, 0, 0
31, 0, 0, 0
32, 0, 0, 0
33, 0, 0, 0
34, 0, 0, 0
35, 0, 0, 0
36, 0, 0, 0
37, 0, 0, 0
38, 0, 0, 0
39, 0, 0, 0
40, 0, 0, 0
41, 0, 0, 0
42, 0, 0, 0
43, 0, 0, 0
44, 0, 0, 0.007176660932600498
45, 0, 0, 0
46, 0, 0, 0
47, 0, 0, 0
48, 0, 0, 0
49, 0, 0, 0.01130535360425711
50, 0, 0, 0.01103371568024158
51, 0, 0, 0
52, 0, 0, 0
53, 0, 0, 0
54, 0, 0, 0
55, 0, 0, 0
56, 0, 0, 0
57, 0, 0, 0
58, 0, 0, 0
59, 0, 0, 0
60, 0, 0, 0
61, 0, 0, 0
62, 0, 0, 0
63, 0, 0, 0
64, 0, 0, 0
65, 0, 0, 0
66, 0, 0, 0
67, 0, 0, 0
68, 0, 0, 0
69, 0, 0, 0
70, 0, 0, 0
71, 0, 0, 0
72, 0, 0, 0
73, 0, 0, 0
74, 0, 0, 0
75, 0, 0, 0
76, 0, 0, 0
77, 0, 0, 0
78, 0, 0, 0
79, 0, 0, 0
80, 0, 0, 0
81, 0, 0, 0
82, 0, 0, 0
83, 0, 0, 0
84, 0, 0, 0
85, 0, 0, 0
86, 0, 0, 0
87, 0, 0, 0
88, 0, 0, 0
89, 0, 0, 0
90, 0, 0, 0
91, 0, 0, 0
92, 0, 0, 0
93, 0, 0, 0
94, 0, 0, 0
95, 0, 0, 0
96, 0, 0, 0
97, 0, 0, 0
98, 0, 0, 0
99, 0, 0, 0
100, 0, 0, 0
101, 0, 0, 0
102, 0, 0, 0
103, 0, 0, 0
104, 0, 0, 0
105, 0, 0, 0
106, 0, 0, 0
107, 0, 0, 0
108, 0, 0, 0
109, 0, 0, 0
110, 0, 0, 0
111, 0, 0, 3.960652112960815
112, 0, 0, 25.27889060974121
113, 0, 0, 43.19628524780273
114, 0, 0, 98.26991271972656
115, 0, 0, 226.1332550048828
116, 0, 0, 414.669921875
117, 0, 0, 513.0879516601562
118, 0, 0, 485.5350952148438
119, 0, 0, 435.9630432128906
120, 0, 0, 372.5775146484375
121, 0, 0, 339.3390197753906
122, 0, 0, 300.2869567871094
123, 0, 0, 278.9618225097656
124, 0, 0, 260.91162109375
125, 0, 0, 247.8784942626953
126, 0, 0, 234.0710754394531
127, 0, 0, 224.1883087158203
128, 0, 0, 215.4721984863281
129, 0, 0, 206.8022766113281
130, 0, 0, 201.7717590332031
131, 0, 0, 193.4618530273438
132, 0, 0, 190.5103149414062
133, 0, 0, 183.6345062255859
134, 0, 0, 181.2040863037109
135, 0, 0, 176.8561706542969
136, 0, 0, 170.7448577880859
137, 0, 0, 170.1260223388672
138, 0, 0, 167.3682708740234
139, 0, 0, 160.6277770996094
140, 0, 0, 158.5332489013672
141, 0, 0, 154.9308471679688
142, 0, 0, 151.5025177001953
143, 0, 0, 149.2251281738281
144, 0, 0, 147.3874969482422
145, 0, 0, 144.4088897705078
146, 0, 0, 141.1999969482422
147, 0, 0, 143.5761566162109
148, 0, 0, 140.68896484375
149, 0, 0, 137.1838073730469
150, 0, 0, 135.9845123291016
151, 0, 0, 133.6024169921875
152, 0, 0, 133.2416229248047
153, 0, 0, 132.4833221435547
154, 0, 0, 130.9206695556641
155, 0, 0, 129.2535095214844
156, 0, 0, 126.2686309814453
157, 0, 0, 124.8864974975586
158, 0, 0, 124.32177734375
159, 0, 0, 124.0398330688477
160, 0, 0, 120.5226745605469
161, 0, 0, 121.4188232421875
162, 0, 0, 120.6876983642578
163, 0, 0, 120.0689315795898
164, 0, 0, 118.8850250244141
165, 0, 0, 117.3443603515625
166, 0, 0, 114.249137878418
167, 0, 0, 114.8119201660156
168, 0, 0, 113.2718048095703
169, 0, 0, 112.4672622680664
170, 0, 0, 112.520637512207
171, 0, 0, 111.0986175537109
172, 0, 0, 110.8213348388672
173, 0, 0, 110.984733581543
174, 0, 0, 111.5917129516602
175, 0, 0, 108.0808258056641
176, 0, 0, 107.0010375976562
177, 0, 0, 108.2457809448242
178, 0, 0, 104.4638366699219
179, 0, 0, 104.6103134155273
