# TOPAS Version: 3.3.p1
# Parameter File: Test.txt
# Results for scorer MLIC_Scorer
# Scored in component: MLIC
# X in 180 bins of 0.177778 cm
# Y in 1 bin  of 10 cm
# Z in 1 bin  of 10 cm
# EnergyDeposit ( MeV ) : Sum   
0, 0, 0, 0
1, 0, 0, 0
2, 0, 0, 0
3, 0, 0, 0
4, 0, 0, 0
5, 0, 0, 0
6, 0, 0, 0.02985386736690998
7, 0, 0, 0
8, 0, 0, 0
9, 0, 0, 0
10, 0, 0, 0
11, 0, 0, 0
12, 0, 0, 11.47531986236572
13, 0, 0, 51.84882736206055
14, 0, 0, 119.5180282592773
15, 0, 0, 423.099853515625
16, 0, 0, 1383.039306640625
17, 0, 0, 2719.52099609375
18, 0, 0, 4038.70068359375
19, 0, 0, 4835.43994140625
20, 0, 0, 4943.62744140625
21, 0, 0, 4639.3408203125
22, 0, 0, 4020.648681640625
23, 0, 0, 3595.395263671875
24, 0, 0, 3238.87451171875
25, 0, 0, 2966.86376953125
26, 0, 0, 2767.751220703125
27, 0, 0, 2612.461181640625
28, 0, 0, 2480.108154296875
29, 0, 0, 2375.885498046875
30, 0, 0, 2275.994384765625
31, 0, 0, 2197.56396484375
32, 0, 0, 2127.80322265625
33, 0, 0, 2057.126708984375
34, 0, 0, 2000.02685546875
35, 0, 0, 1945.827514648438
36, 0, 0, 1887.783325195312
37, 0, 0, 1850.13134765625
38, 0, 0, 1809.249755859375
39, 0, 0, 1772.78955078125
40, 0, 0, 1728.628173828125
41, 0, 0, 1699.1611328125
42, 0, 0, 1669.470336914062
43, 0, 0, 1641.27490234375
44, 0, 0, 1610.853881835938
45, 0, 0, 1584.819458007812
46, 0, 0, 1564.37060546875
47, 0, 0, 1537.675415039062
48, 0, 0, 1510.705078125
49, 0, 0, 1499.484619140625
50, 0, 0, 1477.290405273438
51, 0, 0, 1460.1455078125
52, 0, 0, 1435.037841796875
53, 0, 0, 1421.234985351562
54, 0, 0, 1408.118774414062
55, 0, 0, 1385.230224609375
56, 0, 0, 1372.116455078125
57, 0, 0, 1356.643310546875
58, 0, 0, 1334.119384765625
59, 0, 0, 1326.180053710938
60, 0, 0, 1303.587158203125
61, 0, 0, 1303.314208984375
62, 0, 0, 1281.603515625
63, 0, 0, 1275.788696289062
64, 0, 0, 1266.49072265625
65, 0, 0, 1244.84765625
66, 0, 0, 1244.691162109375
67, 0, 0, 1226.843872070312
68, 0, 0, 1223.76611328125
69, 0, 0, 1202.734130859375
70, 0, 0, 1203.97998046875
71, 0, 0, 1190.159057617188
72, 0, 0, 1183.890258789062
73, 0, 0, 1167.734252929688
74, 0, 0, 1159.717407226562
75, 0, 0, 1152.095947265625
76, 0, 0, 1150.75244140625
77, 0, 0, 1133.51318359375
78, 0, 0, 1128.278564453125
79, 0, 0, 1118.558349609375
80, 0, 0, 1113.526123046875
81, 0, 0, 1108.42578125
82, 0, 0, 1097.214721679688
83, 0, 0, 1088.500366210938
84, 0, 0, 1083.00537109375
85, 0, 0, 1084.593139648438
86, 0, 0, 1077.664306640625
87, 0, 0, 1065.511352539062
88, 0, 0, 1060.005126953125
89, 0, 0, 1050.016845703125
90, 0, 0, 1056.014770507812
91, 0, 0, 1041.873291015625
92, 0, 0, 1036.719116210938
93, 0, 0, 1040.732543945312
94, 0, 0, 1021.45751953125
95, 0, 0, 1022.045959472656
96, 0, 0, 1014.021667480469
97, 0, 0, 1007.300476074219
98, 0, 0, 1009.796630859375
99, 0, 0, 994.4300537109375
100, 0, 0, 997.3681640625
101, 0, 0, 993.6429443359375
102, 0, 0, 981.3265991210938
103, 0, 0, 983.5695190429688
104, 0, 0, 980.8351440429688
105, 0, 0, 970.3617553710938
106, 0, 0, 967.583740234375
107, 0, 0, 964.2183837890625
108, 0, 0, 956.5038452148438
109, 0, 0, 962.9746704101562
110, 0, 0, 952.3584594726562
111, 0, 0, 953.3579711914062
112, 0, 0, 944.91015625
113, 0, 0, 942.1215209960938
114, 0, 0, 930.924072265625
115, 0, 0, 931.0901489257812
116, 0, 0, 927.5744018554688
117, 0, 0, 922.3971557617188
118, 0, 0, 925.3973999023438
119, 0, 0, 907.6221313476562
120, 0, 0, 921.5220947265625
121, 0, 0, 912.8097534179688
122, 0, 0, 908.3048706054688
123, 0, 0, 908.1395874023438
124, 0, 0, 904.1962280273438
125, 0, 0, 893.1049194335938
126, 0, 0, 900.1327514648438
127, 0, 0, 897.5242309570312
128, 0, 0, 885.5355834960938
129, 0, 0, 883.5262451171875
130, 0, 0, 884.9784545898438
131, 0, 0, 883.5266723632812
132, 0, 0, 878.6868286132812
133, 0, 0, 869.2753295898438
134, 0, 0, 866.8916625976562
135, 0, 0, 867.1278076171875
136, 0, 0, 871.185302734375
137, 0, 0, 862.0728149414062
138, 0, 0, 850.9520263671875
139, 0, 0, 854.3387451171875
140, 0, 0, 851.4442138671875
141, 0, 0, 846.5255737304688
142, 0, 0, 839.9033813476562
143, 0, 0, 834.6943969726562
144, 0, 0, 835.0840454101562
145, 0, 0, 829.6522216796875
146, 0, 0, 843.6094360351562
147, 0, 0, 825.4295043945312
148, 0, 0, 831.1275634765625
149, 0, 0, 827.5421752929688
150, 0, 0, 833.0516357421875
151, 0, 0, 826.8977661132812
152, 0, 0, 828.5578002929688
153, 0, 0, 817.6627807617188
154, 0, 0, 820.925048828125
155, 0, 0, 814.3196411132812
156, 0, 0, 823.4715576171875
157, 0, 0, 812.8241577148438
158, 0, 0, 802.99658203125
159, 0, 0, 802.7929077148438
160, 0, 0, 805.025390625
161, 0, 0, 802.7892456054688
162, 0, 0, 795.113525390625
163, 0, 0, 796.0205078125
164, 0, 0, 792.6439208984375
165, 0, 0, 785.841064453125
166, 0, 0, 793.4288940429688
167, 0, 0, 795.3427734375
168, 0, 0, 792.5689086914062
169, 0, 0, 785.3214111328125
170, 0, 0, 792.6285400390625
171, 0, 0, 781.4695434570312
172, 0, 0, 781.6129760742188
173, 0, 0, 774.1558837890625
174, 0, 0, 784.7430419921875
175, 0, 0, 776.2200927734375
176, 0, 0, 769.4024658203125
177, 0, 0, 768.1981201171875
178, 0, 0, 769.5947265625
179, 0, 0, 771.8230590820312
