# TOPAS Version: 3.3.p1
# Parameter File: Test.txt
# Results for scorer MLIC_Scorer
# Scored in component: MLIC
# X in 180 bins of 0.222222 cm
# Y in 1 bin  of 10 cm
# Z in 1 bin  of 10 cm
# EnergyDeposit ( MeV ) : Sum   
0, 0, 0, 0
1, 0, 0, 0
2, 0, 0, 0
3, 0, 0, 0
4, 0, 0, 0
5, 0, 0, 0
6, 0, 0, 0
7, 0, 0, 0
8, 0, 0, 0
9, 0, 0, 0
10, 0, 0, 0
11, 0, 0, 0
12, 0, 0, 0
13, 0, 0, 0
14, 0, 0, 0
15, 0, 0, 0
16, 0, 0, 0
17, 0, 0, 0
18, 0, 0, 0
19, 0, 0, 0
20, 0, 0, 0
21, 0, 0, 0
22, 0, 0, 0.0002871963661164045
23, 0, 0, 0
24, 0, 0, 0
25, 0, 0, 0
26, 0, 0, 0
27, 0, 0, 0
28, 0, 0, 0
29, 0, 0, 0
30, 0, 0, 0
31, 0, 0, 0
32, 0, 0, 0
33, 0, 0, 0
34, 0, 0, 0
35, 0, 0, 0
36, 0, 0, 0
37, 0, 0, 0
38, 0, 0, 0
39, 0, 0, 0
40, 0, 0, 0
41, 0, 0, 0
42, 0, 0, 0.002100912621244788
43, 0, 0, 0.04138638451695442
44, 0, 0, 0
45, 0, 0, 0.02363099157810211
46, 0, 0, 0
47, 0, 0, 0
48, 0, 0, 0
49, 0, 0, 0
50, 0, 0, 0.002365293214097619
51, 0, 0, 0
52, 0, 0, 0
53, 0, 0, 8.178223609924316
54, 0, 0, 190.6379699707031
55, 0, 0, 757.5067749023438
56, 0, 0, 2427.551513671875
57, 0, 0, 4546.92822265625
58, 0, 0, 6032.83544921875
59, 0, 0, 6278.26220703125
60, 0, 0, 5405.30859375
61, 0, 0, 4599.341796875
62, 0, 0, 4019.262451171875
63, 0, 0, 3647.370849609375
64, 0, 0, 3370.443603515625
65, 0, 0, 3149.349609375
66, 0, 0, 2967.60546875
67, 0, 0, 2832.381591796875
68, 0, 0, 2703.501953125
69, 0, 0, 2591.8564453125
70, 0, 0, 2503.7470703125
71, 0, 0, 2417.859130859375
72, 0, 0, 2351.792236328125
73, 0, 0, 2275.158935546875
74, 0, 0, 2213.5791015625
75, 0, 0, 2159.210693359375
76, 0, 0, 2110.44482421875
77, 0, 0, 2058.380126953125
78, 0, 0, 2023.676879882812
79, 0, 0, 1978.5791015625
80, 0, 0, 1937.683349609375
81, 0, 0, 1897.951049804688
82, 0, 0, 1871.996826171875
83, 0, 0, 1840.65087890625
84, 0, 0, 1803.511596679688
85, 0, 0, 1780.968505859375
86, 0, 0, 1758.494018554688
87, 0, 0, 1729.793090820312
88, 0, 0, 1702.491577148438
89, 0, 0, 1669.963256835938
90, 0, 0, 1650.42919921875
91, 0, 0, 1640.9326171875
92, 0, 0, 1611.132568359375
93, 0, 0, 1596.260009765625
94, 0, 0, 1579.972900390625
95, 0, 0, 1559.881958007812
96, 0, 0, 1538.896850585938
97, 0, 0, 1529.671508789062
98, 0, 0, 1513.372314453125
99, 0, 0, 1497.670776367188
100, 0, 0, 1484.348388671875
101, 0, 0, 1462.15234375
102, 0, 0, 1452.4716796875
103, 0, 0, 1447.829467773438
104, 0, 0, 1424.12158203125
105, 0, 0, 1414.776733398438
106, 0, 0, 1401.96923828125
107, 0, 0, 1393.668090820312
108, 0, 0, 1381.491455078125
109, 0, 0, 1366.668579101562
110, 0, 0, 1350.398193359375
111, 0, 0, 1352.31298828125
112, 0, 0, 1338.420776367188
113, 0, 0, 1314.148315429688
114, 0, 0, 1313.361206054688
115, 0, 0, 1316.8330078125
116, 0, 0, 1294.740600585938
117, 0, 0, 1284.021606445312
118, 0, 0, 1290.315673828125
119, 0, 0, 1274.41015625
120, 0, 0, 1267.191528320312
121, 0, 0, 1259.928833007812
122, 0, 0, 1245.359252929688
123, 0, 0, 1241.490844726562
124, 0, 0, 1237.849609375
125, 0, 0, 1226.878540039062
126, 0, 0, 1225.337646484375
127, 0, 0, 1216.494262695312
128, 0, 0, 1206.833862304688
129, 0, 0, 1195.175415039062
130, 0, 0, 1204.151123046875
131, 0, 0, 1185.674560546875
132, 0, 0, 1175.94677734375
133, 0, 0, 1178.64697265625
134, 0, 0, 1162.867797851562
135, 0, 0, 1158.842407226562
136, 0, 0, 1147.988525390625
137, 0, 0, 1149.807373046875
138, 0, 0, 1149.913330078125
139, 0, 0, 1136.56787109375
140, 0, 0, 1137.703125
141, 0, 0, 1123.598022460938
142, 0, 0, 1120.436889648438
143, 0, 0, 1123.826538085938
144, 0, 0, 1118.250732421875
145, 0, 0, 1114.627075195312
146, 0, 0, 1102.970092773438
147, 0, 0, 1097.099365234375
148, 0, 0, 1092.17041015625
149, 0, 0, 1093.380249023438
150, 0, 0, 1085.42822265625
151, 0, 0, 1086.5888671875
152, 0, 0, 1073.33740234375
153, 0, 0, 1070.241943359375
154, 0, 0, 1069.8232421875
155, 0, 0, 1055.967407226562
156, 0, 0, 1066.803955078125
157, 0, 0, 1057.798950195312
158, 0, 0, 1054.388061523438
159, 0, 0, 1054.656372070312
160, 0, 0, 1046.782104492188
161, 0, 0, 1035.938354492188
162, 0, 0, 1043.165893554688
163, 0, 0, 1026.857666015625
164, 0, 0, 1035.96826171875
165, 0, 0, 1028.697265625
166, 0, 0, 1022.657836914062
167, 0, 0, 1009.199523925781
168, 0, 0, 1020.318420410156
169, 0, 0, 1014.137939453125
170, 0, 0, 1013.649780273438
171, 0, 0, 1003.350708007812
172, 0, 0, 1005.41064453125
173, 0, 0, 996.8346557617188
174, 0, 0, 991.203369140625
175, 0, 0, 990.8148193359375
176, 0, 0, 991.0626220703125
177, 0, 0, 986.660400390625
178, 0, 0, 994.0730590820312
179, 0, 0, 985.7777709960938
