# TOPAS Version: 3.3.p1
# Parameter File: Test.txt
# Results for scorer MLIC_Scorer
# Scored in component: MLIC
# X in 165 bins of 0.2 cm
# Y in 1 bin  of 10 cm
# Z in 1 bin  of 10 cm
# EnergyDeposit ( MeV ) : Sum   
0, 0, 0, 0
1, 0, 0, 0
2, 0, 0, 0
3, 0, 0, 0
4, 0, 0, 0
5, 0, 0, 0
6, 0, 0, 0
7, 0, 0, 0
8, 0, 0, 0
9, 0, 0, 0
10, 0, 0, 0
11, 0, 0, 0
12, 0, 0, 0
13, 0, 0, 0
14, 0, 0, 0
15, 0, 0, 0
16, 0, 0, 0
17, 0, 0, 0
18, 0, 0, 0
19, 0, 0, 0
20, 0, 0, 0
21, 0, 0, 0
22, 0, 0, 0
23, 0, 0, 0
24, 0, 0, 0
25, 0, 0, 0
26, 0, 0, 0
27, 0, 0, 0
28, 0, 0, 0
29, 0, 0, 0
30, 0, 0, 0
31, 0, 0, 0
32, 0, 0, 32.72206878662109
33, 0, 0, 194.4898834228516
34, 0, 0, 595.4631958007812
35, 0, 0, 1553.009033203125
36, 0, 0, 3115.135986328125
37, 0, 0, 4529.9365234375
38, 0, 0, 5215.1337890625
39, 0, 0, 5511.439453125
40, 0, 0, 4866.5439453125
41, 0, 0, 4210.8203125
42, 0, 0, 3734.140869140625
43, 0, 0, 3367.54150390625
44, 0, 0, 3118.472412109375
45, 0, 0, 2913.927001953125
46, 0, 0, 2753.503173828125
47, 0, 0, 2622.481201171875
48, 0, 0, 2516.761474609375
49, 0, 0, 2413.371337890625
50, 0, 0, 2337.025634765625
51, 0, 0, 2255.770751953125
52, 0, 0, 2183.02734375
53, 0, 0, 2127.289794921875
54, 0, 0, 2067.93896484375
55, 0, 0, 2010.078979492188
56, 0, 0, 1969.2412109375
57, 0, 0, 1930.336181640625
58, 0, 0, 1888.443725585938
59, 0, 0, 1844.65380859375
60, 0, 0, 1814.032958984375
61, 0, 0, 1776.396606445312
62, 0, 0, 1746.420654296875
63, 0, 0, 1719.466796875
64, 0, 0, 1686.886596679688
65, 0, 0, 1667.045532226562
66, 0, 0, 1645.070678710938
67, 0, 0, 1621.314086914062
68, 0, 0, 1591.196533203125
69, 0, 0, 1574.916870117188
70, 0, 0, 1546.946411132812
71, 0, 0, 1530.0478515625
72, 0, 0, 1507.419677734375
73, 0, 0, 1499.03955078125
74, 0, 0, 1477.971923828125
75, 0, 0, 1459.608764648438
76, 0, 0, 1450.669677734375
77, 0, 0, 1438.95361328125
78, 0, 0, 1423.263427734375
79, 0, 0, 1401.687866210938
80, 0, 0, 1394.196411132812
81, 0, 0, 1385.057250976562
82, 0, 0, 1365.082397460938
83, 0, 0, 1350.81005859375
84, 0, 0, 1336.214599609375
85, 0, 0, 1321.882690429688
86, 0, 0, 1314.227783203125
87, 0, 0, 1307.753540039062
88, 0, 0, 1299.1591796875
89, 0, 0, 1282.740234375
90, 0, 0, 1278.047241210938
91, 0, 0, 1262.963623046875
92, 0, 0, 1251.108642578125
93, 0, 0, 1246.17041015625
94, 0, 0, 1230.763671875
95, 0, 0, 1219.975463867188
96, 0, 0, 1213.502807617188
97, 0, 0, 1205.175415039062
98, 0, 0, 1193.802490234375
99, 0, 0, 1190.295166015625
100, 0, 0, 1188.773315429688
101, 0, 0, 1170.764404296875
102, 0, 0, 1177.336303710938
103, 0, 0, 1161.180419921875
104, 0, 0, 1166.07568359375
105, 0, 0, 1158.455810546875
106, 0, 0, 1148.203491210938
107, 0, 0, 1134.966186523438
108, 0, 0, 1132.61865234375
109, 0, 0, 1127.641235351562
110, 0, 0, 1118.352172851562
111, 0, 0, 1113.991943359375
112, 0, 0, 1100.868408203125
113, 0, 0, 1102.081787109375
114, 0, 0, 1099.469604492188
115, 0, 0, 1087.418334960938
116, 0, 0, 1086.044311523438
117, 0, 0, 1081.1953125
118, 0, 0, 1072.921752929688
119, 0, 0, 1068.8310546875
120, 0, 0, 1058.483764648438
121, 0, 0, 1060.81884765625
122, 0, 0, 1051.566162109375
123, 0, 0, 1042.21435546875
124, 0, 0, 1049.238647460938
125, 0, 0, 1041.842651367188
126, 0, 0, 1035.77294921875
127, 0, 0, 1029.615844726562
128, 0, 0, 1029.243774414062
129, 0, 0, 1019.209655761719
130, 0, 0, 1016.5380859375
131, 0, 0, 1018.164184570312
132, 0, 0, 1012.497314453125
133, 0, 0, 1000.138122558594
134, 0, 0, 1004.125793457031
135, 0, 0, 997.5272827148438
136, 0, 0, 989.3173828125
137, 0, 0, 989.508544921875
138, 0, 0, 983.3013305664062
139, 0, 0, 971.4710693359375
140, 0, 0, 982.7505493164062
141, 0, 0, 964.3737182617188
142, 0, 0, 963.9464721679688
143, 0, 0, 968.0726318359375
144, 0, 0, 955.7908935546875
145, 0, 0, 956.0072631835938
146, 0, 0, 960.751953125
147, 0, 0, 950.8284912109375
148, 0, 0, 952.99462890625
149, 0, 0, 950.8085327148438
150, 0, 0, 947.2077026367188
151, 0, 0, 933.8421020507812
152, 0, 0, 934.5498657226562
153, 0, 0, 936.961181640625
154, 0, 0, 930.5277709960938
155, 0, 0, 935.7979736328125
156, 0, 0, 925.762939453125
157, 0, 0, 916.0781860351562
158, 0, 0, 926.0514526367188
159, 0, 0, 911.4808349609375
160, 0, 0, 910.2303466796875
161, 0, 0, 914.3523559570312
162, 0, 0, 907.685546875
163, 0, 0, 895.6099243164062
164, 0, 0, 908.1163940429688
