# TOPAS Version: 3.3.p1
# Parameter File: Test.txt
# Results for scorer MLIC_Scorer
# Scored in component: MLIC
# X in 180 bins of 0.222222 cm
# Y in 1 bin  of 10 cm
# Z in 1 bin  of 10 cm
# EnergyDeposit ( MeV ) : Sum   
0, 0, 0, 0
1, 0, 0, 0
2, 0, 0, 0
3, 0, 0, 0
4, 0, 0, 0
5, 0, 0, 0
6, 0, 0, 0
7, 0, 0, 0
8, 0, 0, 0
9, 0, 0, 0
10, 0, 0, 0
11, 0, 0, 0
12, 0, 0, 0
13, 0, 0, 0
14, 0, 0, 0
15, 0, 0, 0
16, 0, 0, 0
17, 0, 0, 0
18, 0, 0, 0
19, 0, 0, 0
20, 0, 0, 0
21, 0, 0, 0
22, 0, 0, 0
23, 0, 0, 0
24, 0, 0, 0
25, 0, 0, 0
26, 0, 0, 0
27, 0, 0, 0.0316813662648201
28, 0, 0, 0
29, 0, 0, 0
30, 0, 0, 0
31, 0, 0, 0
32, 0, 0, 0
33, 0, 0, 0
34, 0, 0, 0
35, 0, 0, 0
36, 0, 0, 0
37, 0, 0, 0
38, 0, 0, 0
39, 0, 0, 0
40, 0, 0, 0.004473287146538496
41, 0, 0, 0.002299620071426034
42, 0, 0, 0
43, 0, 0, 34.26733779907227
44, 0, 0, 136.3694305419922
45, 0, 0, 735.4019165039062
46, 0, 0, 1996.5595703125
47, 0, 0, 4374.0654296875
48, 0, 0, 5845.267578125
49, 0, 0, 6244.443359375
50, 0, 0, 5622.40966796875
51, 0, 0, 4728.97509765625
52, 0, 0, 4111.23046875
53, 0, 0, 3694.807861328125
54, 0, 0, 3394.50537109375
55, 0, 0, 3167.579833984375
56, 0, 0, 2989.060791015625
57, 0, 0, 2844.379150390625
58, 0, 0, 2723.2734375
59, 0, 0, 2611.614501953125
60, 0, 0, 2511.84814453125
61, 0, 0, 2428.389892578125
62, 0, 0, 2350.490234375
63, 0, 0, 2274.500732421875
64, 0, 0, 2226.379150390625
65, 0, 0, 2171.586181640625
66, 0, 0, 2118.895751953125
67, 0, 0, 2065.097412109375
68, 0, 0, 2020.652954101562
69, 0, 0, 1990.004028320312
70, 0, 0, 1938.61083984375
71, 0, 0, 1913.119384765625
72, 0, 0, 1876.107055664062
73, 0, 0, 1839.290893554688
74, 0, 0, 1808.969970703125
75, 0, 0, 1778.508178710938
76, 0, 0, 1751.68115234375
77, 0, 0, 1728.633911132812
78, 0, 0, 1695.241577148438
79, 0, 0, 1686.308959960938
80, 0, 0, 1661.492797851562
81, 0, 0, 1638.837768554688
82, 0, 0, 1622.437866210938
83, 0, 0, 1600.29150390625
84, 0, 0, 1580.139770507812
85, 0, 0, 1562.599975585938
86, 0, 0, 1544.458740234375
87, 0, 0, 1526.72509765625
88, 0, 0, 1520.14892578125
89, 0, 0, 1496.92626953125
90, 0, 0, 1490.785522460938
91, 0, 0, 1469.617309570312
92, 0, 0, 1457.29150390625
93, 0, 0, 1451.246704101562
94, 0, 0, 1435.262084960938
95, 0, 0, 1426.784790039062
96, 0, 0, 1408.166870117188
97, 0, 0, 1388.35791015625
98, 0, 0, 1377.106811523438
99, 0, 0, 1370.00244140625
100, 0, 0, 1364.965209960938
101, 0, 0, 1343.137817382812
102, 0, 0, 1329.405883789062
103, 0, 0, 1325.382934570312
104, 0, 0, 1312.012329101562
105, 0, 0, 1312.62841796875
106, 0, 0, 1305.190063476562
107, 0, 0, 1295.521362304688
108, 0, 0, 1284.956176757812
109, 0, 0, 1272.787109375
110, 0, 0, 1268.914916992188
111, 0, 0, 1256.105224609375
112, 0, 0, 1250.197509765625
113, 0, 0, 1244.711059570312
114, 0, 0, 1234.51416015625
115, 0, 0, 1229.436157226562
116, 0, 0, 1226.221801757812
117, 0, 0, 1209.427612304688
118, 0, 0, 1206.915161132812
119, 0, 0, 1207.535400390625
120, 0, 0, 1196.786499023438
121, 0, 0, 1188.195922851562
122, 0, 0, 1177.599853515625
123, 0, 0, 1173.064575195312
124, 0, 0, 1171.3154296875
125, 0, 0, 1171.806274414062
126, 0, 0, 1160.290161132812
127, 0, 0, 1152.5947265625
128, 0, 0, 1149.821533203125
129, 0, 0, 1143.097412109375
130, 0, 0, 1137.291137695312
131, 0, 0, 1134.751708984375
132, 0, 0, 1121.09375
133, 0, 0, 1119.061279296875
134, 0, 0, 1116.267578125
135, 0, 0, 1108.753540039062
136, 0, 0, 1097.31591796875
137, 0, 0, 1102.88623046875
138, 0, 0, 1091.183837890625
139, 0, 0, 1094.235595703125
140, 0, 0, 1083.08251953125
141, 0, 0, 1084.768920898438
142, 0, 0, 1073.285888671875
143, 0, 0, 1078.519409179688
144, 0, 0, 1068.110717773438
145, 0, 0, 1071.027099609375
146, 0, 0, 1055.746948242188
147, 0, 0, 1062.257934570312
148, 0, 0, 1051.336181640625
149, 0, 0, 1038.411254882812
150, 0, 0, 1052.038330078125
151, 0, 0, 1040.798461914062
152, 0, 0, 1039.847534179688
153, 0, 0, 1036.499145507812
154, 0, 0, 1036.365356445312
155, 0, 0, 1025.417846679688
156, 0, 0, 1024.760375976562
157, 0, 0, 1024.803466796875
158, 0, 0, 1021.961364746094
159, 0, 0, 1013.335327148438
160, 0, 0, 1011.300109863281
161, 0, 0, 1013.263244628906
162, 0, 0, 1001.443603515625
163, 0, 0, 993.8551025390625
164, 0, 0, 1003.329711914062
165, 0, 0, 992.3712158203125
166, 0, 0, 989.2946166992188
167, 0, 0, 980.97802734375
168, 0, 0, 974.5492553710938
169, 0, 0, 976.6708984375
170, 0, 0, 976.4984130859375
171, 0, 0, 975.0471801757812
172, 0, 0, 972.5088500976562
173, 0, 0, 975.6573486328125
174, 0, 0, 967.2275390625
175, 0, 0, 970.37255859375
176, 0, 0, 970.796875
177, 0, 0, 958.2001342773438
178, 0, 0, 948.2678833007812
179, 0, 0, 955.4613647460938
