# TOPAS Version: 3.3.p1
# Parameter File: Test.txt
# Results for scorer MLIC_Scorer
# Scored in component: MLIC
# X in 180 bins of 0.177778 cm
# Y in 1 bin  of 10 cm
# Z in 1 bin  of 10 cm
# EnergyDeposit ( MeV ) : Sum   
0, 0, 0, 0
1, 0, 0, 0
2, 0, 0, 0
3, 0, 0, 0
4, 0, 0, 0
5, 0, 0, 0.02697362750768661
6, 0, 0, 0.006751011591404676
7, 0, 0, 0
8, 0, 0, 0
9, 0, 0, 0
10, 0, 0, 0
11, 0, 0, 0
12, 0, 0, 0
13, 0, 0, 0
14, 0, 0, 0
15, 0, 0, 0
16, 0, 0, 0
17, 0, 0, 0
18, 0, 0, 0
19, 0, 0, 0
20, 0, 0, 0
21, 0, 0, 0
22, 0, 0, 0.0008307374082505703
23, 0, 0, 0
24, 0, 0, 0
25, 0, 0, 0
26, 0, 0, 0
27, 0, 0, 0
28, 0, 0, 0
29, 0, 0, 5.63641881942749
30, 0, 0, 105.6336059570312
31, 0, 0, 352.3963012695312
32, 0, 0, 1004.997192382812
33, 0, 0, 2347.51416015625
34, 0, 0, 3840.028076171875
35, 0, 0, 4886.26025390625
36, 0, 0, 5084.421875
37, 0, 0, 4724.44775390625
38, 0, 0, 4123.82421875
39, 0, 0, 3650.636474609375
40, 0, 0, 3280.7958984375
41, 0, 0, 3007.88916015625
42, 0, 0, 2806.80517578125
43, 0, 0, 2637.825439453125
44, 0, 0, 2502.336669921875
45, 0, 0, 2400.0732421875
46, 0, 0, 2300.964599609375
47, 0, 0, 2215.29931640625
48, 0, 0, 2136.859375
49, 0, 0, 2073.1767578125
50, 0, 0, 2006.684692382812
51, 0, 0, 1960.328735351562
52, 0, 0, 1903.7080078125
53, 0, 0, 1858.615966796875
54, 0, 0, 1816.942626953125
55, 0, 0, 1778.826538085938
56, 0, 0, 1745.072021484375
57, 0, 0, 1705.29638671875
58, 0, 0, 1676.023315429688
59, 0, 0, 1646.148681640625
60, 0, 0, 1613.31640625
61, 0, 0, 1591.166625976562
62, 0, 0, 1556.6748046875
63, 0, 0, 1546.185791015625
64, 0, 0, 1521.195190429688
65, 0, 0, 1493.499633789062
66, 0, 0, 1480.963134765625
67, 0, 0, 1460.605834960938
68, 0, 0, 1441.349853515625
69, 0, 0, 1417.35009765625
70, 0, 0, 1402.010986328125
71, 0, 0, 1384.481079101562
72, 0, 0, 1380.254272460938
73, 0, 0, 1357.597778320312
74, 0, 0, 1345.96875
75, 0, 0, 1333.18798828125
76, 0, 0, 1318.397583007812
77, 0, 0, 1307.828369140625
78, 0, 0, 1285.718017578125
79, 0, 0, 1278.572143554688
80, 0, 0, 1262.94873046875
81, 0, 0, 1243.015258789062
82, 0, 0, 1236.513305664062
83, 0, 0, 1231.957763671875
84, 0, 0, 1219.715454101562
85, 0, 0, 1206.59375
86, 0, 0, 1202.624877929688
87, 0, 0, 1187.27734375
88, 0, 0, 1189.151123046875
89, 0, 0, 1170.83984375
90, 0, 0, 1163.324829101562
91, 0, 0, 1156.484985351562
92, 0, 0, 1152.636108398438
93, 0, 0, 1137.875244140625
94, 0, 0, 1135.01708984375
95, 0, 0, 1119.303100585938
96, 0, 0, 1111.743041992188
97, 0, 0, 1109.192626953125
98, 0, 0, 1109.69677734375
99, 0, 0, 1098.0048828125
100, 0, 0, 1084.874145507812
101, 0, 0, 1080.0673828125
102, 0, 0, 1074.901123046875
103, 0, 0, 1069.642578125
104, 0, 0, 1063.521606445312
105, 0, 0, 1048.85009765625
106, 0, 0, 1052.4853515625
107, 0, 0, 1048.80078125
108, 0, 0, 1041.910888671875
109, 0, 0, 1033.730102539062
110, 0, 0, 1030.504760742188
111, 0, 0, 1012.149108886719
112, 0, 0, 1015.802368164062
113, 0, 0, 1019.275207519531
114, 0, 0, 1008.296875
115, 0, 0, 1008.911560058594
116, 0, 0, 998.81005859375
117, 0, 0, 986.971435546875
118, 0, 0, 986.564697265625
119, 0, 0, 989.5423583984375
120, 0, 0, 980.4324340820312
121, 0, 0, 967.11865234375
122, 0, 0, 970.26806640625
123, 0, 0, 960.6967163085938
124, 0, 0, 954.6135864257812
125, 0, 0, 954.640380859375
126, 0, 0, 949.1071166992188
127, 0, 0, 947.6229248046875
128, 0, 0, 942.8228759765625
129, 0, 0, 940.4776611328125
130, 0, 0, 928.2839965820312
131, 0, 0, 930.3312377929688
132, 0, 0, 922.8477783203125
133, 0, 0, 927.6077270507812
134, 0, 0, 917.3114013671875
135, 0, 0, 912.8494873046875
136, 0, 0, 918.3289184570312
137, 0, 0, 907.6712646484375
138, 0, 0, 900.2335815429688
139, 0, 0, 905.4684448242188
140, 0, 0, 902.227294921875
141, 0, 0, 898.7765502929688
142, 0, 0, 898.0117797851562
143, 0, 0, 892.0487670898438
144, 0, 0, 888.5407104492188
145, 0, 0, 891.2171630859375
146, 0, 0, 880.836669921875
147, 0, 0, 880.8944091796875
148, 0, 0, 875.8355102539062
149, 0, 0, 866.3153076171875
150, 0, 0, 871.0615844726562
151, 0, 0, 867.945556640625
152, 0, 0, 864.8124389648438
153, 0, 0, 859.0504760742188
154, 0, 0, 857.6580200195312
155, 0, 0, 855.9739379882812
156, 0, 0, 847.810302734375
157, 0, 0, 847.2483520507812
158, 0, 0, 846.6866455078125
159, 0, 0, 841.7035522460938
160, 0, 0, 839.2535400390625
161, 0, 0, 837.8641967773438
162, 0, 0, 841.6455078125
163, 0, 0, 834.8093872070312
164, 0, 0, 829.9536743164062
165, 0, 0, 828.498046875
166, 0, 0, 822.3243408203125
167, 0, 0, 827.9885864257812
168, 0, 0, 817.4688110351562
169, 0, 0, 824.103271484375
170, 0, 0, 815.2111206054688
171, 0, 0, 812.6439819335938
172, 0, 0, 805.099853515625
173, 0, 0, 809.4819946289062
174, 0, 0, 817.9597778320312
175, 0, 0, 805.3285522460938
176, 0, 0, 802.5130615234375
177, 0, 0, 804.47412109375
178, 0, 0, 802.818359375
179, 0, 0, 791.8560180664062
