# TOPAS Version: 3.3.p1
# Parameter File: Test.txt
# Results for scorer MLIC_Scorer
# Scored in component: MLIC
# X in 180 bins of 0.177778 cm
# Y in 1 bin  of 10 cm
# Z in 1 bin  of 10 cm
# EnergyDeposit ( MeV ) : Sum   
0, 0, 0, 0
1, 0, 0, 0
2, 0, 0, 0
3, 0, 0, 0
4, 0, 0, 0
5, 0, 0, 0
6, 0, 0, 0
7, 0, 0, 0
8, 0, 0, 0
9, 0, 0, 0
10, 0, 0, 0
11, 0, 0, 0.004746356979012489
12, 0, 0, 0
13, 0, 0, 0
14, 0, 0, 0
15, 0, 0, 0
16, 0, 0, 0
17, 0, 0, 0
18, 0, 0, 0
19, 0, 0, 0
20, 0, 0, 0
21, 0, 0, 0
22, 0, 0, 0
23, 0, 0, 0
24, 0, 0, 0
25, 0, 0, 0
26, 0, 0, 0
27, 0, 0, 0
28, 0, 0, 0
29, 0, 0, 0
30, 0, 0, 0
31, 0, 0, 0
32, 0, 0, 0.02532068639993668
33, 0, 0, 0
34, 0, 0, 3.334663051646203e-05
35, 0, 0, 0
36, 0, 0, 0
37, 0, 0, 0
38, 0, 0, 0
39, 0, 0, 0
40, 0, 0, 0
41, 0, 0, 0
42, 0, 0, 0
43, 0, 0, 0
44, 0, 0, 0
45, 0, 0, 14.99332809448242
46, 0, 0, 82.30947113037109
47, 0, 0, 233.6180419921875
48, 0, 0, 788.860595703125
49, 0, 0, 2066.748046875
50, 0, 0, 3392.494384765625
51, 0, 0, 4319.19384765625
52, 0, 0, 4859.810546875
53, 0, 0, 4872.79345703125
54, 0, 0, 4341.7412109375
55, 0, 0, 3827.178955078125
56, 0, 0, 3437.1689453125
57, 0, 0, 3115.9833984375
58, 0, 0, 2873.918701171875
59, 0, 0, 2695.2109375
60, 0, 0, 2552.80810546875
61, 0, 0, 2429.9765625
62, 0, 0, 2339.28466796875
63, 0, 0, 2240.962646484375
64, 0, 0, 2169.150634765625
65, 0, 0, 2094.791259765625
66, 0, 0, 2038.142211914062
67, 0, 0, 1974.22705078125
68, 0, 0, 1924.297119140625
69, 0, 0, 1876.870239257812
70, 0, 0, 1835.669799804688
71, 0, 0, 1797.835205078125
72, 0, 0, 1753.770629882812
73, 0, 0, 1721.748291015625
74, 0, 0, 1693.4912109375
75, 0, 0, 1658.776977539062
76, 0, 0, 1624.784912109375
77, 0, 0, 1598.2421875
78, 0, 0, 1569.922729492188
79, 0, 0, 1548.826782226562
80, 0, 0, 1530.049072265625
81, 0, 0, 1502.207153320312
82, 0, 0, 1481.88037109375
83, 0, 0, 1470.200805664062
84, 0, 0, 1445.578125
85, 0, 0, 1427.464965820312
86, 0, 0, 1412.82421875
87, 0, 0, 1399.859008789062
88, 0, 0, 1379.478271484375
89, 0, 0, 1359.619750976562
90, 0, 0, 1356.53515625
91, 0, 0, 1329.048828125
92, 0, 0, 1325.3095703125
93, 0, 0, 1301.587646484375
94, 0, 0, 1292.513061523438
95, 0, 0, 1284.754150390625
96, 0, 0, 1271.746459960938
97, 0, 0, 1250.181274414062
98, 0, 0, 1249.464965820312
99, 0, 0, 1228.01611328125
100, 0, 0, 1225.400146484375
101, 0, 0, 1213.448974609375
102, 0, 0, 1208.575439453125
103, 0, 0, 1194.499633789062
104, 0, 0, 1187.999877929688
105, 0, 0, 1184.40771484375
106, 0, 0, 1170.650756835938
107, 0, 0, 1162.721801757812
108, 0, 0, 1145.452514648438
109, 0, 0, 1130.88330078125
110, 0, 0, 1131.518310546875
111, 0, 0, 1130.642578125
112, 0, 0, 1120.442626953125
113, 0, 0, 1112.122192382812
114, 0, 0, 1100.6708984375
115, 0, 0, 1101.901245117188
116, 0, 0, 1086.592651367188
117, 0, 0, 1078.323120117188
118, 0, 0, 1077.744995117188
119, 0, 0, 1072.761962890625
120, 0, 0, 1059.143920898438
121, 0, 0, 1051.953247070312
122, 0, 0, 1057.272094726562
123, 0, 0, 1041.232666015625
124, 0, 0, 1041.88818359375
125, 0, 0, 1040.252197265625
126, 0, 0, 1033.439331054688
127, 0, 0, 1024.482299804688
128, 0, 0, 1020.322875976562
129, 0, 0, 1009.958862304688
130, 0, 0, 1007.492492675781
131, 0, 0, 1000.973327636719
132, 0, 0, 997.6588134765625
133, 0, 0, 988.6597900390625
134, 0, 0, 984.1590576171875
135, 0, 0, 982.765625
136, 0, 0, 983.6475219726562
137, 0, 0, 978.2754516601562
138, 0, 0, 961.8776245117188
139, 0, 0, 967.0997924804688
140, 0, 0, 960.218017578125
141, 0, 0, 960.9560546875
142, 0, 0, 956.61962890625
143, 0, 0, 952.2815551757812
144, 0, 0, 949.2844848632812
145, 0, 0, 949.4500122070312
146, 0, 0, 940.8952026367188
147, 0, 0, 930.7052612304688
148, 0, 0, 934.9464721679688
149, 0, 0, 928.9100952148438
150, 0, 0, 926.3980102539062
151, 0, 0, 923.4598999023438
152, 0, 0, 917.8889770507812
153, 0, 0, 910.2940063476562
154, 0, 0, 902.576416015625
155, 0, 0, 900.527099609375
156, 0, 0, 903.5642700195312
157, 0, 0, 893.134765625
158, 0, 0, 898.1026000976562
159, 0, 0, 897.2158813476562
160, 0, 0, 893.7357788085938
161, 0, 0, 877.8839111328125
162, 0, 0, 875.2371215820312
163, 0, 0, 883.6051025390625
164, 0, 0, 881.8983764648438
165, 0, 0, 870.372314453125
166, 0, 0, 865.4075317382812
167, 0, 0, 872.8375854492188
168, 0, 0, 865.6104125976562
169, 0, 0, 859.5717163085938
170, 0, 0, 860.7846069335938
171, 0, 0, 866.0003662109375
172, 0, 0, 856.204833984375
173, 0, 0, 845.0770874023438
174, 0, 0, 854.3529052734375
175, 0, 0, 840.8448486328125
176, 0, 0, 843.8560791015625
177, 0, 0, 829.3190307617188
178, 0, 0, 836.2960815429688
179, 0, 0, 832.3427734375
