# TOPAS Version: 3.3.p1
# Parameter File: Test.txt
# Results for scorer MLIC_Scorer
# Scored in component: MLIC
# X in 180 bins of 0.183333 cm
# Y in 1 bin  of 10 cm
# Z in 1 bin  of 10 cm
# EnergyDeposit ( MeV ) : Sum   
0, 0, 0, 0
1, 0, 0, 0
2, 0, 0, 0
3, 0, 0, 0
4, 0, 0, 0
5, 0, 0, 0
6, 0, 0, 0
7, 0, 0, 0
8, 0, 0, 0
9, 0, 0, 0
10, 0, 0, 0.03051215037703514
11, 0, 0, 0
12, 0, 0, 0
13, 0, 0, 0
14, 0, 0, 0
15, 0, 0, 0
16, 0, 0, 0
17, 0, 0, 0
18, 0, 0, 0
19, 0, 0, 0.00303525454364717
20, 0, 0, 0
21, 0, 0, 0
22, 0, 0, 14.09305763244629
23, 0, 0, 47.1374397277832
24, 0, 0, 285.0579528808594
25, 0, 0, 958.9533081054688
26, 0, 0, 2144.11083984375
27, 0, 0, 3710.266357421875
28, 0, 0, 4897.30224609375
29, 0, 0, 5214.62109375
30, 0, 0, 4959.49658203125
31, 0, 0, 4288.2490234375
32, 0, 0, 3766.6630859375
33, 0, 0, 3347.31884765625
34, 0, 0, 3065.2470703125
35, 0, 0, 2868.226318359375
36, 0, 0, 2687.203857421875
37, 0, 0, 2565.9541015625
38, 0, 0, 2438.531494140625
39, 0, 0, 2350.559814453125
40, 0, 0, 2252.32470703125
41, 0, 0, 2181.977783203125
42, 0, 0, 2111.66015625
43, 0, 0, 2042.524536132812
44, 0, 0, 1991.344360351562
45, 0, 0, 1943.979736328125
46, 0, 0, 1904.044799804688
47, 0, 0, 1849.811767578125
48, 0, 0, 1817.75537109375
49, 0, 0, 1776.41552734375
50, 0, 0, 1738.802612304688
51, 0, 0, 1710.62255859375
52, 0, 0, 1673.015258789062
53, 0, 0, 1652.349487304688
54, 0, 0, 1626.62890625
55, 0, 0, 1598.739624023438
56, 0, 0, 1570.492431640625
57, 0, 0, 1548.023193359375
58, 0, 0, 1528.799438476562
59, 0, 0, 1499.862548828125
60, 0, 0, 1485.423950195312
61, 0, 0, 1466.323364257812
62, 0, 0, 1455.29833984375
63, 0, 0, 1427.1591796875
64, 0, 0, 1419.525634765625
65, 0, 0, 1396.108032226562
66, 0, 0, 1379.099243164062
67, 0, 0, 1368.646728515625
68, 0, 0, 1356.392944335938
69, 0, 0, 1342.91064453125
70, 0, 0, 1328.622802734375
71, 0, 0, 1314.530883789062
72, 0, 0, 1308.032836914062
73, 0, 0, 1293.558715820312
74, 0, 0, 1279.915893554688
75, 0, 0, 1266.050415039062
76, 0, 0, 1256.973022460938
77, 0, 0, 1239.087158203125
78, 0, 0, 1241.849365234375
79, 0, 0, 1227.806030273438
80, 0, 0, 1216.491455078125
81, 0, 0, 1202.233032226562
82, 0, 0, 1192.24462890625
83, 0, 0, 1190.289672851562
84, 0, 0, 1166.412963867188
85, 0, 0, 1175.036376953125
86, 0, 0, 1157.4892578125
87, 0, 0, 1155.5107421875
88, 0, 0, 1150.891357421875
89, 0, 0, 1136.325439453125
90, 0, 0, 1138.9833984375
91, 0, 0, 1119.8623046875
92, 0, 0, 1117.041748046875
93, 0, 0, 1106.4228515625
94, 0, 0, 1107.753295898438
95, 0, 0, 1095.256225585938
96, 0, 0, 1090.608520507812
97, 0, 0, 1082.984252929688
98, 0, 0, 1076.09912109375
99, 0, 0, 1068.555419921875
100, 0, 0, 1064.308349609375
101, 0, 0, 1052.688110351562
102, 0, 0, 1055.552001953125
103, 0, 0, 1046.138427734375
104, 0, 0, 1042.0439453125
105, 0, 0, 1035.037963867188
106, 0, 0, 1028.527587890625
107, 0, 0, 1022.054260253906
108, 0, 0, 1026.56005859375
109, 0, 0, 1020.509155273438
110, 0, 0, 1011.698608398438
111, 0, 0, 1007.212219238281
112, 0, 0, 1004.845947265625
113, 0, 0, 1001.920349121094
114, 0, 0, 990.1976318359375
115, 0, 0, 985.2850341796875
116, 0, 0, 981.4566040039062
117, 0, 0, 982.0377197265625
118, 0, 0, 977.404052734375
119, 0, 0, 972.73974609375
120, 0, 0, 967.12158203125
121, 0, 0, 963.5518188476562
122, 0, 0, 957.9742431640625
123, 0, 0, 945.5440063476562
124, 0, 0, 955.4796752929688
125, 0, 0, 955.8829345703125
126, 0, 0, 945.4215698242188
127, 0, 0, 934.7959594726562
128, 0, 0, 935.8319702148438
129, 0, 0, 934.5265502929688
130, 0, 0, 929.0559692382812
131, 0, 0, 924.8257446289062
132, 0, 0, 923.272705078125
133, 0, 0, 917.9277954101562
134, 0, 0, 911.9611206054688
135, 0, 0, 915.6470947265625
136, 0, 0, 907.8468627929688
137, 0, 0, 904.9688720703125
138, 0, 0, 899.501953125
139, 0, 0, 895.8251342773438
140, 0, 0, 899.02001953125
141, 0, 0, 891.80126953125
142, 0, 0, 882.5191040039062
143, 0, 0, 885.951416015625
144, 0, 0, 887.33837890625
145, 0, 0, 883.621337890625
146, 0, 0, 881.8111572265625
147, 0, 0, 874.237548828125
148, 0, 0, 866.8117065429688
149, 0, 0, 860.099365234375
150, 0, 0, 870.2809448242188
151, 0, 0, 863.075439453125
152, 0, 0, 863.3716430664062
153, 0, 0, 861.2837524414062
154, 0, 0, 860.8389282226562
155, 0, 0, 856.8690185546875
156, 0, 0, 851.8826904296875
157, 0, 0, 851.7296142578125
158, 0, 0, 846.4918212890625
159, 0, 0, 849.2830810546875
160, 0, 0, 845.3045654296875
161, 0, 0, 839.170654296875
162, 0, 0, 834.3937377929688
163, 0, 0, 832.5029907226562
164, 0, 0, 833.950439453125
165, 0, 0, 825.3242797851562
166, 0, 0, 827.1702880859375
167, 0, 0, 827.8570556640625
168, 0, 0, 817.9692993164062
169, 0, 0, 817.651123046875
170, 0, 0, 813.8251953125
171, 0, 0, 820.3815307617188
172, 0, 0, 822.7456665039062
173, 0, 0, 812.7637329101562
174, 0, 0, 810.9818115234375
175, 0, 0, 812.2778930664062
176, 0, 0, 805.0679321289062
177, 0, 0, 801.9169921875
178, 0, 0, 799.96044921875
179, 0, 0, 799.610595703125
