# TOPAS Version: 3.3.p1
# Parameter File: Test.txt
# Results for scorer MLIC_Scorer
# Scored in component: MLIC
# X in 180 bins of 0.177778 cm
# Y in 1 bin  of 10 cm
# Z in 1 bin  of 10 cm
# EnergyDeposit ( MeV ) : Sum   
0, 0, 0, 0.004979243036359549
1, 0, 0, 0.04344116896390915
2, 0, 0, 0.001957915490493178
3, 0, 0, 0
4, 0, 0, 8.751861605560407e-05
5, 0, 0, 0
6, 0, 0, 0
7, 0, 0, 0
8, 0, 0, 0
9, 0, 0, 0
10, 0, 0, 0
11, 0, 0, 79.65859222412109
12, 0, 0, 258.9669799804688
13, 0, 0, 741.9179077148438
14, 0, 0, 1839.143432617188
15, 0, 0, 3327.763916015625
16, 0, 0, 4459.8896484375
17, 0, 0, 5225.14208984375
18, 0, 0, 4903.7783203125
19, 0, 0, 4362.58984375
20, 0, 0, 3800.50390625
21, 0, 0, 3379.272216796875
22, 0, 0, 3086.223876953125
23, 0, 0, 2865.47021484375
24, 0, 0, 2694.941650390625
25, 0, 0, 2543.42919921875
26, 0, 0, 2431.95703125
27, 0, 0, 2329.12109375
28, 0, 0, 2240.37548828125
29, 0, 0, 2160.812744140625
30, 0, 0, 2092.876708984375
31, 0, 0, 2024.674438476562
32, 0, 0, 1968.63720703125
33, 0, 0, 1922.64404296875
34, 0, 0, 1873.111206054688
35, 0, 0, 1826.53759765625
36, 0, 0, 1790.673461914062
37, 0, 0, 1751.24267578125
38, 0, 0, 1716.041625976562
39, 0, 0, 1684.04296875
40, 0, 0, 1653.337036132812
41, 0, 0, 1627.955444335938
42, 0, 0, 1602.027465820312
43, 0, 0, 1573.555541992188
44, 0, 0, 1541.720703125
45, 0, 0, 1520.93603515625
46, 0, 0, 1503.150024414062
47, 0, 0, 1480.005249023438
48, 0, 0, 1465.602416992188
49, 0, 0, 1446.819091796875
50, 0, 0, 1426.739501953125
51, 0, 0, 1410.882446289062
52, 0, 0, 1394.505615234375
53, 0, 0, 1382.686157226562
54, 0, 0, 1357.876586914062
55, 0, 0, 1353.8212890625
56, 0, 0, 1336.039794921875
57, 0, 0, 1320.585815429688
58, 0, 0, 1305.170776367188
59, 0, 0, 1293.808471679688
60, 0, 0, 1281.96484375
61, 0, 0, 1273.346801757812
62, 0, 0, 1255.306030273438
63, 0, 0, 1249.061157226562
64, 0, 0, 1238.81787109375
65, 0, 0, 1222.891723632812
66, 0, 0, 1214.885009765625
67, 0, 0, 1209.422119140625
68, 0, 0, 1196.388305664062
69, 0, 0, 1183.519287109375
70, 0, 0, 1171.870849609375
71, 0, 0, 1171.776977539062
72, 0, 0, 1154.144775390625
73, 0, 0, 1147.581909179688
74, 0, 0, 1147.710083007812
75, 0, 0, 1135.709228515625
76, 0, 0, 1127.153442382812
77, 0, 0, 1115.797485351562
78, 0, 0, 1119.37158203125
79, 0, 0, 1102.0849609375
80, 0, 0, 1093.724731445312
81, 0, 0, 1094.944580078125
82, 0, 0, 1087.278076171875
83, 0, 0, 1074.795532226562
84, 0, 0, 1072.449584960938
85, 0, 0, 1061.056640625
86, 0, 0, 1052.582885742188
87, 0, 0, 1052.0224609375
88, 0, 0, 1053.238891601562
89, 0, 0, 1043.620849609375
90, 0, 0, 1030.44873046875
91, 0, 0, 1026.262329101562
92, 0, 0, 1027.434448242188
93, 0, 0, 1019.842956542969
94, 0, 0, 1010.494812011719
95, 0, 0, 1004.007446289062
96, 0, 0, 1007.231506347656
97, 0, 0, 998.353271484375
98, 0, 0, 988.6533813476562
99, 0, 0, 987.6563720703125
100, 0, 0, 987.5311279296875
101, 0, 0, 976.4178466796875
102, 0, 0, 980.3096313476562
103, 0, 0, 971.4192504882812
104, 0, 0, 965.4393310546875
105, 0, 0, 965.8130493164062
106, 0, 0, 962.0211791992188
107, 0, 0, 962.6221313476562
108, 0, 0, 952.3345336914062
109, 0, 0, 943.4007568359375
110, 0, 0, 941.6657104492188
111, 0, 0, 927.6384887695312
112, 0, 0, 938.1688842773438
113, 0, 0, 930.7232666015625
114, 0, 0, 925.411376953125
115, 0, 0, 927.9662475585938
116, 0, 0, 918.5346069335938
117, 0, 0, 913.301513671875
118, 0, 0, 902.0676879882812
119, 0, 0, 905.8814086914062
120, 0, 0, 910.4793701171875
121, 0, 0, 900.6657104492188
122, 0, 0, 894.69482421875
123, 0, 0, 897.103759765625
124, 0, 0, 891.97412109375
125, 0, 0, 890.0504760742188
126, 0, 0, 888.8636474609375
127, 0, 0, 877.7162475585938
128, 0, 0, 882.5984497070312
129, 0, 0, 875.5880737304688
130, 0, 0, 875.7615356445312
131, 0, 0, 865.7203979492188
132, 0, 0, 870.734619140625
133, 0, 0, 864.4871826171875
134, 0, 0, 858.5030517578125
135, 0, 0, 859.7957763671875
136, 0, 0, 857.0374145507812
137, 0, 0, 849.24658203125
138, 0, 0, 852.2122192382812
139, 0, 0, 849.6588134765625
140, 0, 0, 843.1636352539062
141, 0, 0, 840.8298950195312
142, 0, 0, 841.6697387695312
143, 0, 0, 839.8651733398438
144, 0, 0, 837.0592651367188
145, 0, 0, 842.6758422851562
146, 0, 0, 830.6895751953125
147, 0, 0, 823.3225708007812
148, 0, 0, 827.9923706054688
149, 0, 0, 825.8274536132812
150, 0, 0, 819.2957763671875
151, 0, 0, 816.1241455078125
152, 0, 0, 821.05908203125
153, 0, 0, 821.293212890625
154, 0, 0, 814.3129272460938
155, 0, 0, 803.4111938476562
156, 0, 0, 807.7610473632812
157, 0, 0, 809.1710205078125
158, 0, 0, 801.61279296875
159, 0, 0, 805.2823486328125
160, 0, 0, 801.8810424804688
161, 0, 0, 797.000732421875
162, 0, 0, 798.0558471679688
163, 0, 0, 793.6865234375
164, 0, 0, 791.9070434570312
165, 0, 0, 793.1624755859375
166, 0, 0, 794.86376953125
167, 0, 0, 777.7340698242188
168, 0, 0, 782.8624877929688
169, 0, 0, 784.408935546875
170, 0, 0, 779.7803344726562
171, 0, 0, 777.6627807617188
172, 0, 0, 769.9966430664062
173, 0, 0, 773.2859497070312
174, 0, 0, 773.7469482421875
175, 0, 0, 767.9097290039062
176, 0, 0, 768.8472900390625
177, 0, 0, 774.3008422851562
178, 0, 0, 766.8401489257812
179, 0, 0, 760.3184814453125
