# TOPAS Version: 3.3.p1
# Parameter File: Test.txt
# Results for scorer MLIC_Scorer
# Scored in component: MLIC
# X in 165 bins of 0.2 cm
# Y in 1 bin  of 10 cm
# Z in 1 bin  of 10 cm
# EnergyDeposit ( MeV ) : Sum   
0, 0, 0, 0
1, 0, 0, 0
2, 0, 0, 0
3, 0, 0, 0
4, 0, 0, 0
5, 0, 0, 0
6, 0, 0, 0
7, 0, 0, 0
8, 0, 0, 0
9, 0, 0, 0
10, 0, 0, 0
11, 0, 0, 0
12, 0, 0, 0
13, 0, 0, 0
14, 0, 0, 0
15, 0, 0, 0
16, 0, 0, 0
17, 0, 0, 0
18, 0, 0, 0
19, 0, 0, 0
20, 0, 0, 0
21, 0, 0, 0
22, 0, 0, 0
23, 0, 0, 0
24, 0, 0, 0
25, 0, 0, 0
26, 0, 0, 0
27, 0, 0, 0
28, 0, 0, 0
29, 0, 0, 0
30, 0, 0, 0
31, 0, 0, 0
32, 0, 0, 0
33, 0, 0, 0
34, 0, 0, 0
35, 0, 0, 0
36, 0, 0, 0
37, 0, 0, 0
38, 0, 0, 0
39, 0, 0, 0
40, 0, 0, 0
41, 0, 0, 0
42, 0, 0, 0
43, 0, 0, 0
44, 0, 0, 0
45, 0, 0, 0
46, 0, 0, 0
47, 0, 0, 0
48, 0, 0, 0
49, 0, 0, 0
50, 0, 0, 0
51, 0, 0, 0
52, 0, 0, 0
53, 0, 0, 0
54, 0, 0, 0
55, 0, 0, 0
56, 0, 0, 0
57, 0, 0, 0
58, 0, 0, 0
59, 0, 0, 0
60, 0, 0, 0
61, 0, 0, 0
62, 0, 0, 0
63, 0, 0, 0
64, 0, 0, 0
65, 0, 0, 0
66, 0, 0, 0
67, 0, 0, 0
68, 0, 0, 0
69, 0, 0, 0
70, 0, 0, 0
71, 0, 0, 0
72, 0, 0, 0
73, 0, 0, 0
74, 0, 0, 0
75, 0, 0, 0
76, 0, 0, 0
77, 0, 0, 0
78, 0, 0, 0
79, 0, 0, 0.007523213978856802
80, 0, 0, 0
81, 0, 0, 0
82, 0, 0, 9.507587432861328
83, 0, 0, 50.79332733154297
84, 0, 0, 123.7031936645508
85, 0, 0, 459.7115173339844
86, 0, 0, 1405.362915039062
87, 0, 0, 3000.217529296875
88, 0, 0, 4613.2734375
89, 0, 0, 5287.43017578125
90, 0, 0, 5512.93994140625
91, 0, 0, 4977.44140625
92, 0, 0, 4206.88916015625
93, 0, 0, 3738.447509765625
94, 0, 0, 3377.721923828125
95, 0, 0, 3127.895263671875
96, 0, 0, 2925.253173828125
97, 0, 0, 2763.467529296875
98, 0, 0, 2625.89892578125
99, 0, 0, 2520.491455078125
100, 0, 0, 2421.41015625
101, 0, 0, 2330.79931640625
102, 0, 0, 2258.428466796875
103, 0, 0, 2189.45654296875
104, 0, 0, 2135.693603515625
105, 0, 0, 2068.2265625
106, 0, 0, 2015.677856445312
107, 0, 0, 1974.9990234375
108, 0, 0, 1928.968383789062
109, 0, 0, 1893.279663085938
110, 0, 0, 1855.925659179688
111, 0, 0, 1809.889770507812
112, 0, 0, 1777.870727539062
113, 0, 0, 1743.140869140625
114, 0, 0, 1724.092407226562
115, 0, 0, 1690.048461914062
116, 0, 0, 1666.88134765625
117, 0, 0, 1645.800170898438
118, 0, 0, 1610.747192382812
119, 0, 0, 1600.130737304688
120, 0, 0, 1581.62353515625
121, 0, 0, 1560.470825195312
122, 0, 0, 1533.978637695312
123, 0, 0, 1515.376098632812
124, 0, 0, 1498.886840820312
125, 0, 0, 1476.38427734375
126, 0, 0, 1462.785888671875
127, 0, 0, 1455.089721679688
128, 0, 0, 1429.325073242188
129, 0, 0, 1421.845336914062
130, 0, 0, 1404.261840820312
131, 0, 0, 1385.42578125
132, 0, 0, 1374.974609375
133, 0, 0, 1360.101806640625
134, 0, 0, 1346.843017578125
135, 0, 0, 1337.49951171875
136, 0, 0, 1328.941650390625
137, 0, 0, 1316.545043945312
138, 0, 0, 1303.141723632812
139, 0, 0, 1296.519165039062
140, 0, 0, 1288.399658203125
141, 0, 0, 1273.013549804688
142, 0, 0, 1256.784057617188
143, 0, 0, 1257.810302734375
144, 0, 0, 1254.37744140625
145, 0, 0, 1238.265991210938
146, 0, 0, 1229.588134765625
147, 0, 0, 1217.591552734375
148, 0, 0, 1203.955200195312
149, 0, 0, 1204.142822265625
150, 0, 0, 1190.770751953125
151, 0, 0, 1186.505981445312
152, 0, 0, 1184.480712890625
153, 0, 0, 1173.968994140625
154, 0, 0, 1164.351440429688
155, 0, 0, 1155.917846679688
156, 0, 0, 1146.028686523438
157, 0, 0, 1143.592895507812
158, 0, 0, 1138.872680664062
159, 0, 0, 1125.54150390625
160, 0, 0, 1125.569946289062
161, 0, 0, 1121.60693359375
162, 0, 0, 1110.099609375
163, 0, 0, 1108.1494140625
164, 0, 0, 1096.198974609375
