# TOPAS Version: 3.3.p1
# Parameter File: Test.txt
# Results for scorer MLIC_Scorer
# Scored in component: MLIC
# X in 180 bins of 0.177778 cm
# Y in 1 bin  of 10 cm
# Z in 1 bin  of 10 cm
# EnergyDeposit ( MeV ) : Sum   
0, 0, 0, 0
1, 0, 0, 0
2, 0, 0, 0
3, 0, 0, 0
4, 0, 0, 0
5, 0, 0, 0
6, 0, 0, 0
7, 0, 0, 0
8, 0, 0, 0
9, 0, 0, 0
10, 0, 0, 0
11, 0, 0, 0
12, 0, 0, 0
13, 0, 0, 0
14, 0, 0, 0
15, 0, 0, 0
16, 0, 0, 0.008082280866801739
17, 0, 0, 0
18, 0, 0, 0
19, 0, 0, 0
20, 0, 0, 0
21, 0, 0, 0
22, 0, 0, 0
23, 0, 0, 0.03643312677741051
24, 0, 0, 0.001234705443494022
25, 0, 0, 0
26, 0, 0, 0
27, 0, 0, 0
28, 0, 0, 0
29, 0, 0, 0.006543854251503944
30, 0, 0, 0
31, 0, 0, 0
32, 0, 0, 0
33, 0, 0, 0
34, 0, 0, 0
35, 0, 0, 0
36, 0, 0, 0
37, 0, 0, 0
38, 0, 0, 0
39, 0, 0, 0
40, 0, 0, 0
41, 0, 0, 0
42, 0, 0, 0
43, 0, 0, 0
44, 0, 0, 0
45, 0, 0, 0
46, 0, 0, 0
47, 0, 0, 0
48, 0, 0, 0
49, 0, 0, 0
50, 0, 0, 0
51, 0, 0, 0
52, 0, 0, 0
53, 0, 0, 0
54, 0, 0, 0
55, 0, 0, 0
56, 0, 0, 0
57, 0, 0, 0
58, 0, 0, 0
59, 0, 0, 0.03954407945275307
60, 0, 0, 0
61, 0, 0, 0
62, 0, 0, 0
63, 0, 0, 13.17925548553467
64, 0, 0, 180.5159301757812
65, 0, 0, 553.0227661132812
66, 0, 0, 1311.25244140625
67, 0, 0, 2507.2080078125
68, 0, 0, 3881.241455078125
69, 0, 0, 4878.53515625
70, 0, 0, 5077.81103515625
71, 0, 0, 4711.5361328125
72, 0, 0, 4064.60693359375
73, 0, 0, 3571.857177734375
74, 0, 0, 3234.845458984375
75, 0, 0, 2961.9033203125
76, 0, 0, 2765.90234375
77, 0, 0, 2618.08056640625
78, 0, 0, 2478.8134765625
79, 0, 0, 2376.6826171875
80, 0, 0, 2279.718017578125
81, 0, 0, 2201.13427734375
82, 0, 0, 2130.9501953125
83, 0, 0, 2059.064208984375
84, 0, 0, 2000.525634765625
85, 0, 0, 1954.32275390625
86, 0, 0, 1891.19873046875
87, 0, 0, 1851.190307617188
88, 0, 0, 1809.359375
89, 0, 0, 1775.148559570312
90, 0, 0, 1736.029663085938
91, 0, 0, 1696.905151367188
92, 0, 0, 1670.142578125
93, 0, 0, 1641.700073242188
94, 0, 0, 1621.247192382812
95, 0, 0, 1585.1982421875
96, 0, 0, 1558.896728515625
97, 0, 0, 1535.902954101562
98, 0, 0, 1511.502807617188
99, 0, 0, 1494.727661132812
100, 0, 0, 1476.992553710938
101, 0, 0, 1450.950805664062
102, 0, 0, 1438.030883789062
103, 0, 0, 1421.823120117188
104, 0, 0, 1402.493408203125
105, 0, 0, 1390.83203125
106, 0, 0, 1375.132202148438
107, 0, 0, 1347.508422851562
108, 0, 0, 1333.737426757812
109, 0, 0, 1323.28466796875
110, 0, 0, 1313.214233398438
111, 0, 0, 1292.255126953125
112, 0, 0, 1282.487426757812
113, 0, 0, 1273.83984375
114, 0, 0, 1260.934448242188
115, 0, 0, 1255.04833984375
116, 0, 0, 1238.691772460938
117, 0, 0, 1232.37548828125
118, 0, 0, 1219.819458007812
119, 0, 0, 1204.259765625
120, 0, 0, 1203.193359375
121, 0, 0, 1187.670288085938
122, 0, 0, 1181.941650390625
123, 0, 0, 1169.25244140625
124, 0, 0, 1161.484252929688
125, 0, 0, 1155.061401367188
126, 0, 0, 1150.227294921875
127, 0, 0, 1140.2626953125
128, 0, 0, 1127.45703125
129, 0, 0, 1129.8125
130, 0, 0, 1121.1298828125
131, 0, 0, 1111.462646484375
132, 0, 0, 1104.433837890625
133, 0, 0, 1098.554809570312
134, 0, 0, 1093.156494140625
135, 0, 0, 1079.842529296875
136, 0, 0, 1075.76318359375
137, 0, 0, 1060.231323242188
138, 0, 0, 1068.810546875
139, 0, 0, 1053.382568359375
140, 0, 0, 1050.578857421875
141, 0, 0, 1043.894897460938
142, 0, 0, 1042.457275390625
143, 0, 0, 1033.878784179688
144, 0, 0, 1025.125610351562
145, 0, 0, 1027.739868164062
146, 0, 0, 1013.500793457031
147, 0, 0, 1009.0302734375
148, 0, 0, 1011.204223632812
149, 0, 0, 997.850341796875
150, 0, 0, 996.1691284179688
151, 0, 0, 993.5228881835938
152, 0, 0, 984.6492919921875
153, 0, 0, 976.3800659179688
154, 0, 0, 975.3220825195312
155, 0, 0, 976.250244140625
156, 0, 0, 969.6697387695312
157, 0, 0, 962.6597290039062
158, 0, 0, 958.7896728515625
159, 0, 0, 959.113525390625
160, 0, 0, 945.1287841796875
161, 0, 0, 958.8446044921875
162, 0, 0, 941.4968872070312
163, 0, 0, 941.8090209960938
164, 0, 0, 931.4570922851562
165, 0, 0, 925.85595703125
166, 0, 0, 930.051513671875
167, 0, 0, 924.5371704101562
168, 0, 0, 921.2003784179688
169, 0, 0, 922.8485717773438
170, 0, 0, 907.260009765625
171, 0, 0, 912.9572143554688
172, 0, 0, 902.6599731445312
173, 0, 0, 903.8690185546875
174, 0, 0, 897.4697875976562
175, 0, 0, 898.4666137695312
176, 0, 0, 893.5277099609375
177, 0, 0, 891.5737915039062
178, 0, 0, 886.3497924804688
179, 0, 0, 880.97265625
