# TOPAS Version: 3.3.p1
# Parameter File: Test.txt
# Results for scorer MLIC_Scorer
# Scored in component: MLIC
# X in 180 bins of 0.177778 cm
# Y in 1 bin  of 10 cm
# Z in 1 bin  of 10 cm
# EnergyDeposit ( MeV ) : Sum   
0, 0, 0, 0
1, 0, 0, 0
2, 0, 0, 0
3, 0, 0, 0
4, 0, 0, 0
5, 0, 0, 0
6, 0, 0, 0
7, 0, 0, 0
8, 0, 0, 0
9, 0, 0, 0
10, 0, 0, 0
11, 0, 0, 0
12, 0, 0, 0
13, 0, 0, 0
14, 0, 0, 0
15, 0, 0, 0
16, 0, 0, 0
17, 0, 0, 0
18, 0, 0, 0
19, 0, 0, 0
20, 0, 0, 0
21, 0, 0, 0
22, 0, 0, 0
23, 0, 0, 0
24, 0, 0, 0
25, 0, 0, 0
26, 0, 0, 0
27, 0, 0, 0
28, 0, 0, 0
29, 0, 0, 0
30, 0, 0, 0
31, 0, 0, 0
32, 0, 0, 0
33, 0, 0, 0
34, 0, 0, 0
35, 0, 0, 0
36, 0, 0, 0
37, 0, 0, 0
38, 0, 0, 0
39, 0, 0, 0
40, 0, 0, 0
41, 0, 0, 0
42, 0, 0, 0
43, 0, 0, 0
44, 0, 0, 0
45, 0, 0, 0
46, 0, 0, 0
47, 0, 0, 0
48, 0, 0, 0
49, 0, 0, 0
50, 0, 0, 0
51, 0, 0, 0
52, 0, 0, 0
53, 0, 0, 0
54, 0, 0, 0
55, 0, 0, 0
56, 0, 0, 0
57, 0, 0, 0
58, 0, 0, 0
59, 0, 0, 0
60, 0, 0, 0
61, 0, 0, 0
62, 0, 0, 0
63, 0, 0, 0
64, 0, 0, 0
65, 0, 0, 0
66, 0, 0, 0
67, 0, 0, 0
68, 0, 0, 0
69, 0, 0, 0
70, 0, 0, 0
71, 0, 0, 0
72, 0, 0, 0
73, 0, 0, 0
74, 0, 0, 0
75, 0, 0, 0
76, 0, 0, 0
77, 0, 0, 0
78, 0, 0, 0
79, 0, 0, 0
80, 0, 0, 0
81, 0, 0, 63.56603240966797
82, 0, 0, 211.4470977783203
83, 0, 0, 298.9537658691406
84, 0, 0, 353.056396484375
85, 0, 0, 380.6701965332031
86, 0, 0, 363.6575622558594
87, 0, 0, 294.4737854003906
88, 0, 0, 263.2717590332031
89, 0, 0, 234.8922729492188
90, 0, 0, 217.5433807373047
91, 0, 0, 201.0139923095703
92, 0, 0, 191.9338684082031
93, 0, 0, 180.9662475585938
94, 0, 0, 174.7371826171875
95, 0, 0, 166.3825378417969
96, 0, 0, 159.1341705322266
97, 0, 0, 154.3563995361328
98, 0, 0, 150.6933135986328
99, 0, 0, 146.6480255126953
100, 0, 0, 142.1696624755859
101, 0, 0, 138.1367492675781
102, 0, 0, 136.5858459472656
103, 0, 0, 131.55615234375
104, 0, 0, 129.4851379394531
105, 0, 0, 127.6268081665039
106, 0, 0, 123.6340408325195
107, 0, 0, 120.3504486083984
108, 0, 0, 119.9920120239258
109, 0, 0, 118.9768295288086
110, 0, 0, 114.427734375
111, 0, 0, 113.857307434082
112, 0, 0, 113.0194473266602
113, 0, 0, 109.0826187133789
114, 0, 0, 109.1544342041016
115, 0, 0, 109.8059234619141
116, 0, 0, 108.0430755615234
117, 0, 0, 105.9911422729492
118, 0, 0, 103.35595703125
119, 0, 0, 102.1790771484375
120, 0, 0, 98.78379058837891
121, 0, 0, 98.14952850341797
122, 0, 0, 100.1814575195312
123, 0, 0, 99.40945434570312
124, 0, 0, 97.5657958984375
125, 0, 0, 96.97740173339844
126, 0, 0, 94.688720703125
127, 0, 0, 94.64921569824219
128, 0, 0, 93.53584289550781
129, 0, 0, 91.96279144287109
130, 0, 0, 89.81880187988281
131, 0, 0, 90.82889556884766
132, 0, 0, 90.69195556640625
133, 0, 0, 88.25536346435547
134, 0, 0, 88.98238372802734
135, 0, 0, 87.31288909912109
136, 0, 0, 86.35609436035156
137, 0, 0, 87.48705291748047
138, 0, 0, 87.204345703125
139, 0, 0, 83.90341949462891
140, 0, 0, 84.06552886962891
141, 0, 0, 82.98902893066406
142, 0, 0, 82.01288604736328
143, 0, 0, 83.19638061523438
144, 0, 0, 81.58768463134766
145, 0, 0, 81.04004669189453
146, 0, 0, 80.27582550048828
147, 0, 0, 80.64849853515625
148, 0, 0, 79.02489471435547
149, 0, 0, 77.70127868652344
150, 0, 0, 77.78984832763672
151, 0, 0, 78.59239196777344
152, 0, 0, 75.95546722412109
153, 0, 0, 76.59938049316406
154, 0, 0, 76.62886047363281
155, 0, 0, 76.62413787841797
156, 0, 0, 76.19369506835938
157, 0, 0, 77.07685089111328
158, 0, 0, 76.15487670898438
159, 0, 0, 76.59111785888672
160, 0, 0, 75.81341552734375
161, 0, 0, 74.51354217529297
162, 0, 0, 75.56491851806641
163, 0, 0, 72.55168151855469
164, 0, 0, 71.59797668457031
165, 0, 0, 72.98562622070312
166, 0, 0, 70.32327270507812
167, 0, 0, 72.17144012451172
168, 0, 0, 71.07594299316406
169, 0, 0, 73.25382995605469
170, 0, 0, 73.31737518310547
171, 0, 0, 70.01556396484375
172, 0, 0, 69.80955505371094
173, 0, 0, 70.59945678710938
174, 0, 0, 70.87764739990234
175, 0, 0, 70.16224670410156
176, 0, 0, 69.79407501220703
177, 0, 0, 68.13938903808594
178, 0, 0, 68.25794982910156
179, 0, 0, 67.79510498046875
