# TOPAS Version: 3.3.p1
# Parameter File: Test.txt
# Results for scorer MLIC_Scorer
# Scored in component: MLIC
# X in 180 bins of 0.177778 cm
# Y in 1 bin  of 10 cm
# Z in 1 bin  of 10 cm
# EnergyDeposit ( MeV ) : Sum   
0, 0, 0, 0
1, 0, 0, 0
2, 0, 0, 0
3, 0, 0, 0
4, 0, 0, 0
5, 0, 0, 0
6, 0, 0, 0
7, 0, 0, 0
8, 0, 0, 0
9, 0, 0, 0
10, 0, 0, 0
11, 0, 0, 0
12, 0, 0, 0.00376027706079185
13, 0, 0, 0.004031126853078604
14, 0, 0, 0
15, 0, 0, 0.03030535206198692
16, 0, 0, 0.004638586658984423
17, 0, 0, 0
18, 0, 0, 0
19, 0, 0, 0
20, 0, 0, 0
21, 0, 0, 0
22, 0, 0, 0
23, 0, 0, 0
24, 0, 0, 0
25, 0, 0, 0
26, 0, 0, 0
27, 0, 0, 0
28, 0, 0, 0
29, 0, 0, 0
30, 0, 0, 0
31, 0, 0, 0
32, 0, 0, 0
33, 0, 0, 0
34, 0, 0, 0
35, 0, 0, 0
36, 0, 0, 0
37, 0, 0, 0.03119128197431564
38, 0, 0, 0
39, 0, 0, 0
40, 0, 0, 0
41, 0, 0, 0
42, 0, 0, 0
43, 0, 0, 0
44, 0, 0, 0
45, 0, 0, 0
46, 0, 0, 0.00541311502456665
47, 0, 0, 0
48, 0, 0, 0
49, 0, 0, 0.0006671690498478711
50, 0, 0, 0
51, 0, 0, 0
52, 0, 0, 0.05145591124892235
53, 0, 0, 0.002653335221111774
54, 0, 0, 0
55, 0, 0, 0
56, 0, 0, 0.01230143010616302
57, 0, 0, 0
58, 0, 0, 0
59, 0, 0, 0
60, 0, 0, 14.3704080581665
61, 0, 0, 49.19570159912109
62, 0, 0, 231.5915679931641
63, 0, 0, 913.0576782226562
64, 0, 0, 2019.335693359375
65, 0, 0, 3421.53125
66, 0, 0, 4668.57080078125
67, 0, 0, 5104.03662109375
68, 0, 0, 4830.9755859375
69, 0, 0, 4212.59228515625
70, 0, 0, 3789.089599609375
71, 0, 0, 3365.1015625
72, 0, 0, 3065.3828125
73, 0, 0, 2853.4931640625
74, 0, 0, 2679.489013671875
75, 0, 0, 2534.035888671875
76, 0, 0, 2422.080078125
77, 0, 0, 2321.954345703125
78, 0, 0, 2226.52197265625
79, 0, 0, 2153.76611328125
80, 0, 0, 2090.148193359375
81, 0, 0, 2022.417724609375
82, 0, 0, 1975.694702148438
83, 0, 0, 1915.884643554688
84, 0, 0, 1876.50732421875
85, 0, 0, 1823.199951171875
86, 0, 0, 1786.988159179688
87, 0, 0, 1745.04638671875
88, 0, 0, 1713.848999023438
89, 0, 0, 1686.708374023438
90, 0, 0, 1650.153930664062
91, 0, 0, 1623.425170898438
92, 0, 0, 1598.784912109375
93, 0, 0, 1574.534423828125
94, 0, 0, 1548.52880859375
95, 0, 0, 1525.755126953125
96, 0, 0, 1497.47802734375
97, 0, 0, 1492.660400390625
98, 0, 0, 1463.2822265625
99, 0, 0, 1439.024169921875
100, 0, 0, 1425.584228515625
101, 0, 0, 1411.513793945312
102, 0, 0, 1386.71630859375
103, 0, 0, 1376.349365234375
104, 0, 0, 1360.674072265625
105, 0, 0, 1349.52685546875
106, 0, 0, 1330.53955078125
107, 0, 0, 1324.047973632812
108, 0, 0, 1306.736206054688
109, 0, 0, 1292.068725585938
110, 0, 0, 1277.839111328125
111, 0, 0, 1266.828125
112, 0, 0, 1260.640625
113, 0, 0, 1236.870727539062
114, 0, 0, 1234.692626953125
115, 0, 0, 1226.262817382812
116, 0, 0, 1216.799682617188
117, 0, 0, 1202.668823242188
118, 0, 0, 1190.078002929688
119, 0, 0, 1181.955444335938
120, 0, 0, 1178.34423828125
121, 0, 0, 1163.659790039062
122, 0, 0, 1157.079467773438
123, 0, 0, 1146.84912109375
124, 0, 0, 1136.572509765625
125, 0, 0, 1134.320922851562
126, 0, 0, 1125.055786132812
127, 0, 0, 1123.680419921875
128, 0, 0, 1114.092407226562
129, 0, 0, 1104.507690429688
130, 0, 0, 1093.50146484375
131, 0, 0, 1089.581787109375
132, 0, 0, 1090.189331054688
133, 0, 0, 1075.824951171875
134, 0, 0, 1061.770385742188
135, 0, 0, 1062.676635742188
136, 0, 0, 1053.01611328125
137, 0, 0, 1053.668212890625
138, 0, 0, 1044.401733398438
139, 0, 0, 1042.059692382812
140, 0, 0, 1032.430053710938
141, 0, 0, 1025.4443359375
142, 0, 0, 1021.532043457031
143, 0, 0, 1011.149475097656
144, 0, 0, 1019.605834960938
145, 0, 0, 1007.034240722656
146, 0, 0, 1007.696655273438
147, 0, 0, 999.9664916992188
148, 0, 0, 983.7842407226562
149, 0, 0, 987.8842163085938
150, 0, 0, 987.1854248046875
151, 0, 0, 979.2089233398438
152, 0, 0, 980.4279174804688
153, 0, 0, 966.6509399414062
154, 0, 0, 967.7105712890625
155, 0, 0, 962.7937622070312
156, 0, 0, 963.5018920898438
157, 0, 0, 955.5118408203125
158, 0, 0, 955.1347045898438
159, 0, 0, 937.6729736328125
160, 0, 0, 938.7559814453125
161, 0, 0, 937.0321044921875
162, 0, 0, 926.824462890625
163, 0, 0, 936.4974365234375
164, 0, 0, 926.8873901367188
165, 0, 0, 928.372802734375
166, 0, 0, 922.1392822265625
167, 0, 0, 918.3289184570312
168, 0, 0, 908.8878784179688
169, 0, 0, 903.4685668945312
170, 0, 0, 897.0717163085938
171, 0, 0, 897.2218017578125
172, 0, 0, 893.3839721679688
173, 0, 0, 889.548095703125
174, 0, 0, 891.3181762695312
175, 0, 0, 884.1575927734375
176, 0, 0, 884.8236694335938
177, 0, 0, 880.0814819335938
178, 0, 0, 882.34130859375
179, 0, 0, 880.4756469726562
