# TOPAS Version: 3.3.p1
# Parameter File: Test.txt
# Results for scorer MLIC_Scorer
# Scored in component: MLIC
# X in 180 bins of 0.177778 cm
# Y in 1 bin  of 10 cm
# Z in 1 bin  of 10 cm
# EnergyDeposit ( MeV ) : Sum   
0, 0, 0, 0
1, 0, 0, 0
2, 0, 0, 0
3, 0, 0, 0
4, 0, 0, 0
5, 0, 0, 0
6, 0, 0, 0
7, 0, 0, 0
8, 0, 0, 0
9, 0, 0, 0
10, 0, 0, 0
11, 0, 0, 0
12, 0, 0, 0
13, 0, 0, 0
14, 0, 0, 0
15, 0, 0, 0
16, 0, 0, 0
17, 0, 0, 0
18, 0, 0, 0
19, 0, 0, 0
20, 0, 0, 0
21, 0, 0, 0
22, 0, 0, 0
23, 0, 0, 0
24, 0, 0, 0
25, 0, 0, 0
26, 0, 0, 0
27, 0, 0, 0
28, 0, 0, 0
29, 0, 0, 0
30, 0, 0, 0
31, 0, 0, 0
32, 0, 0, 0
33, 0, 0, 0
34, 0, 0, 0
35, 0, 0, 0
36, 0, 0, 0
37, 0, 0, 0
38, 0, 0, 0
39, 0, 0, 0
40, 0, 0, 0
41, 0, 0, 0
42, 0, 0, 0
43, 0, 0, 0
44, 0, 0, 0
45, 0, 0, 0
46, 0, 0, 0.05748513713479042
47, 0, 0, 0
48, 0, 0, 0
49, 0, 0, 0
50, 0, 0, 0
51, 0, 0, 14.39132213592529
52, 0, 0, 77.79814147949219
53, 0, 0, 243.7128448486328
54, 0, 0, 703.4578857421875
55, 0, 0, 1569.700073242188
56, 0, 0, 3107.089599609375
57, 0, 0, 4280.93896484375
58, 0, 0, 4959.939453125
59, 0, 0, 4805.38232421875
60, 0, 0, 4446.43115234375
61, 0, 0, 3974.18310546875
62, 0, 0, 3495.22705078125
63, 0, 0, 3150.57470703125
64, 0, 0, 2914.180419921875
65, 0, 0, 2733.996337890625
66, 0, 0, 2579.8125
67, 0, 0, 2456.74072265625
68, 0, 0, 2351.842529296875
69, 0, 0, 2256.627197265625
70, 0, 0, 2173.8232421875
71, 0, 0, 2113.112060546875
72, 0, 0, 2030.50634765625
73, 0, 0, 1985.359497070312
74, 0, 0, 1940.779663085938
75, 0, 0, 1881.407470703125
76, 0, 0, 1844.4365234375
77, 0, 0, 1799.90234375
78, 0, 0, 1758.0625
79, 0, 0, 1724.64404296875
80, 0, 0, 1693.102661132812
81, 0, 0, 1659.218627929688
82, 0, 0, 1639.715698242188
83, 0, 0, 1603.87841796875
84, 0, 0, 1579.40673828125
85, 0, 0, 1555.694213867188
86, 0, 0, 1530.818359375
87, 0, 0, 1508.179077148438
88, 0, 0, 1488.096923828125
89, 0, 0, 1465.710571289062
90, 0, 0, 1444.200317382812
91, 0, 0, 1439.36328125
92, 0, 0, 1417.714721679688
93, 0, 0, 1393.499633789062
94, 0, 0, 1385.039794921875
95, 0, 0, 1368.139404296875
96, 0, 0, 1342.132080078125
97, 0, 0, 1331.994018554688
98, 0, 0, 1319.742431640625
99, 0, 0, 1312.203857421875
100, 0, 0, 1292.40966796875
101, 0, 0, 1286.381958007812
102, 0, 0, 1264.499633789062
103, 0, 0, 1251.411743164062
104, 0, 0, 1246.19287109375
105, 0, 0, 1239.411010742188
106, 0, 0, 1228.067138671875
107, 0, 0, 1212.882446289062
108, 0, 0, 1213.497924804688
109, 0, 0, 1196.225952148438
110, 0, 0, 1183.495971679688
111, 0, 0, 1180.410278320312
112, 0, 0, 1166.368408203125
113, 0, 0, 1158.524291992188
114, 0, 0, 1149.43798828125
115, 0, 0, 1149.71337890625
116, 0, 0, 1138.572143554688
117, 0, 0, 1129.748291015625
118, 0, 0, 1126.38720703125
119, 0, 0, 1110.2373046875
120, 0, 0, 1099.352416992188
121, 0, 0, 1100.357543945312
122, 0, 0, 1084.12060546875
123, 0, 0, 1072.541015625
124, 0, 0, 1079.628662109375
125, 0, 0, 1067.43603515625
126, 0, 0, 1067.211791992188
127, 0, 0, 1058.72412109375
128, 0, 0, 1040.2587890625
129, 0, 0, 1039.138793945312
130, 0, 0, 1035.070556640625
131, 0, 0, 1035.325561523438
132, 0, 0, 1023.856201171875
133, 0, 0, 1024.376831054688
134, 0, 0, 1022.262390136719
135, 0, 0, 1013.679809570312
136, 0, 0, 1013.073791503906
137, 0, 0, 1007.176818847656
138, 0, 0, 996.190185546875
139, 0, 0, 998.2457885742188
140, 0, 0, 990.02734375
141, 0, 0, 980.0760498046875
142, 0, 0, 977.7938842773438
143, 0, 0, 974.1068725585938
144, 0, 0, 982.3710327148438
145, 0, 0, 968.788818359375
146, 0, 0, 957.8707885742188
147, 0, 0, 960.120849609375
148, 0, 0, 951.5720825195312
149, 0, 0, 946.5797119140625
150, 0, 0, 942.2443237304688
151, 0, 0, 936.6820678710938
152, 0, 0, 937.3046264648438
153, 0, 0, 938.2424926757812
154, 0, 0, 930.8057250976562
155, 0, 0, 926.1725463867188
156, 0, 0, 927.6865844726562
157, 0, 0, 919.6176147460938
158, 0, 0, 909.2880859375
159, 0, 0, 913.2335205078125
160, 0, 0, 909.0046997070312
161, 0, 0, 908.8909912109375
162, 0, 0, 899.865966796875
163, 0, 0, 894.3720703125
164, 0, 0, 894.4263305664062
165, 0, 0, 893.9036865234375
166, 0, 0, 885.9627075195312
167, 0, 0, 883.1039428710938
168, 0, 0, 891.845703125
169, 0, 0, 877.0521850585938
170, 0, 0, 874.4478149414062
171, 0, 0, 877.4219360351562
172, 0, 0, 869.6884155273438
173, 0, 0, 871.40087890625
174, 0, 0, 872.2822265625
175, 0, 0, 857.4639282226562
176, 0, 0, 857.7359619140625
177, 0, 0, 856.62158203125
178, 0, 0, 856.4658813476562
179, 0, 0, 858.8436279296875
