# TOPAS Version: 3.3.p1
# Parameter File: Test.txt
# Results for scorer MLIC_Scorer
# Scored in component: MLIC
# X in 180 bins of 0.183333 cm
# Y in 1 bin  of 10 cm
# Z in 1 bin  of 10 cm
# EnergyDeposit ( MeV ) : Sum   
0, 0, 0, 0
1, 0, 0, 0
2, 0, 0, 0
3, 0, 0, 0
4, 0, 0, 0
5, 0, 0, 0
6, 0, 0, 0
7, 0, 0, 0
8, 0, 0, 0
9, 0, 0, 0
10, 0, 0, 0
11, 0, 0, 0
12, 0, 0, 0
13, 0, 0, 0
14, 0, 0, 0
15, 0, 0, 0
16, 0, 0, 0
17, 0, 0, 0
18, 0, 0, 0
19, 0, 0, 0
20, 0, 0, 0
21, 0, 0, 0
22, 0, 0, 0
23, 0, 0, 0
24, 0, 0, 0
25, 0, 0, 0
26, 0, 0, 0
27, 0, 0, 0
28, 0, 0, 0
29, 0, 0, 0
30, 0, 0, 0
31, 0, 0, 0
32, 0, 0, 0
33, 0, 0, 0
34, 0, 0, 0
35, 0, 0, 0
36, 0, 0, 0
37, 0, 0, 0
38, 0, 0, 0
39, 0, 0, 0
40, 0, 0, 0
41, 0, 0, 0
42, 0, 0, 0
43, 0, 0, 0
44, 0, 0, 0
45, 0, 0, 0
46, 0, 0, 0
47, 0, 0, 0
48, 0, 0, 0
49, 0, 0, 0
50, 0, 0, 0
51, 0, 0, 0
52, 0, 0, 0
53, 0, 0, 0.01139410771429539
54, 0, 0, 0
55, 0, 0, 0
56, 0, 0, 0
57, 0, 0, 0
58, 0, 0, 0
59, 0, 0, 0
60, 0, 0, 0
61, 0, 0, 0
62, 0, 0, 0
63, 0, 0, 0
64, 0, 0, 0
65, 0, 0, 0
66, 0, 0, 0
67, 0, 0, 0
68, 0, 0, 0
69, 0, 0, 0
70, 0, 0, 0
71, 0, 0, 0
72, 0, 0, 0
73, 0, 0, 0
74, 0, 0, 0
75, 0, 0, 0
76, 0, 0, 0
77, 0, 0, 0.02428975328803062
78, 0, 0, 0
79, 0, 0, 0
80, 0, 0, 0
81, 0, 0, 0
82, 0, 0, 0
83, 0, 0, 0
84, 0, 0, 0
85, 0, 0, 0
86, 0, 0, 0
87, 0, 0, 0
88, 0, 0, 0
89, 0, 0, 0
90, 0, 0, 0
91, 0, 0, 0
92, 0, 0, 22.60754203796387
93, 0, 0, 55.95853805541992
94, 0, 0, 288.8495483398438
95, 0, 0, 1060.068237304688
96, 0, 0, 2402.783935546875
97, 0, 0, 3926.0087890625
98, 0, 0, 5122.134765625
99, 0, 0, 5222.837890625
100, 0, 0, 4740.0048828125
101, 0, 0, 4246.07958984375
102, 0, 0, 3694.847412109375
103, 0, 0, 3318.786865234375
104, 0, 0, 3044.567626953125
105, 0, 0, 2842.769775390625
106, 0, 0, 2674.63232421875
107, 0, 0, 2547.52783203125
108, 0, 0, 2425.891845703125
109, 0, 0, 2332.28955078125
110, 0, 0, 2247.781982421875
111, 0, 0, 2172.382568359375
112, 0, 0, 2105.89208984375
113, 0, 0, 2050.898193359375
114, 0, 0, 1986.536499023438
115, 0, 0, 1941.067138671875
116, 0, 0, 1890.30615234375
117, 0, 0, 1848.33203125
118, 0, 0, 1801.973754882812
119, 0, 0, 1765.107788085938
120, 0, 0, 1746.028076171875
121, 0, 0, 1701.661254882812
122, 0, 0, 1677.194580078125
123, 0, 0, 1649.662475585938
124, 0, 0, 1624.757934570312
125, 0, 0, 1592.4306640625
126, 0, 0, 1577.019287109375
127, 0, 0, 1542.318481445312
128, 0, 0, 1523.75244140625
129, 0, 0, 1500.413452148438
130, 0, 0, 1484.355712890625
131, 0, 0, 1470.567749023438
132, 0, 0, 1446.141723632812
133, 0, 0, 1435.794799804688
134, 0, 0, 1405.810302734375
135, 0, 0, 1394.670166015625
136, 0, 0, 1384.186157226562
137, 0, 0, 1372.05029296875
138, 0, 0, 1349.002197265625
139, 0, 0, 1337.326171875
140, 0, 0, 1324.709716796875
141, 0, 0, 1305.16796875
142, 0, 0, 1302.00439453125
143, 0, 0, 1280.035034179688
144, 0, 0, 1276.079956054688
145, 0, 0, 1266.652709960938
146, 0, 0, 1253.970092773438
147, 0, 0, 1243.779052734375
148, 0, 0, 1229.64404296875
149, 0, 0, 1213.401733398438
150, 0, 0, 1218.309814453125
151, 0, 0, 1203.72607421875
152, 0, 0, 1192.468627929688
153, 0, 0, 1183.732666015625
154, 0, 0, 1175.067993164062
155, 0, 0, 1177.121215820312
156, 0, 0, 1164.925659179688
157, 0, 0, 1150.121948242188
158, 0, 0, 1142.284545898438
159, 0, 0, 1131.562255859375
160, 0, 0, 1135.661987304688
161, 0, 0, 1125.874877929688
162, 0, 0, 1123.582885742188
163, 0, 0, 1111.630249023438
164, 0, 0, 1105.712768554688
165, 0, 0, 1096.185424804688
166, 0, 0, 1084.58984375
167, 0, 0, 1085.399291992188
168, 0, 0, 1072.078369140625
169, 0, 0, 1074.321411132812
170, 0, 0, 1066.31884765625
171, 0, 0, 1065.361083984375
172, 0, 0, 1067.863647460938
173, 0, 0, 1045.769897460938
174, 0, 0, 1044.466430664062
175, 0, 0, 1035.48046875
176, 0, 0, 1031.81640625
177, 0, 0, 1029.267211914062
178, 0, 0, 1017.584228515625
179, 0, 0, 1014.948547363281
