# TOPAS Version: 3.3.p1
# Parameter File: Test.txt
# Results for scorer MLIC_Scorer
# Scored in component: MLIC
# X in 180 bins of 0.177778 cm
# Y in 1 bin  of 10 cm
# Z in 1 bin  of 10 cm
# EnergyDeposit ( MeV ) : Sum   
0, 0, 0, 0
1, 0, 0, 0
2, 0, 0, 0
3, 0, 0, 0
4, 0, 0, 0
5, 0, 0, 0
6, 0, 0, 0
7, 0, 0, 0
8, 0, 0, 0
9, 0, 0, 0
10, 0, 0, 0
11, 0, 0, 0
12, 0, 0, 0
13, 0, 0, 0
14, 0, 0, 0
15, 0, 0, 0
16, 0, 0, 0
17, 0, 0, 0
18, 0, 0, 0
19, 0, 0, 0
20, 0, 0, 0
21, 0, 0, 0
22, 0, 0, 0
23, 0, 0, 0
24, 0, 0, 0
25, 0, 0, 0
26, 0, 0, 0
27, 0, 0, 0
28, 0, 0, 0
29, 0, 0, 0
30, 0, 0, 0
31, 0, 0, 0
32, 0, 0, 0
33, 0, 0, 0
34, 0, 0, 0
35, 0, 0, 0
36, 0, 0, 0
37, 0, 0, 0
38, 0, 0, 0
39, 0, 0, 0
40, 0, 0, 0
41, 0, 0, 0
42, 0, 0, 0
43, 0, 0, 0
44, 0, 0, 0
45, 0, 0, 0
46, 0, 0, 0
47, 0, 0, 0
48, 0, 0, 0
49, 0, 0, 0
50, 0, 0, 0
51, 0, 0, 0
52, 0, 0, 0
53, 0, 0, 0
54, 0, 0, 0
55, 0, 0, 0
56, 0, 0, 0
57, 0, 0, 0
58, 0, 0, 0
59, 0, 0, 0
60, 0, 0, 0
61, 0, 0, 0
62, 0, 0, 0
63, 0, 0, 0
64, 0, 0, 0
65, 0, 0, 0
66, 0, 0, 0
67, 0, 0, 0
68, 0, 0, 0
69, 0, 0, 0
70, 0, 0, 0
71, 0, 0, 0
72, 0, 0, 0
73, 0, 0, 0
74, 0, 0, 0
75, 0, 0, 0
76, 0, 0, 0
77, 0, 0, 0
78, 0, 0, 0
79, 0, 0, 0
80, 0, 0, 0
81, 0, 0, 0
82, 0, 0, 0
83, 0, 0, 0
84, 0, 0, 0
85, 0, 0, 0
86, 0, 0, 0
87, 0, 0, 0
88, 0, 0, 0
89, 0, 0, 0
90, 0, 0, 0
91, 0, 0, 0
92, 0, 0, 0
93, 0, 0, 0
94, 0, 0, 0
95, 0, 0, 0
96, 0, 0, 0
97, 0, 0, 0
98, 0, 0, 0
99, 0, 0, 0
100, 0, 0, 0
101, 0, 0, 0
102, 0, 0, 0
103, 0, 0, 0
104, 0, 0, 0
105, 0, 0, 0
106, 0, 0, 0
107, 0, 0, 0
108, 0, 0, 0
109, 0, 0, 0
110, 0, 0, 0
111, 0, 0, 0.001974085345864296
112, 0, 0, 0
113, 0, 0, 0
114, 0, 0, 0.0002734897716436535
115, 0, 0, 0
116, 0, 0, 21.40157318115234
117, 0, 0, 228.9327697753906
118, 0, 0, 759.175048828125
119, 0, 0, 1887.445556640625
120, 0, 0, 3405.123291015625
121, 0, 0, 4513.7265625
122, 0, 0, 5117.416015625
123, 0, 0, 4862.7255859375
124, 0, 0, 4358.2724609375
125, 0, 0, 3785.935791015625
126, 0, 0, 3405.260986328125
127, 0, 0, 3094.625732421875
128, 0, 0, 2873.449462890625
129, 0, 0, 2690.900390625
130, 0, 0, 2543.1591796875
131, 0, 0, 2427.829833984375
132, 0, 0, 2322.326416015625
133, 0, 0, 2237.357177734375
134, 0, 0, 2164.9736328125
135, 0, 0, 2091.8271484375
136, 0, 0, 2023.95556640625
137, 0, 0, 1974.752807617188
138, 0, 0, 1916.992065429688
139, 0, 0, 1878.473510742188
140, 0, 0, 1829.916870117188
141, 0, 0, 1791.494262695312
142, 0, 0, 1757.36572265625
143, 0, 0, 1717.775634765625
144, 0, 0, 1689.373046875
145, 0, 0, 1653.2568359375
146, 0, 0, 1630.296630859375
147, 0, 0, 1603.366821289062
148, 0, 0, 1575.970092773438
149, 0, 0, 1548.755249023438
150, 0, 0, 1524.857055664062
151, 0, 0, 1508.910766601562
152, 0, 0, 1484.13671875
153, 0, 0, 1458.199462890625
154, 0, 0, 1443.386352539062
155, 0, 0, 1423.966064453125
156, 0, 0, 1410.488159179688
157, 0, 0, 1401.504638671875
158, 0, 0, 1378.714599609375
159, 0, 0, 1362.754760742188
160, 0, 0, 1352.001831054688
161, 0, 0, 1332.487915039062
162, 0, 0, 1321.381103515625
163, 0, 0, 1309.622802734375
164, 0, 0, 1293.727294921875
165, 0, 0, 1273.629760742188
166, 0, 0, 1266.262084960938
167, 0, 0, 1272.01904296875
168, 0, 0, 1247.408569335938
169, 0, 0, 1239.083374023438
170, 0, 0, 1225.045166015625
171, 0, 0, 1212.936767578125
172, 0, 0, 1210.45751953125
173, 0, 0, 1190.69384765625
174, 0, 0, 1183.211547851562
175, 0, 0, 1173.734985351562
176, 0, 0, 1170.960327148438
177, 0, 0, 1162.488403320312
178, 0, 0, 1150.251831054688
179, 0, 0, 1138.995727539062
