# TOPAS Version: 3.3.p1
# Parameter File: Test.txt
# Results for scorer MLIC_Scorer
# Scored in component: MLIC
# X in 180 bins of 0.177778 cm
# Y in 1 bin  of 10 cm
# Z in 1 bin  of 10 cm
# EnergyDeposit ( MeV ) : Sum   
0, 0, 0, 0
1, 0, 0, 0
2, 0, 0, 0
3, 0, 0, 0
4, 0, 0, 0
5, 0, 0, 0
6, 0, 0, 0
7, 0, 0, 0
8, 0, 0, 0
9, 0, 0, 0
10, 0, 0, 0
11, 0, 0, 0
12, 0, 0, 0
13, 0, 0, 0
14, 0, 0, 0
15, 0, 0, 0
16, 0, 0, 0
17, 0, 0, 0
18, 0, 0, 0
19, 0, 0, 0
20, 0, 0, 0
21, 0, 0, 0
22, 0, 0, 0
23, 0, 0, 0
24, 0, 0, 0
25, 0, 0, 0
26, 0, 0, 0
27, 0, 0, 0
28, 0, 0, 0
29, 0, 0, 0
30, 0, 0, 0
31, 0, 0, 0
32, 0, 0, 0
33, 0, 0, 0
34, 0, 0, 0
35, 0, 0, 0
36, 0, 0, 0
37, 0, 0, 0
38, 0, 0, 0
39, 0, 0, 0
40, 0, 0, 0
41, 0, 0, 0
42, 0, 0, 0
43, 0, 0, 0
44, 0, 0, 0
45, 0, 0, 0
46, 0, 0, 0
47, 0, 0, 0
48, 0, 0, 0
49, 0, 0, 0.00411632563918829
50, 0, 0, 0
51, 0, 0, 0
52, 0, 0, 0
53, 0, 0, 0
54, 0, 0, 0
55, 0, 0, 0
56, 0, 0, 0.0006662281812168658
57, 0, 0, 0
58, 0, 0, 0
59, 0, 0, 0
60, 0, 0, 0
61, 0, 0, 0
62, 0, 0, 0
63, 0, 0, 0
64, 0, 0, 0
65, 0, 0, 0
66, 0, 0, 0
67, 0, 0, 0
68, 0, 0, 0
69, 0, 0, 0
70, 0, 0, 0
71, 0, 0, 0
72, 0, 0, 0.001266358653083444
73, 0, 0, 0
74, 0, 0, 0.02545821666717529
75, 0, 0, 0
76, 0, 0, 0
77, 0, 0, 18.84187889099121
78, 0, 0, 53.88810729980469
79, 0, 0, 127.7198333740234
80, 0, 0, 449.379638671875
81, 0, 0, 1242.299438476562
82, 0, 0, 2512.941162109375
83, 0, 0, 3742.864990234375
84, 0, 0, 4695.06689453125
85, 0, 0, 5208.1455078125
86, 0, 0, 4663.5078125
87, 0, 0, 4111.34716796875
88, 0, 0, 3615.006103515625
89, 0, 0, 3242.588134765625
90, 0, 0, 2975.71728515625
91, 0, 0, 2794.67041015625
92, 0, 0, 2650.1328125
93, 0, 0, 2507.990966796875
94, 0, 0, 2393.475341796875
95, 0, 0, 2282.73291015625
96, 0, 0, 2200.35888671875
97, 0, 0, 2128.444091796875
98, 0, 0, 2059.40966796875
99, 0, 0, 2003.929321289062
100, 0, 0, 1945.807250976562
101, 0, 0, 1902.791015625
102, 0, 0, 1857.818237304688
103, 0, 0, 1819.606689453125
104, 0, 0, 1774.679565429688
105, 0, 0, 1742.015380859375
106, 0, 0, 1705.950073242188
107, 0, 0, 1675.0107421875
108, 0, 0, 1646.379028320312
109, 0, 0, 1608.651245117188
110, 0, 0, 1586.1015625
111, 0, 0, 1559.900146484375
112, 0, 0, 1546.0439453125
113, 0, 0, 1513.68408203125
114, 0, 0, 1492.170654296875
115, 0, 0, 1475.004272460938
116, 0, 0, 1459.343872070312
117, 0, 0, 1439.492919921875
118, 0, 0, 1416.336303710938
119, 0, 0, 1412.236206054688
120, 0, 0, 1389.814697265625
121, 0, 0, 1368.535766601562
122, 0, 0, 1351.924072265625
123, 0, 0, 1345.22265625
124, 0, 0, 1327.815673828125
125, 0, 0, 1313.842041015625
126, 0, 0, 1299.73291015625
127, 0, 0, 1282.178833007812
128, 0, 0, 1273.675659179688
129, 0, 0, 1274.011108398438
130, 0, 0, 1255.154296875
131, 0, 0, 1237.514770507812
132, 0, 0, 1234.39892578125
133, 0, 0, 1226.098510742188
134, 0, 0, 1207.041381835938
135, 0, 0, 1197.74169921875
136, 0, 0, 1183.210571289062
137, 0, 0, 1183.568115234375
138, 0, 0, 1171.181518554688
139, 0, 0, 1160.304565429688
140, 0, 0, 1158.5322265625
141, 0, 0, 1151.021850585938
142, 0, 0, 1140.561889648438
143, 0, 0, 1129.919067382812
144, 0, 0, 1124.079956054688
145, 0, 0, 1112.053100585938
146, 0, 0, 1107.483764648438
147, 0, 0, 1101.319213867188
148, 0, 0, 1096.384765625
149, 0, 0, 1089.669555664062
150, 0, 0, 1078.884521484375
151, 0, 0, 1069.590576171875
152, 0, 0, 1068.156372070312
153, 0, 0, 1067.3974609375
154, 0, 0, 1048.64697265625
155, 0, 0, 1047.738159179688
156, 0, 0, 1044.97998046875
157, 0, 0, 1032.087646484375
158, 0, 0, 1043.355590820312
159, 0, 0, 1023.436340332031
160, 0, 0, 1020.863708496094
161, 0, 0, 1024.966430664062
162, 0, 0, 1015.854553222656
163, 0, 0, 1008.025207519531
164, 0, 0, 1001.755859375
165, 0, 0, 997.5083618164062
166, 0, 0, 991.8728637695312
167, 0, 0, 990.369140625
168, 0, 0, 980.5155639648438
169, 0, 0, 976.1250610351562
170, 0, 0, 977.6016235351562
171, 0, 0, 972.7003173828125
172, 0, 0, 965.9345703125
173, 0, 0, 966.2299194335938
174, 0, 0, 953.0746459960938
175, 0, 0, 951.079345703125
176, 0, 0, 948.5429077148438
177, 0, 0, 944.9938354492188
178, 0, 0, 944.7748413085938
179, 0, 0, 939.1759643554688
