# TOPAS Version: 3.3.p1
# Parameter File: Test.txt
# Results for scorer MLIC_Scorer
# Scored in component: MLIC
# X in 165 bins of 0.2 cm
# Y in 1 bin  of 10 cm
# Z in 1 bin  of 10 cm
# EnergyDeposit ( MeV ) : Sum   
0, 0, 0, 0
1, 0, 0, 0
2, 0, 0, 0
3, 0, 0, 0
4, 0, 0, 0
5, 0, 0, 0
6, 0, 0, 0
7, 0, 0, 0.002796626649796963
8, 0, 0, 0
9, 0, 0, 0
10, 0, 0, 0
11, 0, 0, 0.0003391129139345139
12, 0, 0, 0
13, 0, 0, 0
14, 0, 0, 0
15, 0, 0, 0
16, 0, 0, 0
17, 0, 0, 0
18, 0, 0, 0
19, 0, 0, 0
20, 0, 0, 0
21, 0, 0, 8.414222717285156
22, 0, 0, 7.811058044433594
23, 0, 0, 29.8830623626709
24, 0, 0, 159.1182556152344
25, 0, 0, 524.876708984375
26, 0, 0, 1380.225708007812
27, 0, 0, 2985.05810546875
28, 0, 0, 4666.181640625
29, 0, 0, 5301.50537109375
30, 0, 0, 5428.9306640625
31, 0, 0, 4878.64013671875
32, 0, 0, 4176.08740234375
33, 0, 0, 3724.752685546875
34, 0, 0, 3416.14404296875
35, 0, 0, 3136.457275390625
36, 0, 0, 2930.133056640625
37, 0, 0, 2758.567626953125
38, 0, 0, 2626.754638671875
39, 0, 0, 2522.85791015625
40, 0, 0, 2423.42919921875
41, 0, 0, 2330.84912109375
42, 0, 0, 2264.200439453125
43, 0, 0, 2184.685791015625
44, 0, 0, 2122.75927734375
45, 0, 0, 2070.09228515625
46, 0, 0, 2015.915649414062
47, 0, 0, 1968.89794921875
48, 0, 0, 1923.724609375
49, 0, 0, 1882.735229492188
50, 0, 0, 1844.838989257812
51, 0, 0, 1811.398681640625
52, 0, 0, 1772.782958984375
53, 0, 0, 1750.572143554688
54, 0, 0, 1717.5615234375
55, 0, 0, 1691.460083007812
56, 0, 0, 1674.636596679688
57, 0, 0, 1645.15380859375
58, 0, 0, 1626.14697265625
59, 0, 0, 1599.97412109375
60, 0, 0, 1578.170532226562
61, 0, 0, 1554.98486328125
62, 0, 0, 1531.895874023438
63, 0, 0, 1515.464599609375
64, 0, 0, 1500.155029296875
65, 0, 0, 1478.35498046875
66, 0, 0, 1462.819091796875
67, 0, 0, 1451.647705078125
68, 0, 0, 1431.5146484375
69, 0, 0, 1413.339477539062
70, 0, 0, 1406.638671875
71, 0, 0, 1388.436645507812
72, 0, 0, 1377.277587890625
73, 0, 0, 1365.88916015625
74, 0, 0, 1348.943969726562
75, 0, 0, 1333.98388671875
76, 0, 0, 1334.408081054688
77, 0, 0, 1322.729736328125
78, 0, 0, 1307.1806640625
79, 0, 0, 1299.123901367188
80, 0, 0, 1277.62646484375
81, 0, 0, 1273.944580078125
82, 0, 0, 1265.118408203125
83, 0, 0, 1249.109741210938
84, 0, 0, 1235.972412109375
85, 0, 0, 1235.202270507812
86, 0, 0, 1233.840698242188
87, 0, 0, 1221.466064453125
88, 0, 0, 1211.14599609375
89, 0, 0, 1202.26708984375
90, 0, 0, 1195.865112304688
91, 0, 0, 1190.303100585938
92, 0, 0, 1182.873168945312
93, 0, 0, 1170.024780273438
94, 0, 0, 1157.326782226562
95, 0, 0, 1159.678100585938
96, 0, 0, 1151.415649414062
97, 0, 0, 1141.998168945312
98, 0, 0, 1139.799072265625
99, 0, 0, 1134.615478515625
100, 0, 0, 1126.764404296875
101, 0, 0, 1122.03759765625
102, 0, 0, 1109.985229492188
103, 0, 0, 1104.953247070312
104, 0, 0, 1099.73828125
105, 0, 0, 1099.534301757812
106, 0, 0, 1088.907348632812
107, 0, 0, 1082.556640625
108, 0, 0, 1077.037841796875
109, 0, 0, 1075.589965820312
110, 0, 0, 1075.184448242188
111, 0, 0, 1055.649047851562
112, 0, 0, 1061.53369140625
113, 0, 0, 1055.678344726562
114, 0, 0, 1042.856689453125
115, 0, 0, 1051.013549804688
116, 0, 0, 1038.668579101562
117, 0, 0, 1031.945190429688
118, 0, 0, 1024.786254882812
119, 0, 0, 1026.712036132812
120, 0, 0, 1028.103149414062
121, 0, 0, 1018.722351074219
122, 0, 0, 1009.594055175781
123, 0, 0, 1009.290710449219
124, 0, 0, 1008.848876953125
125, 0, 0, 1006.734436035156
126, 0, 0, 1002.037536621094
127, 0, 0, 1002.431091308594
128, 0, 0, 995.04052734375
129, 0, 0, 980.2716064453125
130, 0, 0, 975.9699096679688
131, 0, 0, 974.5453491210938
132, 0, 0, 973.3611450195312
133, 0, 0, 970.9117431640625
134, 0, 0, 965.971923828125
135, 0, 0, 968.0233764648438
136, 0, 0, 960.2051391601562
137, 0, 0, 965.0615844726562
138, 0, 0, 955.2344970703125
139, 0, 0, 942.8002319335938
140, 0, 0, 940.0264892578125
141, 0, 0, 944.9625244140625
142, 0, 0, 939.1663818359375
143, 0, 0, 934.9931030273438
144, 0, 0, 929.8446655273438
145, 0, 0, 927.6580810546875
146, 0, 0, 920.388916015625
147, 0, 0, 927.8582763671875
148, 0, 0, 916.41796875
149, 0, 0, 923.4864501953125
150, 0, 0, 924.4325561523438
151, 0, 0, 911.7706298828125
152, 0, 0, 910.6535034179688
153, 0, 0, 906.4533081054688
154, 0, 0, 900.9891967773438
155, 0, 0, 897.4833374023438
156, 0, 0, 905.6399536132812
157, 0, 0, 898.1538696289062
158, 0, 0, 885.8042602539062
159, 0, 0, 891.1454467773438
160, 0, 0, 891.629638671875
161, 0, 0, 892.9188232421875
162, 0, 0, 884.7816162109375
163, 0, 0, 874.4143676757812
164, 0, 0, 883.8584594726562
