# TOPAS Version: 3.3.p1
# Parameter File: Test.txt
# Results for scorer MLIC_Scorer
# Scored in component: MLIC
# X in 180 bins of 0.177778 cm
# Y in 1 bin  of 10 cm
# Z in 1 bin  of 10 cm
# EnergyDeposit ( MeV ) : Sum   
0, 0, 0, 0
1, 0, 0, 0
2, 0, 0, 0
3, 0, 0, 0
4, 0, 0, 0
5, 0, 0, 0
6, 0, 0, 0
7, 0, 0, 0
8, 0, 0, 0.03592237457633018
9, 0, 0, 0
10, 0, 0, 0
11, 0, 0, 0
12, 0, 0, 0
13, 0, 0, 0
14, 0, 0, 0
15, 0, 0, 0
16, 0, 0, 0
17, 0, 0, 0
18, 0, 0, 0
19, 0, 0, 3.784959316253662
20, 0, 0, 9.287888526916504
21, 0, 0, 5.621099948883057
22, 0, 0, 43.16306686401367
23, 0, 0, 226.1385040283203
24, 0, 0, 558.8292236328125
25, 0, 0, 1415.389526367188
26, 0, 0, 2977.27978515625
27, 0, 0, 4397.556640625
28, 0, 0, 5107.009765625
29, 0, 0, 4910.328125
30, 0, 0, 4426.458984375
31, 0, 0, 3909.388916015625
32, 0, 0, 3513.156982421875
33, 0, 0, 3169.6923828125
34, 0, 0, 2921.343505859375
35, 0, 0, 2734.8154296875
36, 0, 0, 2587.408447265625
37, 0, 0, 2459.647216796875
38, 0, 0, 2355.43505859375
39, 0, 0, 2257.779296875
40, 0, 0, 2184.64111328125
41, 0, 0, 2107.439453125
42, 0, 0, 2037.88037109375
43, 0, 0, 1989.197143554688
44, 0, 0, 1924.704223632812
45, 0, 0, 1886.822387695312
46, 0, 0, 1835.820068359375
47, 0, 0, 1801.613403320312
48, 0, 0, 1762.55078125
49, 0, 0, 1728.778076171875
50, 0, 0, 1694.498413085938
51, 0, 0, 1661.855834960938
52, 0, 0, 1634.607177734375
53, 0, 0, 1609.329711914062
54, 0, 0, 1580.870849609375
55, 0, 0, 1556.868408203125
56, 0, 0, 1532.774780273438
57, 0, 0, 1507.13916015625
58, 0, 0, 1490.223754882812
59, 0, 0, 1472.518676757812
60, 0, 0, 1447.231689453125
61, 0, 0, 1430.55322265625
62, 0, 0, 1411.532592773438
63, 0, 0, 1393.036743164062
64, 0, 0, 1376.962280273438
65, 0, 0, 1362.857421875
66, 0, 0, 1352.897216796875
67, 0, 0, 1339.864990234375
68, 0, 0, 1321.977172851562
69, 0, 0, 1312.11328125
70, 0, 0, 1291.540649414062
71, 0, 0, 1280.181884765625
72, 0, 0, 1273.55126953125
73, 0, 0, 1265.443725585938
74, 0, 0, 1246.557250976562
75, 0, 0, 1236.716064453125
76, 0, 0, 1229.916748046875
77, 0, 0, 1215.7685546875
78, 0, 0, 1212.26220703125
79, 0, 0, 1200.706665039062
80, 0, 0, 1186.037475585938
81, 0, 0, 1170.635498046875
82, 0, 0, 1166.79833984375
83, 0, 0, 1159.3466796875
84, 0, 0, 1154.890258789062
85, 0, 0, 1136.848876953125
86, 0, 0, 1133.554931640625
87, 0, 0, 1126.142333984375
88, 0, 0, 1115.963500976562
89, 0, 0, 1107.246826171875
90, 0, 0, 1100.73388671875
91, 0, 0, 1100.362915039062
92, 0, 0, 1097.667236328125
93, 0, 0, 1081.85400390625
94, 0, 0, 1074.496948242188
95, 0, 0, 1071.024291992188
96, 0, 0, 1064.52734375
97, 0, 0, 1062.2353515625
98, 0, 0, 1055.818237304688
99, 0, 0, 1046.737060546875
100, 0, 0, 1037.783203125
101, 0, 0, 1034.533203125
102, 0, 0, 1036.961791992188
103, 0, 0, 1033.529296875
104, 0, 0, 1015.853515625
105, 0, 0, 1021.92822265625
106, 0, 0, 1017.112426757812
107, 0, 0, 999.0294189453125
108, 0, 0, 996.93408203125
109, 0, 0, 994.171630859375
110, 0, 0, 985.2399291992188
111, 0, 0, 989.4258422851562
112, 0, 0, 978.3145751953125
113, 0, 0, 975.760986328125
114, 0, 0, 970.812255859375
115, 0, 0, 966.6390991210938
116, 0, 0, 958.3298950195312
117, 0, 0, 956.6202392578125
118, 0, 0, 954.013427734375
119, 0, 0, 951.670166015625
120, 0, 0, 942.3987426757812
121, 0, 0, 945.4286499023438
122, 0, 0, 943.2009887695312
123, 0, 0, 937.2494506835938
124, 0, 0, 942.3528442382812
125, 0, 0, 929.5330810546875
126, 0, 0, 925.4747924804688
127, 0, 0, 924.6143188476562
128, 0, 0, 913.965576171875
129, 0, 0, 917.3353271484375
130, 0, 0, 907.1219482421875
131, 0, 0, 900.54931640625
132, 0, 0, 899.738525390625
133, 0, 0, 905.5546264648438
134, 0, 0, 893.6172485351562
135, 0, 0, 890.4717407226562
136, 0, 0, 891.3856201171875
137, 0, 0, 889.9301147460938
138, 0, 0, 884.2619018554688
139, 0, 0, 881.1925048828125
140, 0, 0, 880.8657836914062
141, 0, 0, 875.0385131835938
142, 0, 0, 867.2272338867188
143, 0, 0, 869.9468994140625
144, 0, 0, 870.5912475585938
145, 0, 0, 866.9551391601562
146, 0, 0, 871.2417602539062
147, 0, 0, 848.9022216796875
148, 0, 0, 856.3619995117188
149, 0, 0, 856.7948608398438
150, 0, 0, 851.0851440429688
151, 0, 0, 852.8489379882812
152, 0, 0, 838.1454467773438
153, 0, 0, 845.1388549804688
154, 0, 0, 846.9891967773438
155, 0, 0, 836.981689453125
156, 0, 0, 839.0382080078125
157, 0, 0, 837.8139038085938
158, 0, 0, 831.65625
159, 0, 0, 830.1714477539062
160, 0, 0, 828.1622314453125
161, 0, 0, 819.7908935546875
162, 0, 0, 817.4132690429688
163, 0, 0, 830.2940063476562
164, 0, 0, 817.0967407226562
165, 0, 0, 819.5537109375
166, 0, 0, 807.2017822265625
167, 0, 0, 819.3511352539062
168, 0, 0, 813.673828125
169, 0, 0, 807.1726684570312
170, 0, 0, 804.5916748046875
171, 0, 0, 799.6754760742188
172, 0, 0, 793.3519287109375
173, 0, 0, 791.84912109375
174, 0, 0, 794.9144287109375
175, 0, 0, 781.34228515625
176, 0, 0, 793.0012817382812
177, 0, 0, 787.1061401367188
178, 0, 0, 792.428466796875
179, 0, 0, 784.915283203125
