# TOPAS Version: 3.3.p1
# Parameter File: Test.txt
# Results for scorer MLIC_Scorer
# Scored in component: MLIC
# X in 180 bins of 0.177778 cm
# Y in 1 bin  of 10 cm
# Z in 1 bin  of 10 cm
# EnergyDeposit ( MeV ) : Sum   
0, 0, 0, 0
1, 0, 0, 0
2, 0, 0, 0
3, 0, 0, 0
4, 0, 0, 0.002323753433302045
5, 0, 0, 0
6, 0, 0, 0
7, 0, 0, 0
8, 0, 0, 0
9, 0, 0, 1.467725157737732
10, 0, 0, 10.94237327575684
11, 0, 0, 23.04025077819824
12, 0, 0, 53.89886856079102
13, 0, 0, 170.6075286865234
14, 0, 0, 605.3389892578125
15, 0, 0, 1268.715087890625
16, 0, 0, 2857.198974609375
17, 0, 0, 4126.29248046875
18, 0, 0, 4983.70556640625
19, 0, 0, 5027.701171875
20, 0, 0, 4516.56396484375
21, 0, 0, 4019.208251953125
22, 0, 0, 3537.4541015625
23, 0, 0, 3179.4072265625
24, 0, 0, 2935.588134765625
25, 0, 0, 2748.6806640625
26, 0, 0, 2587.357177734375
27, 0, 0, 2469.153564453125
28, 0, 0, 2360.440673828125
29, 0, 0, 2268.9140625
30, 0, 0, 2188.1806640625
31, 0, 0, 2109.052001953125
32, 0, 0, 2048.212646484375
33, 0, 0, 1986.262817382812
34, 0, 0, 1933.300048828125
35, 0, 0, 1893.201293945312
36, 0, 0, 1846.019897460938
37, 0, 0, 1801.290771484375
38, 0, 0, 1770.231811523438
39, 0, 0, 1726.156372070312
40, 0, 0, 1697.850341796875
41, 0, 0, 1664.350708007812
42, 0, 0, 1638.162475585938
43, 0, 0, 1615.61083984375
44, 0, 0, 1579.547607421875
45, 0, 0, 1559.786499023438
46, 0, 0, 1536.114990234375
47, 0, 0, 1509.770751953125
48, 0, 0, 1494.639404296875
49, 0, 0, 1469.865112304688
50, 0, 0, 1453.357543945312
51, 0, 0, 1431.383911132812
52, 0, 0, 1416.535766601562
53, 0, 0, 1399.540405273438
54, 0, 0, 1382.024169921875
55, 0, 0, 1371.344970703125
56, 0, 0, 1353.182861328125
57, 0, 0, 1338.470703125
58, 0, 0, 1324.96630859375
59, 0, 0, 1314.679931640625
60, 0, 0, 1298.0546875
61, 0, 0, 1288.943725585938
62, 0, 0, 1270.358764648438
63, 0, 0, 1267.235961914062
64, 0, 0, 1256.879760742188
65, 0, 0, 1241.76416015625
66, 0, 0, 1229.17138671875
67, 0, 0, 1217.02587890625
68, 0, 0, 1207.370849609375
69, 0, 0, 1196.041137695312
70, 0, 0, 1187.96826171875
71, 0, 0, 1174.978881835938
72, 0, 0, 1169.182006835938
73, 0, 0, 1153.015625
74, 0, 0, 1152.023681640625
75, 0, 0, 1145.2177734375
76, 0, 0, 1136.38720703125
77, 0, 0, 1130.177978515625
78, 0, 0, 1117.568481445312
79, 0, 0, 1115.360595703125
80, 0, 0, 1111.77587890625
81, 0, 0, 1102.048095703125
82, 0, 0, 1095.915649414062
83, 0, 0, 1093.302368164062
84, 0, 0, 1079.107788085938
85, 0, 0, 1067.395385742188
86, 0, 0, 1064.1953125
87, 0, 0, 1056.965698242188
88, 0, 0, 1055.240844726562
89, 0, 0, 1054.1748046875
90, 0, 0, 1052.5185546875
91, 0, 0, 1030.389770507812
92, 0, 0, 1031.669067382812
93, 0, 0, 1022.66015625
94, 0, 0, 1021.032165527344
95, 0, 0, 1013.030883789062
96, 0, 0, 1003.996032714844
97, 0, 0, 1004.307861328125
98, 0, 0, 1004.486572265625
99, 0, 0, 996.5200805664062
100, 0, 0, 989.1426391601562
101, 0, 0, 983.2427978515625
102, 0, 0, 978.501708984375
103, 0, 0, 976.4864501953125
104, 0, 0, 971.7825317382812
105, 0, 0, 966.4213256835938
106, 0, 0, 959.8974609375
107, 0, 0, 952.206787109375
108, 0, 0, 960.1085815429688
109, 0, 0, 951.18212890625
110, 0, 0, 947.232177734375
111, 0, 0, 946.63037109375
112, 0, 0, 939.1082763671875
113, 0, 0, 932.8786010742188
114, 0, 0, 930.333251953125
115, 0, 0, 930.1989135742188
116, 0, 0, 929.4456176757812
117, 0, 0, 916.6453857421875
118, 0, 0, 920.2023315429688
119, 0, 0, 910.5107421875
120, 0, 0, 910.9876098632812
121, 0, 0, 909.228271484375
122, 0, 0, 904.5107421875
123, 0, 0, 898.2789916992188
124, 0, 0, 899.86376953125
125, 0, 0, 891.4039306640625
126, 0, 0, 887.433837890625
127, 0, 0, 882.6875610351562
128, 0, 0, 888.8716430664062
129, 0, 0, 882.443603515625
130, 0, 0, 882.3569946289062
131, 0, 0, 873.09619140625
132, 0, 0, 866.9044189453125
133, 0, 0, 869.5379638671875
134, 0, 0, 863.7726440429688
135, 0, 0, 864.8726196289062
136, 0, 0, 862.908447265625
137, 0, 0, 853.3889770507812
138, 0, 0, 855.7610473632812
139, 0, 0, 860.2679443359375
140, 0, 0, 850.3675537109375
141, 0, 0, 848.7339477539062
142, 0, 0, 856.8701782226562
143, 0, 0, 837.5248413085938
144, 0, 0, 834.6676635742188
145, 0, 0, 839.67138671875
146, 0, 0, 829.8054809570312
147, 0, 0, 838.1841430664062
148, 0, 0, 830.6681518554688
149, 0, 0, 825.5593872070312
150, 0, 0, 820.7749633789062
151, 0, 0, 819.8139038085938
152, 0, 0, 819.84375
153, 0, 0, 821.7120361328125
154, 0, 0, 818.9617309570312
155, 0, 0, 816.4520874023438
156, 0, 0, 812.0491943359375
157, 0, 0, 810.508056640625
158, 0, 0, 802.2918701171875
159, 0, 0, 810.4296264648438
160, 0, 0, 804.2572021484375
161, 0, 0, 802.0767211914062
162, 0, 0, 803.9893188476562
163, 0, 0, 801.0658569335938
164, 0, 0, 797.6246337890625
165, 0, 0, 791.5422973632812
166, 0, 0, 801.5093383789062
167, 0, 0, 788.0595092773438
168, 0, 0, 782.3294677734375
169, 0, 0, 791.6710205078125
170, 0, 0, 781.0006103515625
171, 0, 0, 777.6692504882812
172, 0, 0, 779.3373413085938
173, 0, 0, 781.3587036132812
174, 0, 0, 772.3460693359375
175, 0, 0, 771.1513671875
176, 0, 0, 762.7122192382812
177, 0, 0, 772.9056396484375
178, 0, 0, 768.3268432617188
179, 0, 0, 767.7740478515625
