# TOPAS Version: 3.3.p1
# Parameter File: Test.txt
# Results for scorer MLIC_Scorer
# Scored in component: MLIC
# X in 180 bins of 0.177778 cm
# Y in 1 bin  of 10 cm
# Z in 1 bin  of 10 cm
# EnergyDeposit ( MeV ) : Sum   
0, 0, 0, 0
1, 0, 0, 0
2, 0, 0, 0
3, 0, 0, 0
4, 0, 0, 0
5, 0, 0, 0
6, 0, 0, 0
7, 0, 0, 0
8, 0, 0, 0
9, 0, 0, 0
10, 0, 0, 0
11, 0, 0, 0
12, 0, 0, 0
13, 0, 0, 0
14, 0, 0, 0
15, 0, 0, 0
16, 0, 0, 0
17, 0, 0, 0
18, 0, 0, 0
19, 0, 0, 0
20, 0, 0, 0
21, 0, 0, 0
22, 0, 0, 0
23, 0, 0, 0
24, 0, 0, 0
25, 0, 0, 0.001949890051037073
26, 0, 0, 0
27, 0, 0, 0
28, 0, 0, 0
29, 0, 0, 0
30, 0, 0, 0
31, 0, 0, 0
32, 0, 0, 0
33, 0, 0, 0
34, 0, 0, 0
35, 0, 0, 0
36, 0, 0, 0
37, 0, 0, 0
38, 0, 0, 0
39, 0, 0, 0
40, 0, 0, 0
41, 0, 0, 0
42, 0, 0, 19.64280891418457
43, 0, 0, 46.82506561279297
44, 0, 0, 152.9051361083984
45, 0, 0, 395.7383422851562
46, 0, 0, 1251.859741210938
47, 0, 0, 2549.124267578125
48, 0, 0, 4061.0380859375
49, 0, 0, 4825.27978515625
50, 0, 0, 5237.19140625
51, 0, 0, 4690.36376953125
52, 0, 0, 4012.52490234375
53, 0, 0, 3572.980224609375
54, 0, 0, 3212.83349609375
55, 0, 0, 2940.673583984375
56, 0, 0, 2760.379150390625
57, 0, 0, 2606.275634765625
58, 0, 0, 2473.092529296875
59, 0, 0, 2364.903564453125
60, 0, 0, 2277.451171875
61, 0, 0, 2198.4208984375
62, 0, 0, 2115.263671875
63, 0, 0, 2069.8671875
64, 0, 0, 1997.429565429688
65, 0, 0, 1946.934936523438
66, 0, 0, 1894.429565429688
67, 0, 0, 1848.886474609375
68, 0, 0, 1813.405517578125
69, 0, 0, 1768.58203125
70, 0, 0, 1746.620239257812
71, 0, 0, 1697.144165039062
72, 0, 0, 1671.487548828125
73, 0, 0, 1639.138793945312
74, 0, 0, 1615.357421875
75, 0, 0, 1591.460815429688
76, 0, 0, 1569.031616210938
77, 0, 0, 1536.951538085938
78, 0, 0, 1512.153198242188
79, 0, 0, 1492.187133789062
80, 0, 0, 1471.483276367188
81, 0, 0, 1464.004760742188
82, 0, 0, 1429.161987304688
83, 0, 0, 1419.461791992188
84, 0, 0, 1406.025390625
85, 0, 0, 1378.94873046875
86, 0, 0, 1369.08642578125
87, 0, 0, 1356.232055664062
88, 0, 0, 1338.817504882812
89, 0, 0, 1330.736938476562
90, 0, 0, 1306.28369140625
91, 0, 0, 1298.646606445312
92, 0, 0, 1284.837524414062
93, 0, 0, 1274.513916015625
94, 0, 0, 1268.639038085938
95, 0, 0, 1251.298095703125
96, 0, 0, 1241.357421875
97, 0, 0, 1232.555541992188
98, 0, 0, 1226.56689453125
99, 0, 0, 1212.363403320312
100, 0, 0, 1197.781127929688
101, 0, 0, 1187.381713867188
102, 0, 0, 1185.633666992188
103, 0, 0, 1168.249633789062
104, 0, 0, 1156.798828125
105, 0, 0, 1154.366577148438
106, 0, 0, 1144.017822265625
107, 0, 0, 1140.23291015625
108, 0, 0, 1129.221557617188
109, 0, 0, 1127.76025390625
110, 0, 0, 1116.900756835938
111, 0, 0, 1105.751220703125
112, 0, 0, 1099.811157226562
113, 0, 0, 1091.278442382812
114, 0, 0, 1083.864501953125
115, 0, 0, 1084.195068359375
116, 0, 0, 1072.766357421875
117, 0, 0, 1067.438720703125
118, 0, 0, 1061.137817382812
119, 0, 0, 1053.27978515625
120, 0, 0, 1049.464599609375
121, 0, 0, 1045.004028320312
122, 0, 0, 1045.274291992188
123, 0, 0, 1023.96728515625
124, 0, 0, 1015.522521972656
125, 0, 0, 1023.431457519531
126, 0, 0, 1018.361938476562
127, 0, 0, 1008.462768554688
128, 0, 0, 1004.537841796875
129, 0, 0, 1010.141296386719
130, 0, 0, 998.2236328125
131, 0, 0, 987.8735961914062
132, 0, 0, 989.7373657226562
133, 0, 0, 977.9048461914062
134, 0, 0, 973.6835327148438
135, 0, 0, 964.5474243164062
136, 0, 0, 967.5560913085938
137, 0, 0, 965.361083984375
138, 0, 0, 959.95361328125
139, 0, 0, 957.7498168945312
140, 0, 0, 950.4404907226562
141, 0, 0, 944.4285278320312
142, 0, 0, 945.078125
143, 0, 0, 938.22216796875
144, 0, 0, 933.9276123046875
145, 0, 0, 948.7623901367188
146, 0, 0, 934.5379028320312
147, 0, 0, 923.3206787109375
148, 0, 0, 916.5296020507812
149, 0, 0, 922.3792114257812
150, 0, 0, 917.4334716796875
151, 0, 0, 914.0036010742188
152, 0, 0, 913.7182006835938
153, 0, 0, 900.5602416992188
154, 0, 0, 898.9833984375
155, 0, 0, 890.000732421875
156, 0, 0, 894.0970458984375
157, 0, 0, 893.1224975585938
158, 0, 0, 889.4937744140625
159, 0, 0, 885.7122802734375
160, 0, 0, 882.677734375
161, 0, 0, 870.3887939453125
162, 0, 0, 874.0399169921875
163, 0, 0, 873.1476440429688
164, 0, 0, 867.9321899414062
165, 0, 0, 864.9380493164062
166, 0, 0, 862.3278198242188
167, 0, 0, 863.812744140625
168, 0, 0, 853.1753540039062
169, 0, 0, 855.8265991210938
170, 0, 0, 852.1630859375
171, 0, 0, 846.043212890625
172, 0, 0, 841.4494018554688
173, 0, 0, 841.3868408203125
174, 0, 0, 843.36083984375
175, 0, 0, 832.1594848632812
176, 0, 0, 833.643310546875
177, 0, 0, 826.7388305664062
178, 0, 0, 828.1844482421875
179, 0, 0, 832.1636352539062
