# TOPAS Version: 3.3.p1
# Parameter File: Test.txt
# Results for scorer MLIC_Scorer
# Scored in component: MLIC
# X in 165 bins of 0.2 cm
# Y in 1 bin  of 10 cm
# Z in 1 bin  of 10 cm
# EnergyDeposit ( MeV ) : Sum   
0, 0, 0, 0
1, 0, 0, 0
2, 0, 0, 0
3, 0, 0, 0
4, 0, 0, 0
5, 0, 0, 0
6, 0, 0, 0
7, 0, 0, 0
8, 0, 0, 0
9, 0, 0, 0
10, 0, 0, 0
11, 0, 0, 0
12, 0, 0, 0
13, 0, 0, 0.00992857851088047
14, 0, 0, 0
15, 0, 0, 0
16, 0, 0, 0
17, 0, 0, 0
18, 0, 0, 0
19, 0, 0, 0
20, 0, 0, 0
21, 0, 0, 0
22, 0, 0, 0
23, 0, 0, 0
24, 0, 0, 0
25, 0, 0, 0.07675298303365707
26, 0, 0, 0
27, 0, 0, 0
28, 0, 0, 0
29, 0, 0, 0
30, 0, 0, 0
31, 0, 0, 0
32, 0, 0, 0.007529238238930702
33, 0, 0, 0
34, 0, 0, 21.27536964416504
35, 0, 0, 40.36406326293945
36, 0, 0, 179.0953521728516
37, 0, 0, 636.9574584960938
38, 0, 0, 1657.169921875
39, 0, 0, 2862.421875
40, 0, 0, 4382.99560546875
41, 0, 0, 5138.6767578125
42, 0, 0, 5318.70068359375
43, 0, 0, 5001.39013671875
44, 0, 0, 4252.78173828125
45, 0, 0, 3756.2861328125
46, 0, 0, 3392.347900390625
47, 0, 0, 3142.022216796875
48, 0, 0, 2937.361572265625
49, 0, 0, 2774.803466796875
50, 0, 0, 2643.984375
51, 0, 0, 2531.3173828125
52, 0, 0, 2425.4921875
53, 0, 0, 2339.307861328125
54, 0, 0, 2254.6015625
55, 0, 0, 2195.239501953125
56, 0, 0, 2129.111328125
57, 0, 0, 2075.890380859375
58, 0, 0, 2022.904663085938
59, 0, 0, 1971.751708984375
60, 0, 0, 1929.110717773438
61, 0, 0, 1896.349731445312
62, 0, 0, 1858.554077148438
63, 0, 0, 1815.438842773438
64, 0, 0, 1779.79345703125
65, 0, 0, 1746.46533203125
66, 0, 0, 1720.485961914062
67, 0, 0, 1687.769165039062
68, 0, 0, 1667.344604492188
69, 0, 0, 1642.995849609375
70, 0, 0, 1618.743896484375
71, 0, 0, 1590.970336914062
72, 0, 0, 1572.46923828125
73, 0, 0, 1553.960693359375
74, 0, 0, 1535.664306640625
75, 0, 0, 1520.565673828125
76, 0, 0, 1493.208984375
77, 0, 0, 1481.252807617188
78, 0, 0, 1472.799560546875
79, 0, 0, 1449.039306640625
80, 0, 0, 1435.483520507812
81, 0, 0, 1427.138671875
82, 0, 0, 1402.572387695312
83, 0, 0, 1392.101684570312
84, 0, 0, 1368.511474609375
85, 0, 0, 1359.469482421875
86, 0, 0, 1349.902221679688
87, 0, 0, 1341.732421875
88, 0, 0, 1327.206909179688
89, 0, 0, 1320.759155273438
90, 0, 0, 1301.685913085938
91, 0, 0, 1294.41455078125
92, 0, 0, 1284.641235351562
93, 0, 0, 1280.309326171875
94, 0, 0, 1261.11328125
95, 0, 0, 1243.687255859375
96, 0, 0, 1244.519653320312
97, 0, 0, 1233.44921875
98, 0, 0, 1227.827514648438
99, 0, 0, 1219.577026367188
100, 0, 0, 1216.656616210938
101, 0, 0, 1205.23291015625
102, 0, 0, 1192.640869140625
103, 0, 0, 1191.314208984375
104, 0, 0, 1172.336791992188
105, 0, 0, 1171.153076171875
106, 0, 0, 1175.982543945312
107, 0, 0, 1154.672729492188
108, 0, 0, 1150.244140625
109, 0, 0, 1150.313720703125
110, 0, 0, 1135.411010742188
111, 0, 0, 1127.800659179688
112, 0, 0, 1125.247314453125
113, 0, 0, 1113.245483398438
114, 0, 0, 1110.745849609375
115, 0, 0, 1095.87109375
116, 0, 0, 1102.874633789062
117, 0, 0, 1095.242309570312
118, 0, 0, 1090.137939453125
119, 0, 0, 1085.352661132812
120, 0, 0, 1073.720947265625
121, 0, 0, 1076.434204101562
122, 0, 0, 1076.97216796875
123, 0, 0, 1064.482055664062
124, 0, 0, 1062.013793945312
125, 0, 0, 1051.108276367188
126, 0, 0, 1050.47119140625
127, 0, 0, 1037.799072265625
128, 0, 0, 1036.726318359375
129, 0, 0, 1034.972045898438
130, 0, 0, 1030.240600585938
131, 0, 0, 1031.374389648438
132, 0, 0, 1016.817504882812
133, 0, 0, 1012.947570800781
134, 0, 0, 1015.921691894531
135, 0, 0, 1005.29931640625
136, 0, 0, 998.6810913085938
137, 0, 0, 1007.16845703125
138, 0, 0, 993.7818603515625
139, 0, 0, 995.3812866210938
140, 0, 0, 990.676025390625
141, 0, 0, 981.186279296875
142, 0, 0, 983.2744750976562
143, 0, 0, 981.0885620117188
144, 0, 0, 984.7055053710938
145, 0, 0, 974.2658081054688
146, 0, 0, 966.837890625
147, 0, 0, 966.7333374023438
148, 0, 0, 957.1158447265625
149, 0, 0, 950.6620483398438
150, 0, 0, 953.7684326171875
151, 0, 0, 938.0077514648438
152, 0, 0, 945.082275390625
153, 0, 0, 942.2086791992188
154, 0, 0, 945.6888427734375
155, 0, 0, 938.4340209960938
156, 0, 0, 936.465087890625
157, 0, 0, 927.6078491210938
158, 0, 0, 923.657958984375
159, 0, 0, 931.0725708007812
160, 0, 0, 931.260986328125
161, 0, 0, 913.64404296875
162, 0, 0, 918.9953002929688
163, 0, 0, 908.4537963867188
164, 0, 0, 913.51220703125
