# TOPAS Version: 3.3.p1
# Parameter File: Test.txt
# Results for scorer MLIC_Scorer
# Scored in component: MLIC
# X in 180 bins of 0.177778 cm
# Y in 1 bin  of 10 cm
# Z in 1 bin  of 10 cm
# EnergyDeposit ( MeV ) : Sum   
0, 0, 0, 0
1, 0, 0, 0
2, 0, 0, 0
3, 0, 0, 0
4, 0, 0, 0
5, 0, 0, 0
6, 0, 0, 0
7, 0, 0, 0
8, 0, 0, 0
9, 0, 0, 0
10, 0, 0, 0
11, 0, 0, 0
12, 0, 0, 0
13, 0, 0, 0
14, 0, 0, 0
15, 0, 0, 0
16, 0, 0, 0
17, 0, 0, 0
18, 0, 0, 0
19, 0, 0, 0
20, 0, 0, 0
21, 0, 0, 0
22, 0, 0, 0
23, 0, 0, 0
24, 0, 0, 0
25, 0, 0, 0
26, 0, 0, 0
27, 0, 0, 0
28, 0, 0, 0
29, 0, 0, 0
30, 0, 0, 0
31, 0, 0, 0
32, 0, 0, 0
33, 0, 0, 0
34, 0, 0, 0
35, 0, 0, 0
36, 0, 0, 0
37, 0, 0, 0
38, 0, 0, 0
39, 0, 0, 0
40, 0, 0, 0
41, 0, 0, 0
42, 0, 0, 0
43, 0, 0, 0
44, 0, 0, 0
45, 0, 0, 0
46, 0, 0, 0
47, 0, 0, 0
48, 0, 0, 0
49, 0, 0, 0
50, 0, 0, 0
51, 0, 0, 0
52, 0, 0, 0
53, 0, 0, 0
54, 0, 0, 0
55, 0, 0, 0
56, 0, 0, 0
57, 0, 0, 0
58, 0, 0, 0
59, 0, 0, 0
60, 0, 0, 0
61, 0, 0, 0
62, 0, 0, 0
63, 0, 0, 0
64, 0, 0, 0
65, 0, 0, 0
66, 0, 0, 0
67, 0, 0, 0
68, 0, 0, 0
69, 0, 0, 0
70, 0, 0, 0
71, 0, 0, 0
72, 0, 0, 0
73, 0, 0, 0
74, 0, 0, 0
75, 0, 0, 0
76, 0, 0, 0
77, 0, 0, 0
78, 0, 0, 0
79, 0, 0, 0
80, 0, 0, 0
81, 0, 0, 0
82, 0, 0, 0
83, 0, 0, 0
84, 0, 0, 0
85, 0, 0, 0
86, 0, 0, 0
87, 0, 0, 0
88, 0, 0, 0
89, 0, 0, 0
90, 0, 0, 0
91, 0, 0, 0
92, 0, 0, 0
93, 0, 0, 0
94, 0, 0, 0
95, 0, 0, 0
96, 0, 0, 0
97, 0, 0, 0
98, 0, 0, 0
99, 0, 0, 0
100, 0, 0, 0
101, 0, 0, 0
102, 0, 0, 0
103, 0, 0, 0
104, 0, 0, 0
105, 0, 0, 0
106, 0, 0, 0
107, 0, 0, 0
108, 0, 0, 0
109, 0, 0, 0
110, 0, 0, 0
111, 0, 0, 0
112, 0, 0, 0
113, 0, 0, 0
114, 0, 0, 0
115, 0, 0, 0
116, 0, 0, 0
117, 0, 0, 0
118, 0, 0, 0
119, 0, 0, 0
120, 0, 0, 0
121, 0, 0, 0
122, 0, 0, 0
123, 0, 0, 0
124, 0, 0, 0
125, 0, 0, 0
126, 0, 0, 0
127, 0, 0, 0
128, 0, 0, 0
129, 0, 0, 0
130, 0, 0, 0
131, 0, 0, 0
132, 0, 0, 0
133, 0, 0, 6.280205249786377
134, 0, 0, 30.47002601623535
135, 0, 0, 116.0148162841797
136, 0, 0, 371.8709716796875
137, 0, 0, 999.62060546875
138, 0, 0, 2084.939208984375
139, 0, 0, 3552.06201171875
140, 0, 0, 4920.806640625
141, 0, 0, 5113.34326171875
142, 0, 0, 4748.19873046875
143, 0, 0, 4248.4814453125
144, 0, 0, 3677.440185546875
145, 0, 0, 3293.363037109375
146, 0, 0, 3038.12353515625
147, 0, 0, 2822.034423828125
148, 0, 0, 2645.56298828125
149, 0, 0, 2514.780517578125
150, 0, 0, 2402.2890625
151, 0, 0, 2308.0322265625
152, 0, 0, 2220.521728515625
153, 0, 0, 2141.143798828125
154, 0, 0, 2083.36474609375
155, 0, 0, 2014.441040039062
156, 0, 0, 1952.705444335938
157, 0, 0, 1901.685424804688
158, 0, 0, 1858.26416015625
159, 0, 0, 1812.463745117188
160, 0, 0, 1784.013671875
161, 0, 0, 1745.57421875
162, 0, 0, 1717.697143554688
163, 0, 0, 1668.553344726562
164, 0, 0, 1649.47900390625
165, 0, 0, 1622.670288085938
166, 0, 0, 1595.211547851562
167, 0, 0, 1570.496337890625
168, 0, 0, 1545.155517578125
169, 0, 0, 1518.44921875
170, 0, 0, 1498.941772460938
171, 0, 0, 1469.102905273438
172, 0, 0, 1463.272583007812
173, 0, 0, 1443.406860351562
174, 0, 0, 1415.833862304688
175, 0, 0, 1410.558959960938
176, 0, 0, 1390.640014648438
177, 0, 0, 1368.237915039062
178, 0, 0, 1351.881958007812
179, 0, 0, 1340.638305664062
