# TOPAS Version: 3.3.p1
# Parameter File: Test.txt
# Results for scorer MLIC_Scorer
# Scored in component: MLIC
# X in 180 bins of 0.177778 cm
# Y in 1 bin  of 10 cm
# Z in 1 bin  of 10 cm
# EnergyDeposit ( MeV ) : Sum   
0, 0, 0, 0
1, 0, 0, 0
2, 0, 0, 0
3, 0, 0, 0
4, 0, 0, 0
5, 0, 0, 0.008944439701735973
6, 0, 0, 0
7, 0, 0, 0
8, 0, 0, 0
9, 0, 0, 0
10, 0, 0, 0
11, 0, 0, 0
12, 0, 0, 0
13, 0, 0, 0
14, 0, 0, 0
15, 0, 0, 0
16, 0, 0, 0
17, 0, 0, 0
18, 0, 0, 0
19, 0, 0, 0.002089826622977853
20, 0, 0, 0
21, 0, 0, 0
22, 0, 0, 0
23, 0, 0, 0
24, 0, 0, 0
25, 0, 0, 0
26, 0, 0, 0
27, 0, 0, 0.01758552342653275
28, 0, 0, 0
29, 0, 0, 0
30, 0, 0, 0
31, 0, 0, 0
32, 0, 0, 0.03085578233003616
33, 0, 0, 40.995849609375
34, 0, 0, 125.0936965942383
35, 0, 0, 534.6434326171875
36, 0, 0, 1344.637451171875
37, 0, 0, 2540.968017578125
38, 0, 0, 3891.56494140625
39, 0, 0, 4679.126953125
40, 0, 0, 5024.25634765625
41, 0, 0, 4702.1591796875
42, 0, 0, 4065.919921875
43, 0, 0, 3605.340087890625
44, 0, 0, 3251.885009765625
45, 0, 0, 2982.117431640625
46, 0, 0, 2779.39208984375
47, 0, 0, 2623.73388671875
48, 0, 0, 2493.81201171875
49, 0, 0, 2376.76171875
50, 0, 0, 2296.5458984375
51, 0, 0, 2203.45166015625
52, 0, 0, 2132.2587890625
53, 0, 0, 2061.321533203125
54, 0, 0, 2004.702880859375
55, 0, 0, 1946.494262695312
56, 0, 0, 1903.164184570312
57, 0, 0, 1847.759399414062
58, 0, 0, 1806.0341796875
59, 0, 0, 1776.033203125
60, 0, 0, 1738.361938476562
61, 0, 0, 1700.93701171875
62, 0, 0, 1666.594604492188
63, 0, 0, 1639.536376953125
64, 0, 0, 1614.208862304688
65, 0, 0, 1588.698120117188
66, 0, 0, 1556.142456054688
67, 0, 0, 1545.049926757812
68, 0, 0, 1515.966186523438
69, 0, 0, 1494.544067382812
70, 0, 0, 1480.131103515625
71, 0, 0, 1453.456176757812
72, 0, 0, 1437.89794921875
73, 0, 0, 1430.112548828125
74, 0, 0, 1404.62255859375
75, 0, 0, 1381.547485351562
76, 0, 0, 1365.271606445312
77, 0, 0, 1360.59716796875
78, 0, 0, 1341.076293945312
79, 0, 0, 1324.784912109375
80, 0, 0, 1311.695068359375
81, 0, 0, 1295.596313476562
82, 0, 0, 1283.447509765625
83, 0, 0, 1271.960327148438
84, 0, 0, 1255.23095703125
85, 0, 0, 1252.733032226562
86, 0, 0, 1240.460693359375
87, 0, 0, 1228.62646484375
88, 0, 0, 1221.578857421875
89, 0, 0, 1209.176635742188
90, 0, 0, 1196.469848632812
91, 0, 0, 1186.849853515625
92, 0, 0, 1180.624145507812
93, 0, 0, 1177.984985351562
94, 0, 0, 1158.594604492188
95, 0, 0, 1153.641967773438
96, 0, 0, 1143.064697265625
97, 0, 0, 1142.855834960938
98, 0, 0, 1118.9765625
99, 0, 0, 1117.093505859375
100, 0, 0, 1117.833251953125
101, 0, 0, 1105.047729492188
102, 0, 0, 1097.190185546875
103, 0, 0, 1094.382568359375
104, 0, 0, 1088.810180664062
105, 0, 0, 1086.212524414062
106, 0, 0, 1071.113647460938
107, 0, 0, 1074.818725585938
108, 0, 0, 1060.7568359375
109, 0, 0, 1058.332153320312
110, 0, 0, 1049.894897460938
111, 0, 0, 1036.763427734375
112, 0, 0, 1034.767822265625
113, 0, 0, 1035.638427734375
114, 0, 0, 1027.713623046875
115, 0, 0, 1016.444213867188
116, 0, 0, 1010.340515136719
117, 0, 0, 1019.715270996094
118, 0, 0, 1006.061706542969
119, 0, 0, 1003.375366210938
120, 0, 0, 997.4656372070312
121, 0, 0, 994.3494873046875
122, 0, 0, 990.2891845703125
123, 0, 0, 986.5725708007812
124, 0, 0, 977.2505493164062
125, 0, 0, 972.1007690429688
126, 0, 0, 961.197265625
127, 0, 0, 965.017578125
128, 0, 0, 960.753173828125
129, 0, 0, 957.7581787109375
130, 0, 0, 955.2667846679688
131, 0, 0, 951.862060546875
132, 0, 0, 943.9161987304688
133, 0, 0, 938.6069946289062
134, 0, 0, 935.8821411132812
135, 0, 0, 926.1639404296875
136, 0, 0, 933.2888793945312
137, 0, 0, 924.4628295898438
138, 0, 0, 920.00634765625
139, 0, 0, 925.0057373046875
140, 0, 0, 910.8860473632812
141, 0, 0, 906.8699340820312
142, 0, 0, 897.2564086914062
143, 0, 0, 901.7559204101562
144, 0, 0, 903.2445068359375
145, 0, 0, 896.7064208984375
146, 0, 0, 890.7933959960938
147, 0, 0, 888.6578369140625
148, 0, 0, 882.505859375
149, 0, 0, 886.3017578125
150, 0, 0, 887.946044921875
151, 0, 0, 886.6572265625
152, 0, 0, 887.9512329101562
153, 0, 0, 871.8656005859375
154, 0, 0, 865.137451171875
155, 0, 0, 869.7429809570312
156, 0, 0, 867.0155639648438
157, 0, 0, 864.6237182617188
158, 0, 0, 863.0164184570312
159, 0, 0, 856.0565795898438
160, 0, 0, 850.5547485351562
161, 0, 0, 851.1674194335938
162, 0, 0, 855.240966796875
163, 0, 0, 850.61083984375
164, 0, 0, 840.197998046875
165, 0, 0, 839.1721801757812
166, 0, 0, 835.2898559570312
167, 0, 0, 830.4540405273438
168, 0, 0, 829.6250610351562
169, 0, 0, 843.235595703125
170, 0, 0, 828.1228637695312
171, 0, 0, 817.9923095703125
172, 0, 0, 826.6865844726562
173, 0, 0, 817.4237060546875
174, 0, 0, 816.1876831054688
175, 0, 0, 814.3320922851562
176, 0, 0, 807.8856811523438
177, 0, 0, 814.79736328125
178, 0, 0, 811.6079711914062
179, 0, 0, 809.9031982421875
