# TOPAS Version: 3.3.p1
# Parameter File: Test.txt
# Results for scorer MLIC_Scorer
# Scored in component: MLIC
# X in 180 bins of 0.183333 cm
# Y in 1 bin  of 10 cm
# Z in 1 bin  of 10 cm
# EnergyDeposit ( MeV ) : Sum   
0, 0, 0, 0
1, 0, 0, 0
2, 0, 0, 0
3, 0, 0, 0.02013017982244492
4, 0, 0, 0
5, 0, 0, 0
6, 0, 0, 0
7, 0, 0, 0
8, 0, 0, 0
9, 0, 0, 0
10, 0, 0, 0
11, 0, 0, 0
12, 0, 0, 31.21600723266602
13, 0, 0, 78.19759368896484
14, 0, 0, 258.3001403808594
15, 0, 0, 701.4144287109375
16, 0, 0, 1906.37548828125
17, 0, 0, 3489.87060546875
18, 0, 0, 4639.279296875
19, 0, 0, 5169.32568359375
20, 0, 0, 4910.00390625
21, 0, 0, 4417.61083984375
22, 0, 0, 3876.84130859375
23, 0, 0, 3450.37158203125
24, 0, 0, 3152.183349609375
25, 0, 0, 2907.172119140625
26, 0, 0, 2728.908203125
27, 0, 0, 2597.194580078125
28, 0, 0, 2469.49169921875
29, 0, 0, 2371.619384765625
30, 0, 0, 2280.530029296875
31, 0, 0, 2193.324951171875
32, 0, 0, 2128.56005859375
33, 0, 0, 2065.056884765625
34, 0, 0, 2005.045654296875
35, 0, 0, 1948.345581054688
36, 0, 0, 1915.237915039062
37, 0, 0, 1859.752807617188
38, 0, 0, 1820.203735351562
39, 0, 0, 1784.594848632812
40, 0, 0, 1746.6484375
41, 0, 0, 1717.898559570312
42, 0, 0, 1685.41064453125
43, 0, 0, 1656.327270507812
44, 0, 0, 1627.042724609375
45, 0, 0, 1597.442260742188
46, 0, 0, 1576.919311523438
47, 0, 0, 1559.024780273438
48, 0, 0, 1532.884399414062
49, 0, 0, 1514.268310546875
50, 0, 0, 1493.318115234375
51, 0, 0, 1468.991821289062
52, 0, 0, 1452.95458984375
53, 0, 0, 1438.667846679688
54, 0, 0, 1418.276977539062
55, 0, 0, 1400.397583007812
56, 0, 0, 1388.139892578125
57, 0, 0, 1369.592651367188
58, 0, 0, 1354.606201171875
59, 0, 0, 1345.896362304688
60, 0, 0, 1323.37890625
61, 0, 0, 1311.58544921875
62, 0, 0, 1305.44384765625
63, 0, 0, 1296.919555664062
64, 0, 0, 1278.729614257812
65, 0, 0, 1264.924682617188
66, 0, 0, 1260.16845703125
67, 0, 0, 1245.797607421875
68, 0, 0, 1236.092407226562
69, 0, 0, 1224.869506835938
70, 0, 0, 1208.718139648438
71, 0, 0, 1206.444213867188
72, 0, 0, 1198.666625976562
73, 0, 0, 1194.783813476562
74, 0, 0, 1182.59521484375
75, 0, 0, 1180.438842773438
76, 0, 0, 1157.090209960938
77, 0, 0, 1149.267211914062
78, 0, 0, 1144.778076171875
79, 0, 0, 1140.526733398438
80, 0, 0, 1138.571899414062
81, 0, 0, 1128.276733398438
82, 0, 0, 1118.081665039062
83, 0, 0, 1111.319213867188
84, 0, 0, 1104.3818359375
85, 0, 0, 1090.254272460938
86, 0, 0, 1088.006591796875
87, 0, 0, 1086.155029296875
88, 0, 0, 1078.838256835938
89, 0, 0, 1068.76416015625
90, 0, 0, 1068.760131835938
91, 0, 0, 1062.521118164062
92, 0, 0, 1058.966064453125
93, 0, 0, 1046.223999023438
94, 0, 0, 1042.876953125
95, 0, 0, 1042.89892578125
96, 0, 0, 1034.33056640625
97, 0, 0, 1028.67041015625
98, 0, 0, 1027.1552734375
99, 0, 0, 1018.572021484375
100, 0, 0, 1016.395080566406
101, 0, 0, 1010.302490234375
102, 0, 0, 998.7449951171875
103, 0, 0, 1001.358764648438
104, 0, 0, 994.6967163085938
105, 0, 0, 988.5531616210938
106, 0, 0, 982.5117797851562
107, 0, 0, 985.0730590820312
108, 0, 0, 979.3717651367188
109, 0, 0, 971.8217163085938
110, 0, 0, 961.297119140625
111, 0, 0, 964.0217895507812
112, 0, 0, 955.26904296875
113, 0, 0, 954.48974609375
114, 0, 0, 961.863037109375
115, 0, 0, 950.6439208984375
116, 0, 0, 947.8849487304688
117, 0, 0, 945.8998413085938
118, 0, 0, 936.02099609375
119, 0, 0, 933.5890502929688
120, 0, 0, 939.00146484375
121, 0, 0, 925.5354614257812
122, 0, 0, 925.5130615234375
123, 0, 0, 924.9894409179688
124, 0, 0, 912.5228881835938
125, 0, 0, 904.1431884765625
126, 0, 0, 906.99755859375
127, 0, 0, 908.23583984375
128, 0, 0, 901.294677734375
129, 0, 0, 895.3948364257812
130, 0, 0, 898.6909790039062
131, 0, 0, 895.824951171875
132, 0, 0, 895.5626220703125
133, 0, 0, 890.110595703125
134, 0, 0, 888.7454833984375
135, 0, 0, 877.8260498046875
136, 0, 0, 877.4901123046875
137, 0, 0, 885.4716186523438
138, 0, 0, 876.8419189453125
139, 0, 0, 869.8578491210938
140, 0, 0, 868.9818115234375
141, 0, 0, 867.939453125
142, 0, 0, 865.315185546875
143, 0, 0, 852.6614379882812
144, 0, 0, 851.0888061523438
145, 0, 0, 850.58203125
146, 0, 0, 849.94970703125
147, 0, 0, 844.9034423828125
148, 0, 0, 842.0466918945312
149, 0, 0, 848.2111206054688
150, 0, 0, 843.459716796875
151, 0, 0, 840.5040893554688
152, 0, 0, 836.8591918945312
153, 0, 0, 833.6041870117188
154, 0, 0, 832.8945922851562
155, 0, 0, 839.4690551757812
156, 0, 0, 832.2501220703125
157, 0, 0, 828.0416259765625
158, 0, 0, 824.1746215820312
159, 0, 0, 825.2603759765625
160, 0, 0, 818.9815673828125
161, 0, 0, 813.176025390625
162, 0, 0, 813.628662109375
163, 0, 0, 809.0737915039062
164, 0, 0, 810.4617309570312
165, 0, 0, 806.225341796875
166, 0, 0, 812.9887084960938
167, 0, 0, 802.447265625
168, 0, 0, 805.8267211914062
169, 0, 0, 798.31494140625
170, 0, 0, 798.2271118164062
171, 0, 0, 792.712158203125
172, 0, 0, 796.097900390625
173, 0, 0, 788.407470703125
174, 0, 0, 789.2453002929688
175, 0, 0, 795.0023803710938
176, 0, 0, 788.2433471679688
177, 0, 0, 789.2658081054688
178, 0, 0, 787.2578735351562
179, 0, 0, 787.9810791015625
