# TOPAS Version: 3.3.p1
# Parameter File: Test.txt
# Results for scorer MLIC_Scorer
# Scored in component: MLIC
# X in 180 bins of 0.177778 cm
# Y in 1 bin  of 10 cm
# Z in 1 bin  of 10 cm
# EnergyDeposit ( MeV ) : Sum   
0, 0, 0, 0
1, 0, 0, 0
2, 0, 0, 0
3, 0, 0, 0
4, 0, 0, 0
5, 0, 0, 0
6, 0, 0, 0
7, 0, 0, 0
8, 0, 0, 0
9, 0, 0, 0
10, 0, 0, 0
11, 0, 0, 0
12, 0, 0, 0
13, 0, 0, 0
14, 0, 0, 0
15, 0, 0, 0
16, 0, 0, 0
17, 0, 0, 0
18, 0, 0, 0
19, 0, 0, 0
20, 0, 0, 0
21, 0, 0, 0
22, 0, 0, 0
23, 0, 0, 0
24, 0, 0, 0
25, 0, 0, 0
26, 0, 0, 0
27, 0, 0, 0
28, 0, 0, 0
29, 0, 0, 0
30, 0, 0, 0
31, 0, 0, 0
32, 0, 0, 0
33, 0, 0, 0
34, 0, 0, 0
35, 0, 0, 0
36, 0, 0, 0
37, 0, 0, 0
38, 0, 0, 0
39, 0, 0, 0
40, 0, 0, 0
41, 0, 0, 0
42, 0, 0, 0
43, 0, 0, 0
44, 0, 0, 0.001278851996175945
45, 0, 0, 0
46, 0, 0, 0
47, 0, 0, 0
48, 0, 0, 0
49, 0, 0, 0
50, 0, 0, 0
51, 0, 0, 0
52, 0, 0, 0
53, 0, 0, 0
54, 0, 0, 0
55, 0, 0, 0
56, 0, 0, 0
57, 0, 0, 0
58, 0, 0, 0
59, 0, 0, 0
60, 0, 0, 0
61, 0, 0, 0
62, 0, 0, 0
63, 0, 0, 0
64, 0, 0, 0
65, 0, 0, 0
66, 0, 0, 0.04537178948521614
67, 0, 0, 0.004947061650454998
68, 0, 0, 0
69, 0, 0, 0
70, 0, 0, 0
71, 0, 0, 0
72, 0, 0, 0
73, 0, 0, 16.51566696166992
74, 0, 0, 76.46208190917969
75, 0, 0, 540.3583984375
76, 0, 0, 1275.640014648438
77, 0, 0, 2436.910888671875
78, 0, 0, 3739.194091796875
79, 0, 0, 4929.35302734375
80, 0, 0, 5156.6083984375
81, 0, 0, 4514.48193359375
82, 0, 0, 4183.24609375
83, 0, 0, 3653.249755859375
84, 0, 0, 3238.622802734375
85, 0, 0, 2984.39794921875
86, 0, 0, 2780.564208984375
87, 0, 0, 2626.2275390625
88, 0, 0, 2486.612548828125
89, 0, 0, 2386.113525390625
90, 0, 0, 2290.804931640625
91, 0, 0, 2205.75439453125
92, 0, 0, 2122.488037109375
93, 0, 0, 2057.7568359375
94, 0, 0, 2009.566650390625
95, 0, 0, 1945.483154296875
96, 0, 0, 1904.10546875
97, 0, 0, 1850.039916992188
98, 0, 0, 1809.910034179688
99, 0, 0, 1772.729614257812
100, 0, 0, 1735.408081054688
101, 0, 0, 1700.418579101562
102, 0, 0, 1674.97412109375
103, 0, 0, 1642.331665039062
104, 0, 0, 1609.73681640625
105, 0, 0, 1588.515380859375
106, 0, 0, 1559.078125
107, 0, 0, 1542.3828125
108, 0, 0, 1513.233642578125
109, 0, 0, 1496.252197265625
110, 0, 0, 1483.821655273438
111, 0, 0, 1455.177001953125
112, 0, 0, 1436.321411132812
113, 0, 0, 1416.124877929688
114, 0, 0, 1405.779907226562
115, 0, 0, 1389.550415039062
116, 0, 0, 1378.703491210938
117, 0, 0, 1358.927734375
118, 0, 0, 1344.440307617188
119, 0, 0, 1325.011962890625
120, 0, 0, 1323.562255859375
121, 0, 0, 1301.346069335938
122, 0, 0, 1280.855346679688
123, 0, 0, 1280.89794921875
124, 0, 0, 1265.53466796875
125, 0, 0, 1256.460083007812
126, 0, 0, 1237.456176757812
127, 0, 0, 1234.393432617188
128, 0, 0, 1211.29052734375
129, 0, 0, 1206.5517578125
130, 0, 0, 1200.380981445312
131, 0, 0, 1184.73486328125
132, 0, 0, 1181.196411132812
133, 0, 0, 1174.505249023438
134, 0, 0, 1160.425537109375
135, 0, 0, 1155.74658203125
136, 0, 0, 1145.991821289062
137, 0, 0, 1137.743408203125
138, 0, 0, 1131.65478515625
139, 0, 0, 1121.472900390625
140, 0, 0, 1119.56982421875
141, 0, 0, 1103.6044921875
142, 0, 0, 1104.000366210938
143, 0, 0, 1087.1435546875
144, 0, 0, 1093.518432617188
145, 0, 0, 1083.97607421875
146, 0, 0, 1078.094482421875
147, 0, 0, 1068.213623046875
148, 0, 0, 1062.477905273438
149, 0, 0, 1051.735595703125
150, 0, 0, 1045.433349609375
151, 0, 0, 1042.442626953125
152, 0, 0, 1039.340087890625
153, 0, 0, 1036.521118164062
154, 0, 0, 1030.351684570312
155, 0, 0, 1030.873413085938
156, 0, 0, 1019.03173828125
157, 0, 0, 1009.618591308594
158, 0, 0, 1004.479187011719
159, 0, 0, 997.1031494140625
160, 0, 0, 996.8276977539062
161, 0, 0, 1000.251220703125
162, 0, 0, 987.5596313476562
163, 0, 0, 981.7630615234375
164, 0, 0, 972.6609497070312
165, 0, 0, 970.3426513671875
166, 0, 0, 971.491455078125
167, 0, 0, 956.6915893554688
168, 0, 0, 963.16357421875
169, 0, 0, 954.9425659179688
170, 0, 0, 951.689208984375
171, 0, 0, 950.139892578125
172, 0, 0, 943.46728515625
173, 0, 0, 938.0803833007812
174, 0, 0, 942.6182861328125
175, 0, 0, 930.7400512695312
176, 0, 0, 920.9523315429688
177, 0, 0, 935.5083618164062
178, 0, 0, 919.4560546875
179, 0, 0, 918.3414916992188
