# TOPAS Version: 3.3.p1
# Parameter File: Test.txt
# Results for scorer MLIC_Scorer
# Scored in component: MLIC
# X in 180 bins of 0.177778 cm
# Y in 1 bin  of 10 cm
# Z in 1 bin  of 10 cm
# EnergyDeposit ( MeV ) : Sum   
0, 0, 0, 0
1, 0, 0, 0
2, 0, 0, 0
3, 0, 0, 10.05113220214844
4, 0, 0, 13.40182876586914
5, 0, 0, 66.45574951171875
6, 0, 0, 415.2952575683594
7, 0, 0, 1162.529541015625
8, 0, 0, 2028.846435546875
9, 0, 0, 3569.14453125
10, 0, 0, 4651.6181640625
11, 0, 0, 5046.75927734375
12, 0, 0, 4731.97265625
13, 0, 0, 4218.11279296875
14, 0, 0, 3705.49462890625
15, 0, 0, 3339.367431640625
16, 0, 0, 3050.804443359375
17, 0, 0, 2837.09423828125
18, 0, 0, 2662.176513671875
19, 0, 0, 2526.212646484375
20, 0, 0, 2411.041015625
21, 0, 0, 2306.188720703125
22, 0, 0, 2231.249755859375
23, 0, 0, 2145.29833984375
24, 0, 0, 2083.57373046875
25, 0, 0, 2017.501098632812
26, 0, 0, 1957.554565429688
27, 0, 0, 1913.189208984375
28, 0, 0, 1861.228393554688
29, 0, 0, 1823.433837890625
30, 0, 0, 1789.6826171875
31, 0, 0, 1748.070556640625
32, 0, 0, 1719.576782226562
33, 0, 0, 1678.444091796875
34, 0, 0, 1649.80322265625
35, 0, 0, 1620.215698242188
36, 0, 0, 1595.755126953125
37, 0, 0, 1577.099853515625
38, 0, 0, 1544.929809570312
39, 0, 0, 1517.114624023438
40, 0, 0, 1493.185913085938
41, 0, 0, 1483.755737304688
42, 0, 0, 1456.809814453125
43, 0, 0, 1444.748901367188
44, 0, 0, 1422.7373046875
45, 0, 0, 1415.461669921875
46, 0, 0, 1393.137939453125
47, 0, 0, 1366.282348632812
48, 0, 0, 1362.97705078125
49, 0, 0, 1341.71728515625
50, 0, 0, 1329.536743164062
51, 0, 0, 1312.75146484375
52, 0, 0, 1298.29150390625
53, 0, 0, 1290.90771484375
54, 0, 0, 1277.251342773438
55, 0, 0, 1267.806884765625
56, 0, 0, 1256.885131835938
57, 0, 0, 1239.5751953125
58, 0, 0, 1233.275268554688
59, 0, 0, 1222.907348632812
60, 0, 0, 1212.2509765625
61, 0, 0, 1206.783325195312
62, 0, 0, 1193.125244140625
63, 0, 0, 1181.56689453125
64, 0, 0, 1174.37109375
65, 0, 0, 1173.187133789062
66, 0, 0, 1152.640258789062
67, 0, 0, 1153.77880859375
68, 0, 0, 1136.299682617188
69, 0, 0, 1142.121459960938
70, 0, 0, 1117.770751953125
71, 0, 0, 1117.232788085938
72, 0, 0, 1115.932006835938
73, 0, 0, 1109.507202148438
74, 0, 0, 1094.095825195312
75, 0, 0, 1093.526977539062
76, 0, 0, 1081.195068359375
77, 0, 0, 1079.022827148438
78, 0, 0, 1065.74560546875
79, 0, 0, 1066.779052734375
80, 0, 0, 1062.798583984375
81, 0, 0, 1052.807250976562
82, 0, 0, 1039.020263671875
83, 0, 0, 1040.745361328125
84, 0, 0, 1032.238037109375
85, 0, 0, 1025.309814453125
86, 0, 0, 1019.774291992188
87, 0, 0, 1019.064758300781
88, 0, 0, 1011.282592773438
89, 0, 0, 1005.003967285156
90, 0, 0, 1007.417785644531
91, 0, 0, 1001.167602539062
92, 0, 0, 989.2021484375
93, 0, 0, 986.4775390625
94, 0, 0, 985.33154296875
95, 0, 0, 985.2278442382812
96, 0, 0, 981.2161865234375
97, 0, 0, 968.912353515625
98, 0, 0, 965.9677124023438
99, 0, 0, 963.9114379882812
100, 0, 0, 958.4644165039062
101, 0, 0, 956.2384643554688
102, 0, 0, 945.1806640625
103, 0, 0, 948.4168090820312
104, 0, 0, 936.0604858398438
105, 0, 0, 937.3866577148438
106, 0, 0, 936.8074951171875
107, 0, 0, 929.5089721679688
108, 0, 0, 921.6235961914062
109, 0, 0, 920.8994140625
110, 0, 0, 924.6449584960938
111, 0, 0, 914.9132690429688
112, 0, 0, 907.9076538085938
113, 0, 0, 909.4066772460938
114, 0, 0, 907.5950317382812
115, 0, 0, 899.1647338867188
116, 0, 0, 896.308349609375
117, 0, 0, 899.6092529296875
118, 0, 0, 890.4152221679688
119, 0, 0, 887.442626953125
120, 0, 0, 887.3033447265625
121, 0, 0, 881.3116455078125
122, 0, 0, 879.8419189453125
123, 0, 0, 883.26123046875
124, 0, 0, 872.1493530273438
125, 0, 0, 867.9036865234375
126, 0, 0, 870.7786254882812
127, 0, 0, 865.62646484375
128, 0, 0, 860.6808471679688
129, 0, 0, 861.7210083007812
130, 0, 0, 856.1454467773438
131, 0, 0, 856.1547241210938
132, 0, 0, 856.1654052734375
133, 0, 0, 858.10107421875
134, 0, 0, 847.5538330078125
135, 0, 0, 839.5214233398438
136, 0, 0, 843.2078247070312
137, 0, 0, 839.9193115234375
138, 0, 0, 830.211181640625
139, 0, 0, 836.104736328125
140, 0, 0, 826.1744384765625
141, 0, 0, 830.3220825195312
142, 0, 0, 819.1907958984375
143, 0, 0, 823.4397583007812
144, 0, 0, 821.8447265625
145, 0, 0, 820.4927978515625
146, 0, 0, 820.3539428710938
147, 0, 0, 815.732666015625
148, 0, 0, 806.597412109375
149, 0, 0, 815.7762451171875
150, 0, 0, 806.8140258789062
151, 0, 0, 802.7479858398438
152, 0, 0, 808.1566772460938
153, 0, 0, 806.2069702148438
154, 0, 0, 793.5809936523438
155, 0, 0, 804.2257080078125
156, 0, 0, 791.3367919921875
157, 0, 0, 791.2282104492188
158, 0, 0, 786.0277709960938
159, 0, 0, 785.7037353515625
160, 0, 0, 786.56640625
161, 0, 0, 786.3070068359375
162, 0, 0, 782.3436889648438
163, 0, 0, 779.3690185546875
164, 0, 0, 779.4271850585938
165, 0, 0, 778.4234619140625
166, 0, 0, 779.88916015625
167, 0, 0, 775.9166870117188
168, 0, 0, 774.3594360351562
169, 0, 0, 770.2490234375
170, 0, 0, 772.8848876953125
171, 0, 0, 759.5092163085938
172, 0, 0, 768.6705932617188
173, 0, 0, 761.8658447265625
174, 0, 0, 762.1238403320312
175, 0, 0, 749.1495971679688
176, 0, 0, 753.9864501953125
177, 0, 0, 751.8865356445312
178, 0, 0, 757.6103515625
179, 0, 0, 748.1502685546875
