# TOPAS Version: 3.3.p1
# Parameter File: Test.txt
# Results for scorer MLIC_Scorer
# Scored in component: MLIC
# X in 165 bins of 0.2 cm
# Y in 1 bin  of 10 cm
# Z in 1 bin  of 10 cm
# EnergyDeposit ( MeV ) : Sum   
0, 0, 0, 0
1, 0, 0, 0
2, 0, 0, 0
3, 0, 0, 0
4, 0, 0, 0
5, 0, 0, 0.00871457252651453
6, 0, 0, 0
7, 0, 0, 0
8, 0, 0, 0
9, 0, 0, 0.0006342214765027165
10, 0, 0, 0.0002078755787806585
11, 0, 0, 0
12, 0, 0, 0
13, 0, 0, 0
14, 0, 0, 0
15, 0, 0, 0
16, 0, 0, 0
17, 0, 0, 0
18, 0, 0, 0
19, 0, 0, 0.0005179335130378604
20, 0, 0, 0
21, 0, 0, 17.06372261047363
22, 0, 0, 100.1537933349609
23, 0, 0, 519.2392578125
24, 0, 0, 1641.537719726562
25, 0, 0, 2891.207275390625
26, 0, 0, 4345.48779296875
27, 0, 0, 5435.85693359375
28, 0, 0, 5483.3076171875
29, 0, 0, 4842.23876953125
30, 0, 0, 4291.3037109375
31, 0, 0, 3753.79638671875
32, 0, 0, 3394.48779296875
33, 0, 0, 3127.77001953125
34, 0, 0, 2932.991455078125
35, 0, 0, 2772.161376953125
36, 0, 0, 2635.072265625
37, 0, 0, 2519.085693359375
38, 0, 0, 2414.76123046875
39, 0, 0, 2338.241455078125
40, 0, 0, 2266.86181640625
41, 0, 0, 2191.051025390625
42, 0, 0, 2122.5361328125
43, 0, 0, 2072.06494140625
44, 0, 0, 2021.830444335938
45, 0, 0, 1978.638549804688
46, 0, 0, 1928.037353515625
47, 0, 0, 1887.032836914062
48, 0, 0, 1852.332763671875
49, 0, 0, 1818.109130859375
50, 0, 0, 1776.44873046875
51, 0, 0, 1749.357299804688
52, 0, 0, 1712.143920898438
53, 0, 0, 1695.464111328125
54, 0, 0, 1664.478515625
55, 0, 0, 1636.711303710938
56, 0, 0, 1614.110717773438
57, 0, 0, 1595.129150390625
58, 0, 0, 1570.51318359375
59, 0, 0, 1547.371459960938
60, 0, 0, 1535.352416992188
61, 0, 0, 1519.931274414062
62, 0, 0, 1500.004760742188
63, 0, 0, 1479.244262695312
64, 0, 0, 1460.176635742188
65, 0, 0, 1444.699829101562
66, 0, 0, 1431.061401367188
67, 0, 0, 1423.1806640625
68, 0, 0, 1405.8134765625
69, 0, 0, 1390.872192382812
70, 0, 0, 1372.392456054688
71, 0, 0, 1361.487426757812
72, 0, 0, 1353.921020507812
73, 0, 0, 1332.171142578125
74, 0, 0, 1323.712524414062
75, 0, 0, 1315.408935546875
76, 0, 0, 1303.7451171875
77, 0, 0, 1295.267578125
78, 0, 0, 1281.069946289062
79, 0, 0, 1265.475219726562
80, 0, 0, 1259.99462890625
81, 0, 0, 1250.892822265625
82, 0, 0, 1240.829833984375
83, 0, 0, 1237.846069335938
84, 0, 0, 1232.794921875
85, 0, 0, 1222.452880859375
86, 0, 0, 1212.912963867188
87, 0, 0, 1208.61962890625
88, 0, 0, 1196.4287109375
89, 0, 0, 1187.552734375
90, 0, 0, 1185.79443359375
91, 0, 0, 1181.806396484375
92, 0, 0, 1156.617309570312
93, 0, 0, 1162.86962890625
94, 0, 0, 1146.465942382812
95, 0, 0, 1142.310913085938
96, 0, 0, 1141.139526367188
97, 0, 0, 1118.951293945312
98, 0, 0, 1127.63818359375
99, 0, 0, 1121.334838867188
100, 0, 0, 1113.378051757812
101, 0, 0, 1110.520629882812
102, 0, 0, 1094.699462890625
103, 0, 0, 1096.334106445312
104, 0, 0, 1096.418701171875
105, 0, 0, 1083.460815429688
106, 0, 0, 1074.042846679688
107, 0, 0, 1078.743286132812
108, 0, 0, 1069.689453125
109, 0, 0, 1059.894165039062
110, 0, 0, 1064.361328125
111, 0, 0, 1054.79248046875
112, 0, 0, 1047.9404296875
113, 0, 0, 1046.19970703125
114, 0, 0, 1036.065673828125
115, 0, 0, 1046.660034179688
116, 0, 0, 1027.373046875
117, 0, 0, 1028.084594726562
118, 0, 0, 1022.819641113281
119, 0, 0, 1018.791381835938
120, 0, 0, 1016.128601074219
121, 0, 0, 1003.715270996094
122, 0, 0, 1000.646301269531
123, 0, 0, 1007.486328125
124, 0, 0, 998.7594604492188
125, 0, 0, 992.576904296875
126, 0, 0, 986.0245971679688
127, 0, 0, 979.2578735351562
128, 0, 0, 976.1062622070312
129, 0, 0, 971.6973876953125
130, 0, 0, 974.2623291015625
131, 0, 0, 973.9694213867188
132, 0, 0, 967.6068115234375
133, 0, 0, 965.0957641601562
134, 0, 0, 951.6166381835938
135, 0, 0, 951.0010375976562
136, 0, 0, 953.9535522460938
137, 0, 0, 956.2548828125
138, 0, 0, 950.468994140625
139, 0, 0, 935.967529296875
140, 0, 0, 933.1644897460938
141, 0, 0, 936.8458862304688
142, 0, 0, 937.7186279296875
143, 0, 0, 933.177734375
144, 0, 0, 932.3676147460938
145, 0, 0, 922.6182250976562
146, 0, 0, 923.676025390625
147, 0, 0, 911.7142944335938
148, 0, 0, 921.2103881835938
149, 0, 0, 918.868408203125
150, 0, 0, 914.7432250976562
151, 0, 0, 911.09716796875
152, 0, 0, 912.0479736328125
153, 0, 0, 907.5797729492188
154, 0, 0, 905.4951171875
155, 0, 0, 896.0252685546875
156, 0, 0, 893.23095703125
157, 0, 0, 896.895263671875
158, 0, 0, 893.7874145507812
159, 0, 0, 890.33984375
160, 0, 0, 882.1441650390625
161, 0, 0, 875.6602783203125
162, 0, 0, 873.731201171875
163, 0, 0, 872.0125732421875
164, 0, 0, 870.7924194335938
