# TOPAS Version: 3.3.p1
# Parameter File: Test.txt
# Results for scorer MLIC_Scorer
# Scored in component: MLIC
# X in 180 bins of 0.177778 cm
# Y in 1 bin  of 10 cm
# Z in 1 bin  of 10 cm
# EnergyDeposit ( MeV ) : Sum   
0, 0, 0, 0
1, 0, 0, 0
2, 0, 0, 0
3, 0, 0, 0
4, 0, 0, 0
5, 0, 0, 0
6, 0, 0, 0
7, 0, 0, 0
8, 0, 0, 0
9, 0, 0, 0
10, 0, 0, 0
11, 0, 0, 0
12, 0, 0, 0
13, 0, 0, 0
14, 0, 0, 0
15, 0, 0, 0
16, 0, 0, 0
17, 0, 0, 0
18, 0, 0, 0
19, 0, 0, 0
20, 0, 0, 0
21, 0, 0, 0
22, 0, 0, 0
23, 0, 0, 0
24, 0, 0, 0
25, 0, 0, 0
26, 0, 0, 0
27, 0, 0, 0
28, 0, 0, 0
29, 0, 0, 0
30, 0, 0, 0
31, 0, 0, 0
32, 0, 0, 0
33, 0, 0, 0
34, 0, 0, 0
35, 0, 0, 0
36, 0, 0, 0
37, 0, 0, 0
38, 0, 0, 0
39, 0, 0, 0
40, 0, 0, 0
41, 0, 0, 0
42, 0, 0, 0
43, 0, 0, 0
44, 0, 0, 0
45, 0, 0, 0
46, 0, 0, 0
47, 0, 0, 0
48, 0, 0, 0
49, 0, 0, 0
50, 0, 0, 0
51, 0, 0, 0
52, 0, 0, 0
53, 0, 0, 0
54, 0, 0, 0
55, 0, 0, 0
56, 0, 0, 0
57, 0, 0, 6.004039764404297
58, 0, 0, 8.179987907409668
59, 0, 0, 39.23468780517578
60, 0, 0, 139.7002716064453
61, 0, 0, 223.2928161621094
62, 0, 0, 260.0996398925781
63, 0, 0, 343.2808837890625
64, 0, 0, 355.3275451660156
65, 0, 0, 333.7345275878906
66, 0, 0, 313.5834350585938
67, 0, 0, 277.138671875
68, 0, 0, 243.5440063476562
69, 0, 0, 223.5253601074219
70, 0, 0, 207.0976409912109
71, 0, 0, 197.8456420898438
72, 0, 0, 184.8357696533203
73, 0, 0, 178.6588745117188
74, 0, 0, 171.8339385986328
75, 0, 0, 166.9906005859375
76, 0, 0, 160.9882659912109
77, 0, 0, 154.1951141357422
78, 0, 0, 149.6158294677734
79, 0, 0, 145.668701171875
80, 0, 0, 142.4356689453125
81, 0, 0, 137.7881774902344
82, 0, 0, 134.9646606445312
83, 0, 0, 132.5017700195312
84, 0, 0, 129.7168121337891
85, 0, 0, 128.4057464599609
86, 0, 0, 125.9636535644531
87, 0, 0, 123.7042770385742
88, 0, 0, 120.1388092041016
89, 0, 0, 118.392219543457
90, 0, 0, 117.5291213989258
91, 0, 0, 117.5186538696289
92, 0, 0, 112.8137893676758
93, 0, 0, 112.3369522094727
94, 0, 0, 112.0336303710938
95, 0, 0, 108.5777053833008
96, 0, 0, 108.5243225097656
97, 0, 0, 108.5459671020508
98, 0, 0, 106.0585174560547
99, 0, 0, 105.6251602172852
100, 0, 0, 101.5307464599609
101, 0, 0, 101.8392181396484
102, 0, 0, 99.59710693359375
103, 0, 0, 100.1742324829102
104, 0, 0, 96.43932342529297
105, 0, 0, 97.00048828125
106, 0, 0, 95.43288421630859
107, 0, 0, 95.38883972167969
108, 0, 0, 92.87307739257812
109, 0, 0, 95.46581268310547
110, 0, 0, 92.79810333251953
111, 0, 0, 91.32803344726562
112, 0, 0, 92.88360595703125
113, 0, 0, 89.85796356201172
114, 0, 0, 91.00159454345703
115, 0, 0, 89.64838409423828
116, 0, 0, 89.63097381591797
117, 0, 0, 87.98323059082031
118, 0, 0, 87.23416900634766
119, 0, 0, 87.11905670166016
120, 0, 0, 87.36255645751953
121, 0, 0, 84.09683990478516
122, 0, 0, 84.54444885253906
123, 0, 0, 84.72274017333984
124, 0, 0, 83.89041900634766
125, 0, 0, 82.81925201416016
126, 0, 0, 81.01182556152344
127, 0, 0, 82.54908752441406
128, 0, 0, 81.66799926757812
129, 0, 0, 79.40833282470703
130, 0, 0, 78.9481201171875
131, 0, 0, 80.6414794921875
132, 0, 0, 80.70602416992188
133, 0, 0, 79.39034271240234
134, 0, 0, 78.93922424316406
135, 0, 0, 78.13224792480469
136, 0, 0, 75.52880859375
137, 0, 0, 79.8343505859375
138, 0, 0, 78.26393890380859
139, 0, 0, 77.15320587158203
140, 0, 0, 75.31623077392578
141, 0, 0, 75.94217681884766
142, 0, 0, 75.69927215576172
143, 0, 0, 76.21981811523438
144, 0, 0, 74.99466705322266
145, 0, 0, 74.724365234375
146, 0, 0, 73.53547668457031
147, 0, 0, 72.64962005615234
148, 0, 0, 73.72123718261719
149, 0, 0, 72.07366180419922
150, 0, 0, 74.87559509277344
151, 0, 0, 73.99368286132812
152, 0, 0, 72.78534698486328
153, 0, 0, 73.08358764648438
154, 0, 0, 72.89407348632812
155, 0, 0, 71.63797760009766
156, 0, 0, 68.89266204833984
157, 0, 0, 68.70230102539062
158, 0, 0, 69.96858215332031
159, 0, 0, 70.26975250244141
160, 0, 0, 70.31430053710938
161, 0, 0, 69.67086029052734
162, 0, 0, 69.70455932617188
163, 0, 0, 68.3253173828125
164, 0, 0, 67.18698120117188
165, 0, 0, 72.59538269042969
166, 0, 0, 67.41579437255859
167, 0, 0, 67.98403930664062
168, 0, 0, 67.19425964355469
169, 0, 0, 66.38128662109375
170, 0, 0, 68.43274688720703
171, 0, 0, 65.15876007080078
172, 0, 0, 67.41268157958984
173, 0, 0, 65.48261260986328
174, 0, 0, 68.51689910888672
175, 0, 0, 65.53173065185547
176, 0, 0, 63.49762725830078
177, 0, 0, 64.38278961181641
178, 0, 0, 63.65234375
179, 0, 0, 64.60028076171875
