# TOPAS Version: 3.3.p1
# Parameter File: Test.txt
# Results for scorer MLIC_Scorer
# Scored in component: MLIC
# X in 180 bins of 0.177778 cm
# Y in 1 bin  of 10 cm
# Z in 1 bin  of 10 cm
# EnergyDeposit ( MeV ) : Sum   
0, 0, 0, 0
1, 0, 0, 0
2, 0, 0, 0
3, 0, 0, 0
4, 0, 0, 0
5, 0, 0, 0
6, 0, 0, 0
7, 0, 0, 0
8, 0, 0, 0
9, 0, 0, 0
10, 0, 0, 0
11, 0, 0, 0
12, 0, 0, 0
13, 0, 0, 0
14, 0, 0, 0
15, 0, 0, 0
16, 0, 0, 0
17, 0, 0, 0
18, 0, 0, 0
19, 0, 0, 0
20, 0, 0, 0
21, 0, 0, 0
22, 0, 0, 0
23, 0, 0, 0
24, 0, 0, 0
25, 0, 0, 0
26, 0, 0, 0
27, 0, 0, 0
28, 0, 0, 0
29, 0, 0, 0
30, 0, 0, 0
31, 0, 0, 0
32, 0, 0, 0
33, 0, 0, 0
34, 0, 0, 0
35, 0, 0, 0
36, 0, 0, 0
37, 0, 0, 0
38, 0, 0, 0
39, 0, 0, 0
40, 0, 0, 0
41, 0, 0, 0
42, 0, 0, 0
43, 0, 0, 0
44, 0, 0, 0
45, 0, 0, 0
46, 0, 0, 0
47, 0, 0, 0
48, 0, 0, 0
49, 0, 0, 0
50, 0, 0, 0
51, 0, 0, 0
52, 0, 0, 0
53, 0, 0, 0
54, 0, 0, 0
55, 0, 0, 0
56, 0, 0, 0
57, 0, 0, 0
58, 0, 0, 0
59, 0, 0, 0
60, 0, 0, 0
61, 0, 0, 0
62, 0, 0, 0
63, 0, 0, 0
64, 0, 0, 0
65, 0, 0, 0
66, 0, 0, 0
67, 0, 0, 0
68, 0, 0, 0
69, 0, 0, 0
70, 0, 0, 0
71, 0, 0, 0
72, 0, 0, 0
73, 0, 0, 0
74, 0, 0, 0
75, 0, 0, 0
76, 0, 0, 0
77, 0, 0, 0
78, 0, 0, 0
79, 0, 0, 0
80, 0, 0, 0.002931800670921803
81, 0, 0, 0
82, 0, 0, 0
83, 0, 0, 0
84, 0, 0, 0
85, 0, 0, 0
86, 0, 0, 0
87, 0, 0, 0
88, 0, 0, 0
89, 0, 0, 0
90, 0, 0, 0
91, 0, 0, 0.005338299553841352
92, 0, 0, 0
93, 0, 0, 0
94, 0, 0, 0.0001932042941916734
95, 0, 0, 0
96, 0, 0, 0
97, 0, 0, 0
98, 0, 0, 0
99, 0, 0, 0
100, 0, 0, 0
101, 0, 0, 0
102, 0, 0, 0
103, 0, 0, 0.0293456707149744
104, 0, 0, 0
105, 0, 0, 0
106, 0, 0, 0
107, 0, 0, 0
108, 0, 0, 0
109, 0, 0, 0.0067612174898386
110, 0, 0, 0.003022892400622368
111, 0, 0, 0.004697186406701803
112, 0, 0, 0
113, 0, 0, 0
114, 0, 0, 0
115, 0, 0, 0
116, 0, 0, 0
117, 0, 0, 0
118, 0, 0, 0
119, 0, 0, 0
120, 0, 0, 0
121, 0, 0, 6.333318710327148
122, 0, 0, 31.99397468566895
123, 0, 0, 126.6497650146484
124, 0, 0, 455.2669677734375
125, 0, 0, 1460.912963867188
126, 0, 0, 2860.717041015625
127, 0, 0, 4262.521484375
128, 0, 0, 5109.744140625
129, 0, 0, 5002.45703125
130, 0, 0, 4541.59716796875
131, 0, 0, 3951.837890625
132, 0, 0, 3516.349365234375
133, 0, 0, 3174.516845703125
134, 0, 0, 2923.833740234375
135, 0, 0, 2749.68798828125
136, 0, 0, 2594.39111328125
137, 0, 0, 2459.155517578125
138, 0, 0, 2361.982666015625
139, 0, 0, 2271.13916015625
140, 0, 0, 2182.066650390625
141, 0, 0, 2118.086181640625
142, 0, 0, 2048.815673828125
143, 0, 0, 1993.051147460938
144, 0, 0, 1933.734375
145, 0, 0, 1884.179931640625
146, 0, 0, 1846.828491210938
147, 0, 0, 1795.07763671875
148, 0, 0, 1770.193359375
149, 0, 0, 1740.6044921875
150, 0, 0, 1687.09619140625
151, 0, 0, 1662.354370117188
152, 0, 0, 1632.58642578125
153, 0, 0, 1605.560180664062
154, 0, 0, 1578.551879882812
155, 0, 0, 1556.5947265625
156, 0, 0, 1528.792846679688
157, 0, 0, 1513.174438476562
158, 0, 0, 1498.6728515625
159, 0, 0, 1468.990478515625
160, 0, 0, 1452.923706054688
161, 0, 0, 1429.4443359375
162, 0, 0, 1412.095092773438
163, 0, 0, 1399.914306640625
164, 0, 0, 1380.716552734375
165, 0, 0, 1370.510864257812
166, 0, 0, 1355.761840820312
167, 0, 0, 1338.54248046875
168, 0, 0, 1321.786987304688
169, 0, 0, 1315.420532226562
170, 0, 0, 1297.748901367188
171, 0, 0, 1280.380859375
172, 0, 0, 1282.197875976562
173, 0, 0, 1264.3232421875
174, 0, 0, 1250.252807617188
175, 0, 0, 1236.236694335938
176, 0, 0, 1234.548828125
177, 0, 0, 1219.256225585938
178, 0, 0, 1205.762939453125
179, 0, 0, 1197.766235351562
