# TOPAS Version: 3.3.p1
# Parameter File: Test.txt
# Results for scorer MLIC_Scorer
# Scored in component: MLIC
# X in 180 bins of 0.183333 cm
# Y in 1 bin  of 10 cm
# Z in 1 bin  of 10 cm
# EnergyDeposit ( MeV ) : Sum   
0, 0, 0, 0
1, 0, 0, 0
2, 0, 0, 0
3, 0, 0, 0
4, 0, 0, 0
5, 0, 0, 0
6, 0, 0, 0
7, 0, 0, 0
8, 0, 0, 0
9, 0, 0, 0
10, 0, 0, 0
11, 0, 0, 0
12, 0, 0, 0
13, 0, 0, 0
14, 0, 0, 0
15, 0, 0, 0
16, 0, 0, 0
17, 0, 0, 0
18, 0, 0, 0
19, 0, 0, 0
20, 0, 0, 0
21, 0, 0, 0
22, 0, 0, 0
23, 0, 0, 0
24, 0, 0, 0
25, 0, 0, 0
26, 0, 0, 0
27, 0, 0, 0
28, 0, 0, 0
29, 0, 0, 0
30, 0, 0, 0
31, 0, 0, 0
32, 0, 0, 0
33, 0, 0, 0
34, 0, 0, 0
35, 0, 0, 0
36, 0, 0, 0
37, 0, 0, 0
38, 0, 0, 0
39, 0, 0, 0
40, 0, 0, 0
41, 0, 0, 0
42, 0, 0, 0
43, 0, 0, 0
44, 0, 0, 0
45, 0, 0, 0
46, 0, 0, 0
47, 0, 0, 0
48, 0, 0, 0
49, 0, 0, 0
50, 0, 0, 0
51, 0, 0, 0
52, 0, 0, 0
53, 0, 0, 0
54, 0, 0, 0.0003002372686751187
55, 0, 0, 0
56, 0, 0, 0
57, 0, 0, 0
58, 0, 0, 0
59, 0, 0, 0
60, 0, 0, 0
61, 0, 0, 0
62, 0, 0, 0
63, 0, 0, 0
64, 0, 0, 0
65, 0, 0, 0
66, 0, 0, 0
67, 0, 0, 0
68, 0, 0, 0.01649357564747334
69, 0, 0, 0
70, 0, 0, 0
71, 0, 0, 0.0004627933667507023
72, 0, 0, 0
73, 0, 0, 0
74, 0, 0, 0.03740835189819336
75, 0, 0, 0
76, 0, 0, 0
77, 0, 0, 0.003854976501315832
78, 0, 0, 0
79, 0, 0, 6.484096527099609
80, 0, 0, 8.012932777404785
81, 0, 0, 98.04946899414062
82, 0, 0, 495.8285827636719
83, 0, 0, 1300.315185546875
84, 0, 0, 2550.609130859375
85, 0, 0, 3972.273193359375
86, 0, 0, 4939.654296875
87, 0, 0, 5118.607421875
88, 0, 0, 4805.77294921875
89, 0, 0, 4185.60546875
90, 0, 0, 3668.415283203125
91, 0, 0, 3286.583251953125
92, 0, 0, 3026.677978515625
93, 0, 0, 2823.538330078125
94, 0, 0, 2664.1669921875
95, 0, 0, 2535.34619140625
96, 0, 0, 2423.245361328125
97, 0, 0, 2322.080810546875
98, 0, 0, 2239.1826171875
99, 0, 0, 2166.712890625
100, 0, 0, 2098.658203125
101, 0, 0, 2037.908203125
102, 0, 0, 1987.001220703125
103, 0, 0, 1925.8984375
104, 0, 0, 1885.888305664062
105, 0, 0, 1842.9208984375
106, 0, 0, 1801.406616210938
107, 0, 0, 1766.015502929688
108, 0, 0, 1736.119995117188
109, 0, 0, 1704.130126953125
110, 0, 0, 1676.984008789062
111, 0, 0, 1640.669799804688
112, 0, 0, 1616.834838867188
113, 0, 0, 1584.916748046875
114, 0, 0, 1568.435668945312
115, 0, 0, 1547.93896484375
116, 0, 0, 1512.521118164062
117, 0, 0, 1501.487548828125
118, 0, 0, 1482.091918945312
119, 0, 0, 1463.807250976562
120, 0, 0, 1449.166381835938
121, 0, 0, 1422.298950195312
122, 0, 0, 1412.176025390625
123, 0, 0, 1397.290771484375
124, 0, 0, 1383.363037109375
125, 0, 0, 1364.934814453125
126, 0, 0, 1351.535400390625
127, 0, 0, 1338.923461914062
128, 0, 0, 1322.776977539062
129, 0, 0, 1312.467529296875
130, 0, 0, 1295.232299804688
131, 0, 0, 1278.007202148438
132, 0, 0, 1271.537963867188
133, 0, 0, 1260.857666015625
134, 0, 0, 1242.928344726562
135, 0, 0, 1243.274291992188
136, 0, 0, 1230.4677734375
137, 0, 0, 1223.354858398438
138, 0, 0, 1211.523071289062
139, 0, 0, 1203.708862304688
140, 0, 0, 1188.801635742188
141, 0, 0, 1179.234252929688
142, 0, 0, 1177.715209960938
143, 0, 0, 1169.608154296875
144, 0, 0, 1159.11328125
145, 0, 0, 1158.752075195312
146, 0, 0, 1138.888061523438
147, 0, 0, 1133.390502929688
148, 0, 0, 1130.817749023438
149, 0, 0, 1125.025512695312
150, 0, 0, 1113.678588867188
151, 0, 0, 1112.212036132812
152, 0, 0, 1097.615356445312
153, 0, 0, 1091.143310546875
154, 0, 0, 1089.445922851562
155, 0, 0, 1077.472045898438
156, 0, 0, 1074.40087890625
157, 0, 0, 1074.205688476562
158, 0, 0, 1067.829956054688
159, 0, 0, 1059.868530273438
160, 0, 0, 1054.419677734375
161, 0, 0, 1049.804931640625
162, 0, 0, 1039.175537109375
163, 0, 0, 1035.928955078125
164, 0, 0, 1037.07958984375
165, 0, 0, 1020.673828125
166, 0, 0, 1023.356079101562
167, 0, 0, 1013.13330078125
168, 0, 0, 1012.01318359375
169, 0, 0, 1011.588928222656
170, 0, 0, 993.1578369140625
171, 0, 0, 995.3027954101562
172, 0, 0, 976.8618774414062
173, 0, 0, 988.7491455078125
174, 0, 0, 982.1333618164062
175, 0, 0, 982.8009643554688
176, 0, 0, 976.1593627929688
177, 0, 0, 972.10986328125
178, 0, 0, 968.8886108398438
179, 0, 0, 965.5269775390625
