# TOPAS Version: 3.3.p1
# Parameter File: Test.txt
# Results for scorer MLIC_Scorer
# Scored in component: MLIC
# X in 180 bins of 0.183333 cm
# Y in 1 bin  of 10 cm
# Z in 1 bin  of 10 cm
# EnergyDeposit ( MeV ) : Sum   
0, 0, 0, 0
1, 0, 0, 0
2, 0, 0, 0
3, 0, 0, 0
4, 0, 0, 0
5, 0, 0, 0
6, 0, 0, 0
7, 0, 0, 0
8, 0, 0, 0
9, 0, 0, 0
10, 0, 0, 0
11, 0, 0, 0
12, 0, 0, 0
13, 0, 0, 0
14, 0, 0, 0
15, 0, 0, 0
16, 0, 0, 0
17, 0, 0, 0
18, 0, 0, 0
19, 0, 0, 0
20, 0, 0, 0
21, 0, 0, 0
22, 0, 0, 0
23, 0, 0, 0
24, 0, 0, 0
25, 0, 0, 0
26, 0, 0, 0
27, 0, 0, 0
28, 0, 0, 0
29, 0, 0, 0
30, 0, 0, 0
31, 0, 0, 0
32, 0, 0, 0
33, 0, 0, 0
34, 0, 0, 0
35, 0, 0, 0
36, 0, 0, 0
37, 0, 0, 0
38, 0, 0, 0
39, 0, 0, 0
40, 0, 0, 0
41, 0, 0, 0
42, 0, 0, 0
43, 0, 0, 0
44, 0, 0, 0
45, 0, 0, 0
46, 0, 0, 0
47, 0, 0, 0
48, 0, 0, 0
49, 0, 0, 0
50, 0, 0, 0
51, 0, 0, 0
52, 0, 0, 0
53, 0, 0, 0
54, 0, 0, 0
55, 0, 0, 0
56, 0, 0, 0
57, 0, 0, 0
58, 0, 0, 0
59, 0, 0, 0
60, 0, 0, 0
61, 0, 0, 0
62, 0, 0, 0
63, 0, 0, 0
64, 0, 0, 0
65, 0, 0, 0
66, 0, 0, 0
67, 0, 0, 0
68, 0, 0, 0
69, 0, 0, 0
70, 0, 0, 0
71, 0, 0, 0
72, 0, 0, 0
73, 0, 0, 0
74, 0, 0, 0
75, 0, 0, 0
76, 0, 0, 0
77, 0, 0, 0
78, 0, 0, 0
79, 0, 0, 0
80, 0, 0, 0
81, 0, 0, 0
82, 0, 0, 0
83, 0, 0, 0
84, 0, 0, 0
85, 0, 0, 0
86, 0, 0, 0
87, 0, 0, 0
88, 0, 0, 0
89, 0, 0, 0
90, 0, 0, 0
91, 0, 0, 0
92, 0, 0, 0
93, 0, 0, 0
94, 0, 0, 0
95, 0, 0, 0
96, 0, 0, 15.08924198150635
97, 0, 0, 79.09970855712891
98, 0, 0, 283.0342102050781
99, 0, 0, 895.4788818359375
100, 0, 0, 1989.606811523438
101, 0, 0, 3435.615966796875
102, 0, 0, 4861.998046875
103, 0, 0, 5292.08935546875
104, 0, 0, 4901.4580078125
105, 0, 0, 4344.421875
106, 0, 0, 3828.818359375
107, 0, 0, 3400.539794921875
108, 0, 0, 3103.43994140625
109, 0, 0, 2881.64892578125
110, 0, 0, 2709.118896484375
111, 0, 0, 2569
112, 0, 0, 2450.335693359375
113, 0, 0, 2352.911376953125
114, 0, 0, 2268.885986328125
115, 0, 0, 2188.072509765625
116, 0, 0, 2111.550048828125
117, 0, 0, 2053.54541015625
118, 0, 0, 2001.275756835938
119, 0, 0, 1950.3623046875
120, 0, 0, 1894.038940429688
121, 0, 0, 1862.75927734375
122, 0, 0, 1826.876098632812
123, 0, 0, 1779.373901367188
124, 0, 0, 1746.939697265625
125, 0, 0, 1717.663818359375
126, 0, 0, 1695.853515625
127, 0, 0, 1649.890502929688
128, 0, 0, 1630.237426757812
129, 0, 0, 1601.160522460938
130, 0, 0, 1570.495361328125
131, 0, 0, 1557.683959960938
132, 0, 0, 1522.106201171875
133, 0, 0, 1510.766357421875
134, 0, 0, 1485.570922851562
135, 0, 0, 1471.7001953125
136, 0, 0, 1446.645751953125
137, 0, 0, 1424.279052734375
138, 0, 0, 1417.906127929688
139, 0, 0, 1406.97705078125
140, 0, 0, 1387.725463867188
141, 0, 0, 1370.657592773438
142, 0, 0, 1353.618408203125
143, 0, 0, 1335.701171875
144, 0, 0, 1330.357299804688
145, 0, 0, 1315.875366210938
146, 0, 0, 1305.725463867188
147, 0, 0, 1291.892578125
148, 0, 0, 1283.721069335938
149, 0, 0, 1264.075805664062
150, 0, 0, 1252.326293945312
151, 0, 0, 1239.703247070312
152, 0, 0, 1232.506469726562
153, 0, 0, 1216.295288085938
154, 0, 0, 1216.928344726562
155, 0, 0, 1207.859375
156, 0, 0, 1194.294067382812
157, 0, 0, 1192.54736328125
158, 0, 0, 1173.161743164062
159, 0, 0, 1167.279663085938
160, 0, 0, 1155.869140625
161, 0, 0, 1149.729858398438
162, 0, 0, 1150.331909179688
163, 0, 0, 1135.578125
164, 0, 0, 1130.16796875
165, 0, 0, 1115.375732421875
166, 0, 0, 1117.915771484375
167, 0, 0, 1110.778930664062
168, 0, 0, 1104.867431640625
169, 0, 0, 1094.167358398438
170, 0, 0, 1085.153686523438
171, 0, 0, 1085.091674804688
172, 0, 0, 1079.623046875
173, 0, 0, 1072.78955078125
174, 0, 0, 1060.983032226562
175, 0, 0, 1056.3203125
176, 0, 0, 1049.46826171875
177, 0, 0, 1046.562133789062
178, 0, 0, 1048.254516601562
179, 0, 0, 1036.030883789062
