# TOPAS Version: 3.3.p1
# Parameter File: Test.txt
# Results for scorer MLIC_Scorer
# Scored in component: MLIC
# X in 180 bins of 0.177778 cm
# Y in 1 bin  of 10 cm
# Z in 1 bin  of 10 cm
# EnergyDeposit ( MeV ) : Sum   
0, 0, 0, 0
1, 0, 0, 0
2, 0, 0, 0
3, 0, 0, 0
4, 0, 0, 0
5, 0, 0, 0
6, 0, 0, 0
7, 0, 0, 0
8, 0, 0, 0
9, 0, 0, 0
10, 0, 0, 0
11, 0, 0, 0
12, 0, 0, 0
13, 0, 0, 0
14, 0, 0, 0
15, 0, 0, 0
16, 0, 0, 0
17, 0, 0, 0
18, 0, 0, 0
19, 0, 0, 0
20, 0, 0, 0.02656304091215134
21, 0, 0, 0
22, 0, 0, 0
23, 0, 0, 0
24, 0, 0, 0
25, 0, 0, 0
26, 0, 0, 5.175377368927002
27, 0, 0, 44.07236862182617
28, 0, 0, 176.6670227050781
29, 0, 0, 585.3314208984375
30, 0, 0, 1587.360961914062
31, 0, 0, 2694.92822265625
32, 0, 0, 4336.60546875
33, 0, 0, 4947.03466796875
34, 0, 0, 4970.15478515625
35, 0, 0, 4469.796875
36, 0, 0, 3991.812744140625
37, 0, 0, 3534.592529296875
38, 0, 0, 3178.139892578125
39, 0, 0, 2942.33056640625
40, 0, 0, 2737.224853515625
41, 0, 0, 2597.05029296875
42, 0, 0, 2465.875244140625
43, 0, 0, 2360.413818359375
44, 0, 0, 2267.0029296875
45, 0, 0, 2187.322998046875
46, 0, 0, 2114.013671875
47, 0, 0, 2047.360473632812
48, 0, 0, 1994.33154296875
49, 0, 0, 1936.839965820312
50, 0, 0, 1889.373291015625
51, 0, 0, 1852.194702148438
52, 0, 0, 1794.684692382812
53, 0, 0, 1764.628295898438
54, 0, 0, 1729.918090820312
55, 0, 0, 1700.023071289062
56, 0, 0, 1664.086181640625
57, 0, 0, 1635.579833984375
58, 0, 0, 1608.943969726562
59, 0, 0, 1577.56201171875
60, 0, 0, 1560.613403320312
61, 0, 0, 1537.917114257812
62, 0, 0, 1514.868408203125
63, 0, 0, 1497.264770507812
64, 0, 0, 1471.335327148438
65, 0, 0, 1454.9326171875
66, 0, 0, 1431.088256835938
67, 0, 0, 1413.244262695312
68, 0, 0, 1398.14208984375
69, 0, 0, 1377.89599609375
70, 0, 0, 1365.691528320312
71, 0, 0, 1346.33544921875
72, 0, 0, 1337.734985351562
73, 0, 0, 1316.117797851562
74, 0, 0, 1305.915161132812
75, 0, 0, 1299.918701171875
76, 0, 0, 1291.0859375
77, 0, 0, 1273.5869140625
78, 0, 0, 1254.757934570312
79, 0, 0, 1242.732543945312
80, 0, 0, 1236.5458984375
81, 0, 0, 1237.160522460938
82, 0, 0, 1218.36962890625
83, 0, 0, 1202.991088867188
84, 0, 0, 1193.7314453125
85, 0, 0, 1189.117797851562
86, 0, 0, 1184.300903320312
87, 0, 0, 1167.73193359375
88, 0, 0, 1155.459350585938
89, 0, 0, 1150.76025390625
90, 0, 0, 1141.1767578125
91, 0, 0, 1134.60302734375
92, 0, 0, 1132.838500976562
93, 0, 0, 1121.679809570312
94, 0, 0, 1117.252075195312
95, 0, 0, 1100.186767578125
96, 0, 0, 1098.220092773438
97, 0, 0, 1089.283935546875
98, 0, 0, 1086.668823242188
99, 0, 0, 1077.739990234375
100, 0, 0, 1077.223388671875
101, 0, 0, 1068.587646484375
102, 0, 0, 1056.407592773438
103, 0, 0, 1056.8232421875
104, 0, 0, 1048.4384765625
105, 0, 0, 1042.362426757812
106, 0, 0, 1039.552734375
107, 0, 0, 1030.515869140625
108, 0, 0, 1021.38427734375
109, 0, 0, 1020.837768554688
110, 0, 0, 1013.548278808594
111, 0, 0, 1014.97314453125
112, 0, 0, 997.8892211914062
113, 0, 0, 1002.174560546875
114, 0, 0, 1000.242797851562
115, 0, 0, 988.8873901367188
116, 0, 0, 993.8634643554688
117, 0, 0, 981.8242797851562
118, 0, 0, 973.406005859375
119, 0, 0, 972.1782836914062
120, 0, 0, 964.2977905273438
121, 0, 0, 966.1868286132812
122, 0, 0, 953.4107055664062
123, 0, 0, 950.4185180664062
124, 0, 0, 955.5106201171875
125, 0, 0, 946.898193359375
126, 0, 0, 940.6842651367188
127, 0, 0, 940.3758544921875
128, 0, 0, 935.9086303710938
129, 0, 0, 944.3694458007812
130, 0, 0, 926.0848999023438
131, 0, 0, 926.173828125
132, 0, 0, 920.9739379882812
133, 0, 0, 911.8954467773438
134, 0, 0, 916.6503295898438
135, 0, 0, 910.14404296875
136, 0, 0, 903.9678344726562
137, 0, 0, 905.6177978515625
138, 0, 0, 902.0003662109375
139, 0, 0, 894.3433837890625
140, 0, 0, 892.4257202148438
141, 0, 0, 887.1572265625
142, 0, 0, 884.0182495117188
143, 0, 0, 883.1939697265625
144, 0, 0, 885.33056640625
145, 0, 0, 874.548583984375
146, 0, 0, 882.55126953125
147, 0, 0, 867.703125
148, 0, 0, 865.1682739257812
149, 0, 0, 864.013671875
150, 0, 0, 873.0929565429688
151, 0, 0, 860.946044921875
152, 0, 0, 850.7568359375
153, 0, 0, 853.3345336914062
154, 0, 0, 841.60888671875
155, 0, 0, 846.8357543945312
156, 0, 0, 844.272216796875
157, 0, 0, 846.7630615234375
158, 0, 0, 845.9523315429688
159, 0, 0, 843.5634765625
160, 0, 0, 837.8916625976562
161, 0, 0, 837.2137451171875
162, 0, 0, 836.5154418945312
163, 0, 0, 839.7041625976562
164, 0, 0, 832.5338134765625
165, 0, 0, 834.9740600585938
166, 0, 0, 816.6911010742188
167, 0, 0, 818.9923095703125
168, 0, 0, 813.7377319335938
169, 0, 0, 818.2764892578125
170, 0, 0, 818.1560668945312
171, 0, 0, 811.3414916992188
172, 0, 0, 810.6617431640625
173, 0, 0, 808.6869506835938
174, 0, 0, 806.1434936523438
175, 0, 0, 795.4757080078125
176, 0, 0, 799.5584716796875
177, 0, 0, 806.2141723632812
178, 0, 0, 795.3665161132812
179, 0, 0, 798.6143798828125
