# TOPAS Version: 3.3.p1
# Parameter File: Test.txt
# Results for scorer MLIC_Scorer
# Scored in component: MLIC
# X in 180 bins of 0.183333 cm
# Y in 1 bin  of 10 cm
# Z in 1 bin  of 10 cm
# EnergyDeposit ( MeV ) : Sum   
0, 0, 0, 0
1, 0, 0, 0
2, 0, 0, 0
3, 0, 0, 0
4, 0, 0, 0
5, 0, 0, 0
6, 0, 0, 0
7, 0, 0, 0
8, 0, 0, 0
9, 0, 0, 0
10, 0, 0, 0
11, 0, 0, 0
12, 0, 0, 0
13, 0, 0, 0
14, 0, 0, 0
15, 0, 0, 0
16, 0, 0, 0
17, 0, 0, 0
18, 0, 0, 0
19, 0, 0, 0
20, 0, 0, 0
21, 0, 0, 0
22, 0, 0, 0
23, 0, 0, 0
24, 0, 0, 0
25, 0, 0, 0
26, 0, 0, 0
27, 0, 0, 0
28, 0, 0, 0
29, 0, 0, 0
30, 0, 0, 0
31, 0, 0, 0
32, 0, 0, 0
33, 0, 0, 0
34, 0, 0, 0
35, 0, 0, 0
36, 0, 0, 0
37, 0, 0, 0
38, 0, 0, 0
39, 0, 0, 0
40, 0, 0, 0
41, 0, 0, 0
42, 0, 0, 0
43, 0, 0, 0
44, 0, 0, 0
45, 0, 0, 0
46, 0, 0, 0
47, 0, 0, 0
48, 0, 0, 0
49, 0, 0, 0
50, 0, 0, 0
51, 0, 0, 0
52, 0, 0, 0
53, 0, 0, 0
54, 0, 0, 0
55, 0, 0, 0
56, 0, 0, 0
57, 0, 0, 0
58, 0, 0, 0
59, 0, 0, 0
60, 0, 0, 0
61, 0, 0, 0
62, 0, 0, 0
63, 0, 0, 0
64, 0, 0, 0
65, 0, 0, 0
66, 0, 0, 0
67, 0, 0, 0
68, 0, 0, 0
69, 0, 0, 0
70, 0, 0, 0
71, 0, 0, 0.001041704439558089
72, 0, 0, 0
73, 0, 0, 0
74, 0, 0, 0
75, 0, 0, 0
76, 0, 0, 0
77, 0, 0, 0
78, 0, 0, 0
79, 0, 0, 0
80, 0, 0, 0
81, 0, 0, 0
82, 0, 0, 0
83, 0, 0, 0
84, 0, 0, 0
85, 0, 0, 0
86, 0, 0, 0
87, 0, 0, 0
88, 0, 0, 0
89, 0, 0, 0
90, 0, 0, 0
91, 0, 0, 0
92, 0, 0, 0
93, 0, 0, 0
94, 0, 0, 0
95, 0, 0, 0
96, 0, 0, 0
97, 0, 0, 0
98, 0, 0, 0
99, 0, 0, 0
100, 0, 0, 0
101, 0, 0, 0
102, 0, 0, 0
103, 0, 0, 0
104, 0, 0, 0
105, 0, 0, 0
106, 0, 0, 0
107, 0, 0, 0
108, 0, 0, 0
109, 0, 0, 0
110, 0, 0, 0
111, 0, 0, 0
112, 0, 0, 0
113, 0, 0, 0
114, 0, 0, 0
115, 0, 0, 0
116, 0, 0, 0
117, 0, 0, 0
118, 0, 0, 0
119, 0, 0, 0
120, 0, 0, 0
121, 0, 0, 0
122, 0, 0, 0.05152228102087975
123, 0, 0, 0
124, 0, 0, 0
125, 0, 0, 0
126, 0, 0, 0
127, 0, 0, 0.001400511362589896
128, 0, 0, 0
129, 0, 0, 0
130, 0, 0, 0
131, 0, 0, 0
132, 0, 0, 0
133, 0, 0, 0.009464806877076626
134, 0, 0, 0.01430357899516821
135, 0, 0, 0.03631192445755005
136, 0, 0, 64.2510986328125
137, 0, 0, 149.2427520751953
138, 0, 0, 482.06689453125
139, 0, 0, 1448.308349609375
140, 0, 0, 2962.08984375
141, 0, 0, 4512.04638671875
142, 0, 0, 5054.62646484375
143, 0, 0, 5194.83984375
144, 0, 0, 4657.193359375
145, 0, 0, 4007.4111328125
146, 0, 0, 3517.87646484375
147, 0, 0, 3215.009033203125
148, 0, 0, 2958.78515625
149, 0, 0, 2776.86572265625
150, 0, 0, 2624.337646484375
151, 0, 0, 2499.943603515625
152, 0, 0, 2395.352783203125
153, 0, 0, 2299.800048828125
154, 0, 0, 2229.332275390625
155, 0, 0, 2143.525634765625
156, 0, 0, 2087.254150390625
157, 0, 0, 2029.768310546875
158, 0, 0, 1965.49072265625
159, 0, 0, 1919.679321289062
160, 0, 0, 1876.75537109375
161, 0, 0, 1828.714599609375
162, 0, 0, 1795.127807617188
163, 0, 0, 1759.620361328125
164, 0, 0, 1715.8701171875
165, 0, 0, 1691.268676757812
166, 0, 0, 1666.607788085938
167, 0, 0, 1638.119750976562
168, 0, 0, 1613.3623046875
169, 0, 0, 1585.029907226562
170, 0, 0, 1557.42626953125
171, 0, 0, 1539.912841796875
172, 0, 0, 1510.599975585938
173, 0, 0, 1493.8974609375
174, 0, 0, 1474.68701171875
175, 0, 0, 1459.470947265625
176, 0, 0, 1436.13671875
177, 0, 0, 1421.396240234375
178, 0, 0, 1415.228271484375
179, 0, 0, 1388.039428710938
