# TOPAS Version: 3.3.p1
# Parameter File: Test.txt
# Results for scorer MLIC_Scorer
# Scored in component: MLIC
# X in 180 bins of 0.183333 cm
# Y in 1 bin  of 10 cm
# Z in 1 bin  of 10 cm
# EnergyDeposit ( MeV ) : Sum   
0, 0, 0, 0
1, 0, 0, 0
2, 0, 0, 0
3, 0, 0, 0
4, 0, 0, 0
5, 0, 0, 0
6, 0, 0, 0
7, 0, 0, 0
8, 0, 0, 0
9, 0, 0, 0
10, 0, 0, 6.221072196960449
11, 0, 0, 53.38753890991211
12, 0, 0, 283.561767578125
13, 0, 0, 979.0660400390625
14, 0, 0, 2049.703125
15, 0, 0, 3718.010986328125
16, 0, 0, 4712.447265625
17, 0, 0, 5243.56689453125
18, 0, 0, 4919.0205078125
19, 0, 0, 4341.04541015625
20, 0, 0, 3776.8427734375
21, 0, 0, 3396.5791015625
22, 0, 0, 3099.517822265625
23, 0, 0, 2880.416748046875
24, 0, 0, 2707.166259765625
25, 0, 0, 2565.015625
26, 0, 0, 2450.964111328125
27, 0, 0, 2352.404296875
28, 0, 0, 2262.166015625
29, 0, 0, 2183.55322265625
30, 0, 0, 2115.186767578125
31, 0, 0, 2048.54296875
32, 0, 0, 1997.432373046875
33, 0, 0, 1946.994018554688
34, 0, 0, 1905.37890625
35, 0, 0, 1857.336181640625
36, 0, 0, 1821.161010742188
37, 0, 0, 1779.36865234375
38, 0, 0, 1739.902465820312
39, 0, 0, 1709.754028320312
40, 0, 0, 1680.127319335938
41, 0, 0, 1650.07958984375
42, 0, 0, 1627.191284179688
43, 0, 0, 1593.908081054688
44, 0, 0, 1570.4111328125
45, 0, 0, 1548.555786132812
46, 0, 0, 1528.455078125
47, 0, 0, 1506.004638671875
48, 0, 0, 1488.776245117188
49, 0, 0, 1476.812133789062
50, 0, 0, 1449.344482421875
51, 0, 0, 1438.489868164062
52, 0, 0, 1412.034790039062
53, 0, 0, 1395.680786132812
54, 0, 0, 1380.875122070312
55, 0, 0, 1364.62060546875
56, 0, 0, 1355.276611328125
57, 0, 0, 1349.865112304688
58, 0, 0, 1324.560546875
59, 0, 0, 1316.798095703125
60, 0, 0, 1299.449096679688
61, 0, 0, 1296.086791992188
62, 0, 0, 1269.501708984375
63, 0, 0, 1265.780029296875
64, 0, 0, 1257.913940429688
65, 0, 0, 1250.54638671875
66, 0, 0, 1236.565673828125
67, 0, 0, 1230.563110351562
68, 0, 0, 1216.883911132812
69, 0, 0, 1207.589965820312
70, 0, 0, 1197.636840820312
71, 0, 0, 1187.3740234375
72, 0, 0, 1183.488159179688
73, 0, 0, 1163.64111328125
74, 0, 0, 1161.235595703125
75, 0, 0, 1163.303466796875
76, 0, 0, 1149.57861328125
77, 0, 0, 1140.948120117188
78, 0, 0, 1129.718139648438
79, 0, 0, 1130.683959960938
80, 0, 0, 1113.525390625
81, 0, 0, 1113.550903320312
82, 0, 0, 1104.052490234375
83, 0, 0, 1101.86181640625
84, 0, 0, 1091.687255859375
85, 0, 0, 1084.224853515625
86, 0, 0, 1077.552490234375
87, 0, 0, 1065.988159179688
88, 0, 0, 1062.861938476562
89, 0, 0, 1059.037109375
90, 0, 0, 1054.99267578125
91, 0, 0, 1050.099243164062
92, 0, 0, 1047.032592773438
93, 0, 0, 1035.390869140625
94, 0, 0, 1029.886474609375
95, 0, 0, 1031.833251953125
96, 0, 0, 1021.913696289062
97, 0, 0, 1015.300720214844
98, 0, 0, 1006.257507324219
99, 0, 0, 1004.470458984375
100, 0, 0, 998.7188720703125
101, 0, 0, 1004.088623046875
102, 0, 0, 992.8992309570312
103, 0, 0, 984.8433837890625
104, 0, 0, 992.3751220703125
105, 0, 0, 972.8095703125
106, 0, 0, 975.634765625
107, 0, 0, 978.73193359375
108, 0, 0, 964.779541015625
109, 0, 0, 959.1243286132812
110, 0, 0, 963.9616088867188
111, 0, 0, 960.4835815429688
112, 0, 0, 953.0974731445312
113, 0, 0, 949.1478881835938
114, 0, 0, 950.4189453125
115, 0, 0, 941.5911254882812
116, 0, 0, 938.8803100585938
117, 0, 0, 932.8500366210938
118, 0, 0, 931.4259033203125
119, 0, 0, 924.2785034179688
120, 0, 0, 920.0511474609375
121, 0, 0, 921.8572998046875
122, 0, 0, 911.7236938476562
123, 0, 0, 915.215087890625
124, 0, 0, 911.4039916992188
125, 0, 0, 903.4217529296875
126, 0, 0, 895.333251953125
127, 0, 0, 897.3900146484375
128, 0, 0, 889.2805786132812
129, 0, 0, 892.5791625976562
130, 0, 0, 887.7339477539062
131, 0, 0, 885.8018798828125
132, 0, 0, 886.59423828125
133, 0, 0, 880.3426513671875
134, 0, 0, 881.216064453125
135, 0, 0, 867.0252685546875
136, 0, 0, 883.320556640625
137, 0, 0, 872.3870849609375
138, 0, 0, 867.8082885742188
139, 0, 0, 859.6304931640625
140, 0, 0, 866.07568359375
141, 0, 0, 855.6224975585938
142, 0, 0, 860.8072509765625
143, 0, 0, 852.0794067382812
144, 0, 0, 848.3667602539062
145, 0, 0, 850.3421630859375
146, 0, 0, 842.989990234375
147, 0, 0, 841.916259765625
148, 0, 0, 844.6137084960938
149, 0, 0, 842.6917724609375
150, 0, 0, 832.0955200195312
151, 0, 0, 828.165771484375
152, 0, 0, 832.1533813476562
153, 0, 0, 831.2838134765625
154, 0, 0, 819.0365600585938
155, 0, 0, 824.5692749023438
156, 0, 0, 822.1409912109375
157, 0, 0, 813.1500244140625
158, 0, 0, 833.2596435546875
159, 0, 0, 819.983154296875
160, 0, 0, 810.9949340820312
161, 0, 0, 803.016845703125
162, 0, 0, 815.0693359375
163, 0, 0, 816.42138671875
164, 0, 0, 804.0172729492188
165, 0, 0, 796.5004272460938
166, 0, 0, 804.0462036132812
167, 0, 0, 803.0645751953125
168, 0, 0, 809.2244262695312
169, 0, 0, 791.97900390625
170, 0, 0, 801.4580688476562
171, 0, 0, 786.822509765625
172, 0, 0, 795.6295776367188
173, 0, 0, 785.966064453125
174, 0, 0, 789.6064453125
175, 0, 0, 791.31689453125
176, 0, 0, 783.3084106445312
177, 0, 0, 782.386474609375
178, 0, 0, 780.634033203125
179, 0, 0, 771.2584228515625
