# TOPAS Version: 3.3.p1
# Parameter File: Test.txt
# Results for scorer MLIC_Scorer
# Scored in component: MLIC
# X in 180 bins of 0.177778 cm
# Y in 1 bin  of 10 cm
# Z in 1 bin  of 10 cm
# EnergyDeposit ( MeV ) : Sum   
0, 0, 0, 0
1, 0, 0, 0
2, 0, 0, 0
3, 0, 0, 0
4, 0, 0, 0
5, 0, 0, 0
6, 0, 0, 0
7, 0, 0, 0
8, 0, 0, 0
9, 0, 0, 0
10, 0, 0, 0
11, 0, 0, 0
12, 0, 0, 0
13, 0, 0, 0
14, 0, 0, 0
15, 0, 0, 0
16, 0, 0, 0
17, 0, 0, 0
18, 0, 0, 0
19, 0, 0, 0
20, 0, 0, 0
21, 0, 0, 0
22, 0, 0, 0
23, 0, 0, 0
24, 0, 0, 0
25, 0, 0, 0
26, 0, 0, 0
27, 0, 0, 0
28, 0, 0, 0
29, 0, 0, 0
30, 0, 0, 0
31, 0, 0, 0
32, 0, 0, 0
33, 0, 0, 0
34, 0, 0, 0
35, 0, 0, 0
36, 0, 0, 0
37, 0, 0, 0
38, 0, 0, 0
39, 0, 0, 0
40, 0, 0, 0
41, 0, 0, 0
42, 0, 0, 0
43, 0, 0, 0
44, 0, 0, 0
45, 0, 0, 0
46, 0, 0, 0
47, 0, 0, 0
48, 0, 0, 0
49, 0, 0, 0
50, 0, 0, 0
51, 0, 0, 0
52, 0, 0, 0
53, 0, 0, 0
54, 0, 0, 0
55, 0, 0, 0
56, 0, 0, 0
57, 0, 0, 0
58, 0, 0, 0
59, 0, 0, 0
60, 0, 0, 0
61, 0, 0, 0
62, 0, 0, 0
63, 0, 0, 0
64, 0, 0, 0
65, 0, 0, 0
66, 0, 0, 0
67, 0, 0, 0
68, 0, 0, 0
69, 0, 0, 0
70, 0, 0, 0
71, 0, 0, 0
72, 0, 0, 0
73, 0, 0, 0
74, 0, 0, 0
75, 0, 0, 0
76, 0, 0, 0
77, 0, 0, 0
78, 0, 0, 0
79, 0, 0, 0
80, 0, 0, 0
81, 0, 0, 0
82, 0, 0, 0
83, 0, 0, 0
84, 0, 0, 0
85, 0, 0, 0
86, 0, 0, 0
87, 0, 0, 0
88, 0, 0, 0
89, 0, 0, 0
90, 0, 0, 0
91, 0, 0, 0
92, 0, 0, 0
93, 0, 0, 0
94, 0, 0, 0
95, 0, 0, 0
96, 0, 0, 0
97, 0, 0, 0
98, 0, 0, 0
99, 0, 0, 0
100, 0, 0, 0
101, 0, 0, 0
102, 0, 0, 0
103, 0, 0, 0
104, 0, 0, 0
105, 0, 0, 0
106, 0, 0, 0
107, 0, 0, 0
108, 0, 0, 0
109, 0, 0, 0
110, 0, 0, 0
111, 0, 0, 0
112, 0, 0, 0
113, 0, 0, 0
114, 0, 0, 0
115, 0, 0, 0
116, 0, 0, 0
117, 0, 0, 0
118, 0, 0, 0
119, 0, 0, 0
120, 0, 0, 0
121, 0, 0, 0
122, 0, 0, 0
123, 0, 0, 0
124, 0, 0, 0
125, 0, 0, 0
126, 0, 0, 0
127, 0, 0, 0
128, 0, 0, 0
129, 0, 0, 0
130, 0, 0, 0.02474964410066605
131, 0, 0, 6.364495277404785
132, 0, 0, 33.22457504272461
133, 0, 0, 86.52125549316406
134, 0, 0, 167.9392395019531
135, 0, 0, 357.9725646972656
136, 0, 0, 461.3668823242188
137, 0, 0, 545.8814086914062
138, 0, 0, 457.804443359375
139, 0, 0, 426.45361328125
140, 0, 0, 382.9067077636719
141, 0, 0, 336.677001953125
142, 0, 0, 308.0213623046875
143, 0, 0, 284.6443176269531
144, 0, 0, 268.6779174804688
145, 0, 0, 253.1825408935547
146, 0, 0, 242.7187805175781
147, 0, 0, 233.1650238037109
148, 0, 0, 224.6954040527344
149, 0, 0, 215.5512542724609
150, 0, 0, 207.3687286376953
151, 0, 0, 203.1484680175781
152, 0, 0, 196.830078125
153, 0, 0, 190.6284790039062
154, 0, 0, 187.2184143066406
155, 0, 0, 179.8711547851562
156, 0, 0, 178.6222076416016
157, 0, 0, 173.9695434570312
158, 0, 0, 172.7727355957031
159, 0, 0, 167.3424530029297
160, 0, 0, 164.8454742431641
161, 0, 0, 162.2781219482422
162, 0, 0, 158.3893585205078
163, 0, 0, 158.1433715820312
164, 0, 0, 156.9779510498047
165, 0, 0, 154.2755889892578
166, 0, 0, 151.2898101806641
167, 0, 0, 148.8858489990234
168, 0, 0, 146.1261444091797
169, 0, 0, 144.7458038330078
170, 0, 0, 142.9906158447266
171, 0, 0, 142.2049713134766
172, 0, 0, 139.3064880371094
173, 0, 0, 138.2883605957031
174, 0, 0, 134.7693786621094
175, 0, 0, 134.1648559570312
176, 0, 0, 134.5859985351562
177, 0, 0, 131.4511108398438
178, 0, 0, 128.5501556396484
179, 0, 0, 132.0269775390625
