# TOPAS Version: 3.3.p1
# Parameter File: Test.txt
# Results for scorer MLIC_Scorer
# Scored in component: MLIC
# X in 180 bins of 0.183333 cm
# Y in 1 bin  of 10 cm
# Z in 1 bin  of 10 cm
# EnergyDeposit ( MeV ) : Sum   
0, 0, 0, 0
1, 0, 0, 0
2, 0, 0, 0
3, 0, 0, 0
4, 0, 0, 0
5, 0, 0, 0
6, 0, 0, 0
7, 0, 0, 0
8, 0, 0, 0
9, 0, 0, 0
10, 0, 0, 0
11, 0, 0, 0
12, 0, 0, 0
13, 0, 0, 0
14, 0, 0, 0
15, 0, 0, 0
16, 0, 0, 0
17, 0, 0, 0
18, 0, 0, 0
19, 0, 0, 0
20, 0, 0, 0
21, 0, 0, 0
22, 0, 0, 0
23, 0, 0, 0
24, 0, 0, 0
25, 0, 0, 0
26, 0, 0, 0
27, 0, 0, 0
28, 0, 0, 0
29, 0, 0, 0
30, 0, 0, 0
31, 0, 0, 0
32, 0, 0, 0
33, 0, 0, 0
34, 0, 0, 0
35, 0, 0, 0
36, 0, 0, 0
37, 0, 0, 0
38, 0, 0, 0
39, 0, 0, 0
40, 0, 0, 0
41, 0, 0, 0
42, 0, 0, 0
43, 0, 0, 0
44, 0, 0, 0
45, 0, 0, 0
46, 0, 0, 0
47, 0, 0, 0
48, 0, 0, 0
49, 0, 0, 0
50, 0, 0, 0
51, 0, 0, 0
52, 0, 0, 0
53, 0, 0, 0
54, 0, 0, 0
55, 0, 0, 0
56, 0, 0, 0
57, 0, 0, 0
58, 0, 0, 0
59, 0, 0, 0
60, 0, 0, 0
61, 0, 0, 0
62, 0, 0, 0
63, 0, 0, 0
64, 0, 0, 0
65, 0, 0, 0
66, 0, 0, 0
67, 0, 0, 0
68, 0, 0, 0
69, 0, 0, 0
70, 0, 0, 0
71, 0, 0, 0
72, 0, 0, 0
73, 0, 0, 0
74, 0, 0, 0
75, 0, 0, 0
76, 0, 0, 0
77, 0, 0, 0
78, 0, 0, 0
79, 0, 0, 0
80, 0, 0, 0
81, 0, 0, 0
82, 0, 0, 0
83, 0, 0, 0
84, 0, 0, 0
85, 0, 0, 0
86, 0, 0, 0.003139291424304247
87, 0, 0, 0
88, 0, 0, 0
89, 0, 0, 0
90, 0, 0, 0.001481218496337533
91, 0, 0, 0
92, 0, 0, 0
93, 0, 0, 0
94, 0, 0, 0
95, 0, 0, 0
96, 0, 0, 0
97, 0, 0, 0
98, 0, 0, 0
99, 0, 0, 0
100, 0, 0, 0
101, 0, 0, 0
102, 0, 0, 0
103, 0, 0, 0
104, 0, 0, 0
105, 0, 0, 0
106, 0, 0, 0
107, 0, 0, 0
108, 0, 0, 0
109, 0, 0, 0
110, 0, 0, 0
111, 0, 0, 0
112, 0, 0, 0
113, 0, 0, 0
114, 0, 0, 0
115, 0, 0, 0
116, 0, 0, 0
117, 0, 0, 0
118, 0, 0, 0.03600084036588669
119, 0, 0, 0
120, 0, 0, 0
121, 0, 0, 0
122, 0, 0, 0
123, 0, 0, 0
124, 0, 0, 0
125, 0, 0, 0
126, 0, 0, 0
127, 0, 0, 0
128, 0, 0, 0
129, 0, 0, 0
130, 0, 0, 0
131, 0, 0, 0
132, 0, 0, 0
133, 0, 0, 0
134, 0, 0, 0.02497746050357819
135, 0, 0, 0
136, 0, 0, 0
137, 0, 0, 28.80374336242676
138, 0, 0, 125.8538284301758
139, 0, 0, 600.8887939453125
140, 0, 0, 1508.844482421875
141, 0, 0, 2858.22705078125
142, 0, 0, 4278.0859375
143, 0, 0, 5167.2548828125
144, 0, 0, 5014.55908203125
145, 0, 0, 4550.40380859375
146, 0, 0, 4074.765869140625
147, 0, 0, 3567.931640625
148, 0, 0, 3232.280517578125
149, 0, 0, 2982.574951171875
150, 0, 0, 2791.28076171875
151, 0, 0, 2635.33642578125
152, 0, 0, 2508.908203125
153, 0, 0, 2396.3544921875
154, 0, 0, 2304.479736328125
155, 0, 0, 2218.45703125
156, 0, 0, 2151.403564453125
157, 0, 0, 2088.096435546875
158, 0, 0, 2024.832641601562
159, 0, 0, 1968.007690429688
160, 0, 0, 1922.439575195312
161, 0, 0, 1872.632934570312
162, 0, 0, 1832.095947265625
163, 0, 0, 1799.312377929688
164, 0, 0, 1764.862060546875
165, 0, 0, 1719.708129882812
166, 0, 0, 1696.534423828125
167, 0, 0, 1665.962158203125
168, 0, 0, 1640.689086914062
169, 0, 0, 1608.217041015625
170, 0, 0, 1592.473388671875
171, 0, 0, 1564.087158203125
172, 0, 0, 1541.381591796875
173, 0, 0, 1519.393920898438
174, 0, 0, 1497.923095703125
175, 0, 0, 1476.631225585938
176, 0, 0, 1450.670166015625
177, 0, 0, 1433.34619140625
178, 0, 0, 1426.025268554688
179, 0, 0, 1406.519897460938
