# TOPAS Version: 3.3.p1
# Parameter File: Test.txt
# Results for scorer MLIC_Scorer
# Scored in component: MLIC
# X in 180 bins of 0.177778 cm
# Y in 1 bin  of 10 cm
# Z in 1 bin  of 10 cm
# EnergyDeposit ( MeV ) : Sum   
0, 0, 0, 0
1, 0, 0, 0
2, 0, 0, 0
3, 0, 0, 0
4, 0, 0, 0
5, 0, 0, 0
6, 0, 0, 0
7, 0, 0, 0
8, 0, 0, 0
9, 0, 0, 0
10, 0, 0, 0
11, 0, 0, 0
12, 0, 0, 0
13, 0, 0, 0
14, 0, 0, 0
15, 0, 0, 0
16, 0, 0, 0
17, 0, 0, 0
18, 0, 0, 0
19, 0, 0, 0
20, 0, 0, 0
21, 0, 0, 0
22, 0, 0, 0
23, 0, 0, 0
24, 0, 0, 0
25, 0, 0, 0
26, 0, 0, 0
27, 0, 0, 0
28, 0, 0, 0
29, 0, 0, 0
30, 0, 0, 0
31, 0, 0, 0
32, 0, 0, 0
33, 0, 0, 0
34, 0, 0, 0
35, 0, 0, 0
36, 0, 0, 0
37, 0, 0, 0
38, 0, 0, 0
39, 0, 0, 0
40, 0, 0, 0
41, 0, 0, 0
42, 0, 0, 0
43, 0, 0, 0
44, 0, 0, 0
45, 0, 0, 0
46, 0, 0, 0
47, 0, 0, 0
48, 0, 0, 0
49, 0, 0, 0
50, 0, 0, 0
51, 0, 0, 0
52, 0, 0, 0
53, 0, 0, 0
54, 0, 0, 0
55, 0, 0, 0
56, 0, 0, 0
57, 0, 0, 0
58, 0, 0, 0
59, 0, 0, 0
60, 0, 0, 0
61, 0, 0, 0
62, 0, 0, 0
63, 0, 0, 0
64, 0, 0, 0
65, 0, 0, 0
66, 0, 0, 0
67, 0, 0, 0
68, 0, 0, 0
69, 0, 0, 0
70, 0, 0, 0
71, 0, 0, 0
72, 0, 0, 0
73, 0, 0, 0
74, 0, 0, 0
75, 0, 0, 0
76, 0, 0, 0
77, 0, 0, 0
78, 0, 0, 0
79, 0, 0, 0
80, 0, 0, 0
81, 0, 0, 0
82, 0, 0, 0
83, 0, 0, 0
84, 0, 0, 0
85, 0, 0, 0
86, 0, 0, 0
87, 0, 0, 0
88, 0, 0, 0
89, 0, 0, 0
90, 0, 0, 0
91, 0, 0, 0
92, 0, 0, 0
93, 0, 0, 10.01772785186768
94, 0, 0, 27.04942512512207
95, 0, 0, 42.43984603881836
96, 0, 0, 176.7342834472656
97, 0, 0, 237.8817443847656
98, 0, 0, 357.1412353515625
99, 0, 0, 397.5320434570312
100, 0, 0, 348.0865173339844
101, 0, 0, 300.7432556152344
102, 0, 0, 254.280029296875
103, 0, 0, 230.9082489013672
104, 0, 0, 211.2623748779297
105, 0, 0, 198.3762512207031
106, 0, 0, 185.764404296875
107, 0, 0, 177.9256134033203
108, 0, 0, 170.6561279296875
109, 0, 0, 163.2052764892578
110, 0, 0, 156.3826904296875
111, 0, 0, 150.0044403076172
112, 0, 0, 147.2048492431641
113, 0, 0, 142.4068145751953
114, 0, 0, 138.0840454101562
115, 0, 0, 135.1573486328125
116, 0, 0, 131.3828887939453
117, 0, 0, 130.4491271972656
118, 0, 0, 125.8472595214844
119, 0, 0, 123.4622955322266
120, 0, 0, 120.7292556762695
121, 0, 0, 120.2191314697266
122, 0, 0, 114.5107269287109
123, 0, 0, 113.5714340209961
124, 0, 0, 113.0953903198242
125, 0, 0, 111.1753768920898
126, 0, 0, 111.140739440918
127, 0, 0, 109.0743560791016
128, 0, 0, 106.2521896362305
129, 0, 0, 103.6002731323242
130, 0, 0, 104.1835403442383
131, 0, 0, 101.554328918457
132, 0, 0, 102.1345901489258
133, 0, 0, 99.15052795410156
134, 0, 0, 100.0540924072266
135, 0, 0, 97.45097351074219
136, 0, 0, 96.62618255615234
137, 0, 0, 93.76344299316406
138, 0, 0, 93.92459869384766
139, 0, 0, 93.37673950195312
140, 0, 0, 93.94417572021484
141, 0, 0, 91.15035247802734
142, 0, 0, 89.84680938720703
143, 0, 0, 88.623291015625
144, 0, 0, 89.28954315185547
145, 0, 0, 89.77912139892578
146, 0, 0, 88.20408630371094
147, 0, 0, 87.84149932861328
148, 0, 0, 85.70868682861328
149, 0, 0, 85.68595886230469
150, 0, 0, 86.03407287597656
151, 0, 0, 84.38626098632812
152, 0, 0, 83.43943786621094
153, 0, 0, 81.12667083740234
154, 0, 0, 82.90423583984375
155, 0, 0, 80.30976104736328
156, 0, 0, 78.27505493164062
157, 0, 0, 80.58710479736328
158, 0, 0, 79.4990234375
159, 0, 0, 78.78569793701172
160, 0, 0, 77.88864135742188
161, 0, 0, 79.23714447021484
162, 0, 0, 77.54984283447266
163, 0, 0, 76.8504638671875
164, 0, 0, 77.84723663330078
165, 0, 0, 78.92488098144531
166, 0, 0, 75.90696716308594
167, 0, 0, 73.16646575927734
168, 0, 0, 72.67716979980469
169, 0, 0, 75.26970672607422
170, 0, 0, 73.58111572265625
171, 0, 0, 75.85128021240234
172, 0, 0, 74.93138885498047
173, 0, 0, 71.83333587646484
174, 0, 0, 73.03794860839844
175, 0, 0, 72.86318969726562
176, 0, 0, 69.76570892333984
177, 0, 0, 75.42784881591797
178, 0, 0, 69.49761199951172
179, 0, 0, 71.46643829345703
