# TOPAS Version: 3.3.p1
# Parameter File: Test.txt
# Results for scorer MLIC_Scorer
# Scored in component: MLIC
# X in 180 bins of 0.177778 cm
# Y in 1 bin  of 10 cm
# Z in 1 bin  of 10 cm
# EnergyDeposit ( MeV ) : Sum   
0, 0, 0, 0
1, 0, 0, 0
2, 0, 0, 0
3, 0, 0, 0
4, 0, 0, 0
5, 0, 0, 0
6, 0, 0, 0
7, 0, 0, 0
8, 0, 0, 0
9, 0, 0, 0
10, 0, 0, 0
11, 0, 0, 0
12, 0, 0, 0
13, 0, 0, 0
14, 0, 0, 0
15, 0, 0, 0
16, 0, 0, 0
17, 0, 0, 0
18, 0, 0, 0
19, 0, 0, 0
20, 0, 0, 0
21, 0, 0, 0
22, 0, 0, 0
23, 0, 0, 0
24, 0, 0, 0
25, 0, 0, 0
26, 0, 0, 0
27, 0, 0, 0
28, 0, 0, 0
29, 0, 0, 0
30, 0, 0, 0
31, 0, 0, 0
32, 0, 0, 0
33, 0, 0, 0
34, 0, 0, 0
35, 0, 0, 0
36, 0, 0, 0
37, 0, 0, 0
38, 0, 0, 0
39, 0, 0, 0
40, 0, 0, 0
41, 0, 0, 0
42, 0, 0, 0
43, 0, 0, 0
44, 0, 0, 0
45, 0, 0, 0
46, 0, 0, 0
47, 0, 0, 0
48, 0, 0, 0
49, 0, 0, 0
50, 0, 0, 0
51, 0, 0, 0
52, 0, 0, 0
53, 0, 0, 0
54, 0, 0, 0
55, 0, 0, 0
56, 0, 0, 0
57, 0, 0, 0
58, 0, 0, 0
59, 0, 0, 0
60, 0, 0, 0
61, 0, 0, 0
62, 0, 0, 0
63, 0, 0, 0
64, 0, 0, 0
65, 0, 0, 0
66, 0, 0, 0
67, 0, 0, 0
68, 0, 0, 0
69, 0, 0, 0
70, 0, 0, 0
71, 0, 0, 0
72, 0, 0, 0
73, 0, 0, 0
74, 0, 0, 0
75, 0, 0, 0
76, 0, 0, 0
77, 0, 0, 0
78, 0, 0, 0
79, 0, 0, 0
80, 0, 0, 0
81, 0, 0, 0
82, 0, 0, 0
83, 0, 0, 0
84, 0, 0, 0
85, 0, 0, 0
86, 0, 0, 0
87, 0, 0, 0
88, 0, 0, 0
89, 0, 0, 0
90, 0, 0, 0
91, 0, 0, 0
92, 0, 0, 0.004174737725406885
93, 0, 0, 0
94, 0, 0, 0.02256208285689354
95, 0, 0, 0
96, 0, 0, 0.01402376312762499
97, 0, 0, 0.002627982059493661
98, 0, 0, 0
99, 0, 0, 0
100, 0, 0, 0.001371931401081383
101, 0, 0, 0
102, 0, 0, 0
103, 0, 0, 0
104, 0, 0, 0
105, 0, 0, 0
106, 0, 0, 0
107, 0, 0, 0
108, 0, 0, 0
109, 0, 0, 0
110, 0, 0, 0
111, 0, 0, 0.0001749892544467002
112, 0, 0, 0.0001041667201207019
113, 0, 0, 0
114, 0, 0, 0
115, 0, 0, 0
116, 0, 0, 0
117, 0, 0, 0
118, 0, 0, 18.22451400756836
119, 0, 0, 83.59508514404297
120, 0, 0, 419.5461730957031
121, 0, 0, 1313.54443359375
122, 0, 0, 2682.72021484375
123, 0, 0, 4022.43212890625
124, 0, 0, 4820.9951171875
125, 0, 0, 4959.9716796875
126, 0, 0, 4565.78857421875
127, 0, 0, 4049.271728515625
128, 0, 0, 3630.735595703125
129, 0, 0, 3253.97119140625
130, 0, 0, 2985.1611328125
131, 0, 0, 2785.583740234375
132, 0, 0, 2623.4228515625
133, 0, 0, 2492.9150390625
134, 0, 0, 2384.3974609375
135, 0, 0, 2283.410400390625
136, 0, 0, 2192.370849609375
137, 0, 0, 2122.93994140625
138, 0, 0, 2055.8701171875
139, 0, 0, 2004.6904296875
140, 0, 0, 1954.296508789062
141, 0, 0, 1893.534423828125
142, 0, 0, 1852.012084960938
143, 0, 0, 1814.08740234375
144, 0, 0, 1772.296875
145, 0, 0, 1738.87255859375
146, 0, 0, 1701.129760742188
147, 0, 0, 1672.466186523438
148, 0, 0, 1644.555786132812
149, 0, 0, 1615.88916015625
150, 0, 0, 1582.777221679688
151, 0, 0, 1560.548217773438
152, 0, 0, 1533.353149414062
153, 0, 0, 1506.998046875
154, 0, 0, 1487.85546875
155, 0, 0, 1471.90673828125
156, 0, 0, 1459.77783203125
157, 0, 0, 1435.9609375
158, 0, 0, 1421.623291015625
159, 0, 0, 1402.09228515625
160, 0, 0, 1388.235961914062
161, 0, 0, 1362.754638671875
162, 0, 0, 1354.860229492188
163, 0, 0, 1342.863891601562
164, 0, 0, 1332.074951171875
165, 0, 0, 1308.177978515625
166, 0, 0, 1304.115966796875
167, 0, 0, 1282.049438476562
168, 0, 0, 1277.768188476562
169, 0, 0, 1272.168823242188
170, 0, 0, 1257.370971679688
171, 0, 0, 1238.653442382812
172, 0, 0, 1232.743774414062
173, 0, 0, 1219.067749023438
174, 0, 0, 1208.171752929688
175, 0, 0, 1197.496337890625
176, 0, 0, 1189.229736328125
177, 0, 0, 1181.639526367188
178, 0, 0, 1178.180053710938
179, 0, 0, 1167.16455078125
