# TOPAS Version: 3.3.p1
# Parameter File: Test.txt
# Results for scorer MLIC_Scorer
# Scored in component: MLIC
# X in 180 bins of 0.183333 cm
# Y in 1 bin  of 10 cm
# Z in 1 bin  of 10 cm
# EnergyDeposit ( MeV ) : Sum   
0, 0, 0, 0
1, 0, 0, 0
2, 0, 0, 0
3, 0, 0, 0
4, 0, 0, 0
5, 0, 0, 0
6, 0, 0, 0
7, 0, 0, 0
8, 0, 0, 0
9, 0, 0, 0
10, 0, 0, 0
11, 0, 0, 0
12, 0, 0, 0
13, 0, 0, 0
14, 0, 0, 0
15, 0, 0, 0
16, 0, 0, 0
17, 0, 0, 0
18, 0, 0, 0
19, 0, 0, 0
20, 0, 0, 0
21, 0, 0, 0
22, 0, 0, 0
23, 0, 0, 0
24, 0, 0, 0
25, 0, 0, 0
26, 0, 0, 0
27, 0, 0, 0
28, 0, 0, 0
29, 0, 0, 0
30, 0, 0, 0
31, 0, 0, 0
32, 0, 0, 0
33, 0, 0, 0
34, 0, 0, 0
35, 0, 0, 0
36, 0, 0, 0
37, 0, 0, 0
38, 0, 0, 0
39, 0, 0, 0
40, 0, 0, 0
41, 0, 0, 0
42, 0, 0, 0
43, 0, 0, 0
44, 0, 0, 0
45, 0, 0, 0
46, 0, 0, 0
47, 0, 0, 0
48, 0, 0, 0
49, 0, 0, 0
50, 0, 0, 0
51, 0, 0, 0
52, 0, 0, 0
53, 0, 0, 0
54, 0, 0, 0
55, 0, 0, 0
56, 0, 0, 0
57, 0, 0, 0
58, 0, 0, 0
59, 0, 0, 0
60, 0, 0, 0
61, 0, 0, 0
62, 0, 0, 0
63, 0, 0, 0
64, 0, 0, 0
65, 0, 0, 0
66, 0, 0, 0
67, 0, 0, 0
68, 0, 0, 0
69, 0, 0, 0
70, 0, 0, 0
71, 0, 0, 0
72, 0, 0, 0
73, 0, 0, 0
74, 0, 0, 0
75, 0, 0, 0
76, 0, 0, 0
77, 0, 0, 0
78, 0, 0, 0
79, 0, 0, 0
80, 0, 0, 0
81, 0, 0, 0
82, 0, 0, 0
83, 0, 0, 0
84, 0, 0, 0
85, 0, 0, 0
86, 0, 0, 0
87, 0, 0, 0
88, 0, 0, 0
89, 0, 0, 0
90, 0, 0, 0
91, 0, 0, 0
92, 0, 0, 0
93, 0, 0, 0
94, 0, 0, 0
95, 0, 0, 0
96, 0, 0, 0
97, 0, 0, 0
98, 0, 0, 0
99, 0, 0, 0
100, 0, 0, 0
101, 0, 0, 0
102, 0, 0, 0
103, 0, 0, 0
104, 0, 0, 0
105, 0, 0, 0
106, 0, 0, 0
107, 0, 0, 0
108, 0, 0, 0
109, 0, 0, 0
110, 0, 0, 0
111, 0, 0, 0
112, 0, 0, 0
113, 0, 0, 0
114, 0, 0, 0
115, 0, 0, 0.01882716082036495
116, 0, 0, 0
117, 0, 0, 0
118, 0, 0, 0
119, 0, 0, 0
120, 0, 0, 0
121, 0, 0, 0
122, 0, 0, 0
123, 0, 0, 0
124, 0, 0, 0
125, 0, 0, 0
126, 0, 0, 0
127, 0, 0, 0
128, 0, 0, 0
129, 0, 0, 8.520936012268066
130, 0, 0, 63.27924346923828
131, 0, 0, 282.8281860351562
132, 0, 0, 1055.682373046875
133, 0, 0, 2244.153076171875
134, 0, 0, 3701.9404296875
135, 0, 0, 4997.7666015625
136, 0, 0, 5403.36181640625
137, 0, 0, 4861.744140625
138, 0, 0, 4203.33837890625
139, 0, 0, 3703.9189453125
140, 0, 0, 3343.638427734375
141, 0, 0, 3068.4052734375
142, 0, 0, 2851.2861328125
143, 0, 0, 2687.8994140625
144, 0, 0, 2551.849853515625
145, 0, 0, 2434.53125
146, 0, 0, 2333.506103515625
147, 0, 0, 2260.791259765625
148, 0, 0, 2175.549560546875
149, 0, 0, 2114.910888671875
150, 0, 0, 2047.030639648438
151, 0, 0, 1984.566284179688
152, 0, 0, 1941.586547851562
153, 0, 0, 1885.915893554688
154, 0, 0, 1846.482177734375
155, 0, 0, 1807.386840820312
156, 0, 0, 1780.090209960938
157, 0, 0, 1739.020263671875
158, 0, 0, 1705.413696289062
159, 0, 0, 1672.605102539062
160, 0, 0, 1645.501708984375
161, 0, 0, 1621.702026367188
162, 0, 0, 1591.891479492188
163, 0, 0, 1569.01953125
164, 0, 0, 1551.602172851562
165, 0, 0, 1524.73046875
166, 0, 0, 1497.285278320312
167, 0, 0, 1491.491333007812
168, 0, 0, 1458.453369140625
169, 0, 0, 1441.147583007812
170, 0, 0, 1428.015747070312
171, 0, 0, 1411.552368164062
172, 0, 0, 1398.078979492188
173, 0, 0, 1391.359985351562
174, 0, 0, 1373.736450195312
175, 0, 0, 1346.734619140625
176, 0, 0, 1338.910034179688
177, 0, 0, 1330.4111328125
178, 0, 0, 1313.9560546875
179, 0, 0, 1304.537109375
