# TOPAS Version: 3.3.p1
# Parameter File: Test.txt
# Results for scorer MLIC_Scorer
# Scored in component: MLIC
# X in 180 bins of 0.177778 cm
# Y in 1 bin  of 10 cm
# Z in 1 bin  of 10 cm
# EnergyDeposit ( MeV ) : Sum   
0, 0, 0, 0
1, 0, 0, 0
2, 0, 0, 0
3, 0, 0, 0
4, 0, 0, 0
5, 0, 0, 0
6, 0, 0, 0
7, 0, 0, 0
8, 0, 0, 0
9, 0, 0, 0
10, 0, 0, 0
11, 0, 0, 0
12, 0, 0, 0
13, 0, 0, 0
14, 0, 0, 0
15, 0, 0, 0
16, 0, 0, 0
17, 0, 0, 0
18, 0, 0, 0
19, 0, 0, 0
20, 0, 0, 0
21, 0, 0, 0
22, 0, 0, 0
23, 0, 0, 0
24, 0, 0, 0
25, 0, 0, 0
26, 0, 0, 0
27, 0, 0, 0
28, 0, 0, 0
29, 0, 0, 0
30, 0, 0, 0
31, 0, 0, 0.02994788065552711
32, 0, 0, 0
33, 0, 0, 0
34, 0, 0, 0
35, 0, 0, 0
36, 0, 0, 0
37, 0, 0, 0
38, 0, 0, 0
39, 0, 0, 0
40, 0, 0, 0
41, 0, 0, 0
42, 0, 0, 0.003621560288593173
43, 0, 0, 0.05757452547550201
44, 0, 0, 0
45, 0, 0, 0
46, 0, 0, 0
47, 0, 0, 0
48, 0, 0, 0
49, 0, 0, 0
50, 0, 0, 0
51, 0, 0, 0
52, 0, 0, 0
53, 0, 0, 0
54, 0, 0, 0
55, 0, 0, 0
56, 0, 0, 0.007241618819534779
57, 0, 0, 24.24728393554688
58, 0, 0, 129.4819030761719
59, 0, 0, 695.0499267578125
60, 0, 0, 1498.416625976562
61, 0, 0, 2744.916259765625
62, 0, 0, 4111.0458984375
63, 0, 0, 4974.64208984375
64, 0, 0, 4887.4853515625
65, 0, 0, 4570.10693359375
66, 0, 0, 4017.309326171875
67, 0, 0, 3543.9951171875
68, 0, 0, 3193.997802734375
69, 0, 0, 2935.197265625
70, 0, 0, 2744.4736328125
71, 0, 0, 2596.5107421875
72, 0, 0, 2475.22314453125
73, 0, 0, 2369.1181640625
74, 0, 0, 2266.4384765625
75, 0, 0, 2192.8349609375
76, 0, 0, 2105.487548828125
77, 0, 0, 2048.1064453125
78, 0, 0, 1994.427734375
79, 0, 0, 1939.0029296875
80, 0, 0, 1885.768310546875
81, 0, 0, 1848.755615234375
82, 0, 0, 1806.447875976562
83, 0, 0, 1776.397827148438
84, 0, 0, 1730.621215820312
85, 0, 0, 1695.342895507812
86, 0, 0, 1670.58837890625
87, 0, 0, 1633.374633789062
88, 0, 0, 1608.3076171875
89, 0, 0, 1581.450439453125
90, 0, 0, 1558.699951171875
91, 0, 0, 1540.387084960938
92, 0, 0, 1516.525390625
93, 0, 0, 1491.697143554688
94, 0, 0, 1475.432006835938
95, 0, 0, 1456.1826171875
96, 0, 0, 1436.261108398438
97, 0, 0, 1425.654052734375
98, 0, 0, 1399.181762695312
99, 0, 0, 1378.826171875
100, 0, 0, 1369.127319335938
101, 0, 0, 1348.755493164062
102, 0, 0, 1337.139038085938
103, 0, 0, 1324.380249023438
104, 0, 0, 1307.968383789062
105, 0, 0, 1309.706787109375
106, 0, 0, 1285.269653320312
107, 0, 0, 1275.640991210938
108, 0, 0, 1256.007202148438
109, 0, 0, 1256.115478515625
110, 0, 0, 1237.237426757812
111, 0, 0, 1231.348876953125
112, 0, 0, 1218.96044921875
113, 0, 0, 1213.280029296875
114, 0, 0, 1203.953735351562
115, 0, 0, 1189.221557617188
116, 0, 0, 1175.031494140625
117, 0, 0, 1171.399658203125
118, 0, 0, 1159.857666015625
119, 0, 0, 1152.221313476562
120, 0, 0, 1142.74853515625
121, 0, 0, 1131.827758789062
122, 0, 0, 1134.517944335938
123, 0, 0, 1120.117553710938
124, 0, 0, 1115.908569335938
125, 0, 0, 1111.000732421875
126, 0, 0, 1102.079345703125
127, 0, 0, 1095.89697265625
128, 0, 0, 1088.714599609375
129, 0, 0, 1079.830200195312
130, 0, 0, 1071.742553710938
131, 0, 0, 1068.213500976562
132, 0, 0, 1060.710693359375
133, 0, 0, 1056.567749023438
134, 0, 0, 1039.078491210938
135, 0, 0, 1039.982666015625
136, 0, 0, 1038.2568359375
137, 0, 0, 1026.831787109375
138, 0, 0, 1021.171875
139, 0, 0, 1019.26611328125
140, 0, 0, 1013.880249023438
141, 0, 0, 1012.225036621094
142, 0, 0, 1007.479309082031
143, 0, 0, 1001.770690917969
144, 0, 0, 988.5252685546875
145, 0, 0, 991.765380859375
146, 0, 0, 985.6302490234375
147, 0, 0, 987.0267333984375
148, 0, 0, 974.02294921875
149, 0, 0, 974.2169189453125
150, 0, 0, 968.897216796875
151, 0, 0, 963.9759521484375
152, 0, 0, 956.4036865234375
153, 0, 0, 954.537841796875
154, 0, 0, 951.6371459960938
155, 0, 0, 943.22802734375
156, 0, 0, 943.38916015625
157, 0, 0, 940.2617797851562
158, 0, 0, 936.5713500976562
159, 0, 0, 932.9295654296875
160, 0, 0, 928.9833984375
161, 0, 0, 922.15380859375
162, 0, 0, 923.6966552734375
163, 0, 0, 923.7332763671875
164, 0, 0, 922.546142578125
165, 0, 0, 911.68994140625
166, 0, 0, 901.3505249023438
167, 0, 0, 898.0442504882812
168, 0, 0, 910.9627685546875
169, 0, 0, 897.6753540039062
170, 0, 0, 894.4306030273438
171, 0, 0, 885.969970703125
172, 0, 0, 895.4258422851562
173, 0, 0, 877.579345703125
174, 0, 0, 877.8053588867188
175, 0, 0, 874.9790649414062
176, 0, 0, 873.9965209960938
177, 0, 0, 876.4111938476562
178, 0, 0, 863.7745361328125
179, 0, 0, 865.0205688476562
