# TOPAS Version: 3.3.p1
# Parameter File: Test.txt
# Results for scorer MLIC_Scorer
# Scored in component: MLIC
# X in 180 bins of 0.177778 cm
# Y in 1 bin  of 10 cm
# Z in 1 bin  of 10 cm
# EnergyDeposit ( MeV ) : Sum   
0, 0, 0, 0
1, 0, 0, 0
2, 0, 0, 0
3, 0, 0, 0
4, 0, 0, 0
5, 0, 0, 0
6, 0, 0, 0
7, 0, 0, 0
8, 0, 0, 0
9, 0, 0, 0
10, 0, 0, 0
11, 0, 0, 0
12, 0, 0, 0
13, 0, 0, 0
14, 0, 0, 0
15, 0, 0, 0
16, 0, 0, 0
17, 0, 0, 0
18, 0, 0, 0
19, 0, 0, 0
20, 0, 0, 0
21, 0, 0, 0
22, 0, 0, 0
23, 0, 0, 0
24, 0, 0, 0
25, 0, 0, 0
26, 0, 0, 0
27, 0, 0, 0
28, 0, 0, 0
29, 0, 0, 0
30, 0, 0, 0
31, 0, 0, 0
32, 0, 0, 0
33, 0, 0, 0
34, 0, 0, 0
35, 0, 0, 0
36, 0, 0, 0
37, 0, 0, 0
38, 0, 0, 0
39, 0, 0, 0
40, 0, 0, 0
41, 0, 0, 0
42, 0, 0, 0
43, 0, 0, 0
44, 0, 0, 0
45, 0, 0, 0
46, 0, 0, 0
47, 0, 0, 0
48, 0, 0, 0
49, 0, 0, 0
50, 0, 0, 0
51, 0, 0, 0
52, 0, 0, 0
53, 0, 0, 0
54, 0, 0, 0
55, 0, 0, 0
56, 0, 0, 0
57, 0, 0, 0
58, 0, 0, 0
59, 0, 0, 0
60, 0, 0, 0
61, 0, 0, 0
62, 0, 0, 0
63, 0, 0, 0
64, 0, 0, 0
65, 0, 0, 0
66, 0, 0, 0
67, 0, 0, 0
68, 0, 0, 0
69, 0, 0, 0
70, 0, 0, 0
71, 0, 0, 0
72, 0, 0, 0.02544299699366093
73, 0, 0, 0.0468299388885498
74, 0, 0, 0.004669312853366137
75, 0, 0, 0
76, 0, 0, 26.6745662689209
77, 0, 0, 72.08884429931641
78, 0, 0, 265.7275085449219
79, 0, 0, 596.419189453125
80, 0, 0, 1535.749145507812
81, 0, 0, 2726.783203125
82, 0, 0, 4265.37451171875
83, 0, 0, 5006.6708984375
84, 0, 0, 5090.1005859375
85, 0, 0, 4580.94482421875
86, 0, 0, 3917.281494140625
87, 0, 0, 3465.739501953125
88, 0, 0, 3155.3447265625
89, 0, 0, 2909.108154296875
90, 0, 0, 2727.6591796875
91, 0, 0, 2578.188232421875
92, 0, 0, 2450.580810546875
93, 0, 0, 2352.441650390625
94, 0, 0, 2262.992431640625
95, 0, 0, 2175.3974609375
96, 0, 0, 2110.25634765625
97, 0, 0, 2049.692626953125
98, 0, 0, 1987.630004882812
99, 0, 0, 1931.375
100, 0, 0, 1890.33740234375
101, 0, 0, 1837.4287109375
102, 0, 0, 1799.885986328125
103, 0, 0, 1762.559936523438
104, 0, 0, 1731.793334960938
105, 0, 0, 1694.261840820312
106, 0, 0, 1661.212158203125
107, 0, 0, 1633.634155273438
108, 0, 0, 1612.986694335938
109, 0, 0, 1580.162963867188
110, 0, 0, 1553.6630859375
111, 0, 0, 1535.264892578125
112, 0, 0, 1502.041870117188
113, 0, 0, 1490.275024414062
114, 0, 0, 1472.789916992188
115, 0, 0, 1445.730346679688
116, 0, 0, 1433.759399414062
117, 0, 0, 1418.152709960938
118, 0, 0, 1392.234130859375
119, 0, 0, 1380.704833984375
120, 0, 0, 1365.758056640625
121, 0, 0, 1348.826049804688
122, 0, 0, 1338.904907226562
123, 0, 0, 1324.472412109375
124, 0, 0, 1308.231811523438
125, 0, 0, 1301.508178710938
126, 0, 0, 1286.512573242188
127, 0, 0, 1262.942138671875
128, 0, 0, 1259.37841796875
129, 0, 0, 1247.09130859375
130, 0, 0, 1238.121948242188
131, 0, 0, 1233.353515625
132, 0, 0, 1224.917846679688
133, 0, 0, 1204.87890625
134, 0, 0, 1207.83544921875
135, 0, 0, 1186.540161132812
136, 0, 0, 1178.994750976562
137, 0, 0, 1165.205688476562
138, 0, 0, 1155.505126953125
139, 0, 0, 1153.063842773438
140, 0, 0, 1153.974243164062
141, 0, 0, 1141.007446289062
142, 0, 0, 1134.572265625
143, 0, 0, 1122.933227539062
144, 0, 0, 1112.104736328125
145, 0, 0, 1104.787841796875
146, 0, 0, 1094.001342773438
147, 0, 0, 1088.542846679688
148, 0, 0, 1090.507934570312
149, 0, 0, 1077.943237304688
150, 0, 0, 1071.755859375
151, 0, 0, 1066.787475585938
152, 0, 0, 1065.81640625
153, 0, 0, 1054.158203125
154, 0, 0, 1040.582275390625
155, 0, 0, 1034.990600585938
156, 0, 0, 1037.062622070312
157, 0, 0, 1026.730224609375
158, 0, 0, 1023.708435058594
159, 0, 0, 1015.021850585938
160, 0, 0, 1015.480285644531
161, 0, 0, 1006.409606933594
162, 0, 0, 1004.708618164062
163, 0, 0, 999.6376953125
164, 0, 0, 995.95068359375
165, 0, 0, 990.3518676757812
166, 0, 0, 991.3106689453125
167, 0, 0, 979.8185424804688
168, 0, 0, 973.43505859375
169, 0, 0, 974.8733520507812
170, 0, 0, 973.8265380859375
171, 0, 0, 960.8104858398438
172, 0, 0, 964.3585815429688
173, 0, 0, 957.4221801757812
174, 0, 0, 947.1201782226562
175, 0, 0, 945.951416015625
176, 0, 0, 944.0515747070312
177, 0, 0, 940.4946899414062
178, 0, 0, 932.8524169921875
179, 0, 0, 941.3587646484375
