# TOPAS Version: 3.3.p1
# Parameter File: Test.txt
# Results for scorer MLIC_Scorer
# Scored in component: MLIC
# X in 180 bins of 0.177778 cm
# Y in 1 bin  of 10 cm
# Z in 1 bin  of 10 cm
# EnergyDeposit ( MeV ) : Sum   
0, 0, 0, 0
1, 0, 0, 0
2, 0, 0, 0
3, 0, 0, 0
4, 0, 0, 0
5, 0, 0, 0
6, 0, 0, 0.02281059138476849
7, 0, 0, 0
8, 0, 0, 0
9, 0, 0, 0
10, 0, 0, 0
11, 0, 0, 0
12, 0, 0, 0
13, 0, 0, 0
14, 0, 0, 0
15, 0, 0, 0
16, 0, 0, 0
17, 0, 0, 0.03442950174212456
18, 0, 0, 0
19, 0, 0, 0.0007550052832812071
20, 0, 0, 0
21, 0, 0, 0
22, 0, 0, 0
23, 0, 0, 0
24, 0, 0, 0
25, 0, 0, 0
26, 0, 0, 0
27, 0, 0, 0
28, 0, 0, 0
29, 0, 0, 0
30, 0, 0, 0
31, 0, 0, 0
32, 0, 0, 0
33, 0, 0, 0
34, 0, 0, 0
35, 0, 0, 0
36, 0, 0, 0
37, 0, 0, 5.73969554901123
38, 0, 0, 22.55298233032227
39, 0, 0, 129.1313934326172
40, 0, 0, 434.2027893066406
41, 0, 0, 1322.66748046875
42, 0, 0, 2777.34130859375
43, 0, 0, 4098.71484375
44, 0, 0, 4783.43701171875
45, 0, 0, 4897.6142578125
46, 0, 0, 4655.0634765625
47, 0, 0, 4051.572265625
48, 0, 0, 3599.036865234375
49, 0, 0, 3230.560546875
50, 0, 0, 2963.00634765625
51, 0, 0, 2771.165283203125
52, 0, 0, 2609.884521484375
53, 0, 0, 2483.56689453125
54, 0, 0, 2379.7294921875
55, 0, 0, 2285.591064453125
56, 0, 0, 2193.85009765625
57, 0, 0, 2131.521728515625
58, 0, 0, 2059.49853515625
59, 0, 0, 1998.210327148438
60, 0, 0, 1949.104736328125
61, 0, 0, 1899.277221679688
62, 0, 0, 1850.148559570312
63, 0, 0, 1807.320922851562
64, 0, 0, 1768.354736328125
65, 0, 0, 1741.702880859375
66, 0, 0, 1695.348388671875
67, 0, 0, 1675.003173828125
68, 0, 0, 1636.542114257812
69, 0, 0, 1610.546142578125
70, 0, 0, 1585.669067382812
71, 0, 0, 1566.200073242188
72, 0, 0, 1534.06298828125
73, 0, 0, 1508.860595703125
74, 0, 0, 1493.152587890625
75, 0, 0, 1470.337890625
76, 0, 0, 1459.8046875
77, 0, 0, 1435.81494140625
78, 0, 0, 1421.974365234375
79, 0, 0, 1397.860717773438
80, 0, 0, 1381.09521484375
81, 0, 0, 1369.931762695312
82, 0, 0, 1352.600952148438
83, 0, 0, 1333.693359375
84, 0, 0, 1320.537109375
85, 0, 0, 1307.491577148438
86, 0, 0, 1299.259765625
87, 0, 0, 1287.256225585938
88, 0, 0, 1272.907104492188
89, 0, 0, 1264.385375976562
90, 0, 0, 1246.701416015625
91, 0, 0, 1235.0546875
92, 0, 0, 1226.897094726562
93, 0, 0, 1220.5625
94, 0, 0, 1204.710327148438
95, 0, 0, 1203.557861328125
96, 0, 0, 1190.765869140625
97, 0, 0, 1174.50341796875
98, 0, 0, 1173.311767578125
99, 0, 0, 1149.751586914062
100, 0, 0, 1158.380126953125
101, 0, 0, 1143.45654296875
102, 0, 0, 1142.917724609375
103, 0, 0, 1129.052612304688
104, 0, 0, 1117.816772460938
105, 0, 0, 1115.430541992188
106, 0, 0, 1108.646606445312
107, 0, 0, 1100.769653320312
108, 0, 0, 1089.353881835938
109, 0, 0, 1091.030883789062
110, 0, 0, 1075.768188476562
111, 0, 0, 1067.191650390625
112, 0, 0, 1067.452026367188
113, 0, 0, 1065.325927734375
114, 0, 0, 1048.346557617188
115, 0, 0, 1054.305786132812
116, 0, 0, 1039.376953125
117, 0, 0, 1036.819580078125
118, 0, 0, 1027.034301757812
119, 0, 0, 1022.353637695312
120, 0, 0, 1025.914794921875
121, 0, 0, 1017.336242675781
122, 0, 0, 1012.838439941406
123, 0, 0, 1001.024475097656
124, 0, 0, 1005.258239746094
125, 0, 0, 989.0647583007812
126, 0, 0, 996.989501953125
127, 0, 0, 984.3726806640625
128, 0, 0, 985.73046875
129, 0, 0, 975.1301879882812
130, 0, 0, 977.7615356445312
131, 0, 0, 965.4996948242188
132, 0, 0, 972.91064453125
133, 0, 0, 969.0523071289062
134, 0, 0, 956.1818237304688
135, 0, 0, 953.8806762695312
136, 0, 0, 951.8439331054688
137, 0, 0, 947.5803833007812
138, 0, 0, 943.9598999023438
139, 0, 0, 934.3650512695312
140, 0, 0, 928.1830444335938
141, 0, 0, 936.9058837890625
142, 0, 0, 932.8060913085938
143, 0, 0, 920.2470092773438
144, 0, 0, 919.3801879882812
145, 0, 0, 916.7620239257812
146, 0, 0, 919.5325927734375
147, 0, 0, 907.745849609375
148, 0, 0, 903.0565795898438
149, 0, 0, 898.9258422851562
150, 0, 0, 891.96826171875
151, 0, 0, 888.0911254882812
152, 0, 0, 879.2240600585938
153, 0, 0, 890.241455078125
154, 0, 0, 885.9078369140625
155, 0, 0, 882.2255859375
156, 0, 0, 874.673583984375
157, 0, 0, 872.3065795898438
158, 0, 0, 870.5020141601562
159, 0, 0, 867.2485961914062
160, 0, 0, 869.0537109375
161, 0, 0, 866.6476440429688
162, 0, 0, 858.6675415039062
163, 0, 0, 861.81884765625
164, 0, 0, 847.201416015625
165, 0, 0, 851.1967163085938
166, 0, 0, 852.2716674804688
167, 0, 0, 847.9591674804688
168, 0, 0, 848.2374877929688
169, 0, 0, 842.9691772460938
170, 0, 0, 844.6982421875
171, 0, 0, 833.9567260742188
172, 0, 0, 829.0648193359375
173, 0, 0, 832.8223266601562
174, 0, 0, 828.925537109375
175, 0, 0, 825.06640625
176, 0, 0, 827.6911010742188
177, 0, 0, 826.2889404296875
178, 0, 0, 823.3422241210938
179, 0, 0, 824.1461181640625
