# TOPAS Version: 3.3.p1
# Parameter File: Test.txt
# Results for scorer MLIC_Scorer
# Scored in component: MLIC
# X in 180 bins of 0.177778 cm
# Y in 1 bin  of 10 cm
# Z in 1 bin  of 10 cm
# EnergyDeposit ( MeV ) : Sum   
0, 0, 0, 0
1, 0, 0, 0
2, 0, 0, 0
3, 0, 0, 0
4, 0, 0, 0
5, 0, 0, 0
6, 0, 0, 0
7, 0, 0, 0
8, 0, 0, 0
9, 0, 0, 0
10, 0, 0, 0
11, 0, 0, 0
12, 0, 0, 0
13, 0, 0, 0
14, 0, 0, 0
15, 0, 0, 0
16, 0, 0, 0
17, 0, 0, 0
18, 0, 0, 0
19, 0, 0, 0
20, 0, 0, 0
21, 0, 0, 0
22, 0, 0, 0
23, 0, 0, 0
24, 0, 0, 0
25, 0, 0, 0
26, 0, 0, 0
27, 0, 0, 0
28, 0, 0, 0
29, 0, 0, 0
30, 0, 0, 0
31, 0, 0, 0
32, 0, 0, 0
33, 0, 0, 0
34, 0, 0, 0
35, 0, 0, 0
36, 0, 0, 0
37, 0, 0, 0
38, 0, 0, 0
39, 0, 0, 0
40, 0, 0, 0
41, 0, 0, 0
42, 0, 0, 0
43, 0, 0, 0
44, 0, 0, 0
45, 0, 0, 0
46, 0, 0, 0
47, 0, 0, 0
48, 0, 0, 0
49, 0, 0, 0
50, 0, 0, 0
51, 0, 0, 0
52, 0, 0, 0
53, 0, 0, 0
54, 0, 0, 0
55, 0, 0, 0
56, 0, 0, 0
57, 0, 0, 0
58, 0, 0, 0
59, 0, 0, 0
60, 0, 0, 0
61, 0, 0, 0
62, 0, 0, 0
63, 0, 0, 0
64, 0, 0, 0
65, 0, 0, 0
66, 0, 0, 0
67, 0, 0, 0
68, 0, 0, 0
69, 0, 0, 0
70, 0, 0, 0
71, 0, 0, 0
72, 0, 0, 0
73, 0, 0, 0
74, 0, 0, 0
75, 0, 0, 0
76, 0, 0, 0
77, 0, 0, 0
78, 0, 0, 0
79, 0, 0, 0
80, 0, 0, 0
81, 0, 0, 0
82, 0, 0, 0
83, 0, 0, 0
84, 0, 0, 0
85, 0, 0, 0
86, 0, 0, 0
87, 0, 0, 0.03668320178985596
88, 0, 0, 0
89, 0, 0, 0
90, 0, 0, 0
91, 0, 0, 0
92, 0, 0, 0
93, 0, 0, 0
94, 0, 0, 0
95, 0, 0, 0.0150121608749032
96, 0, 0, 0
97, 0, 0, 0
98, 0, 0, 0
99, 0, 0, 0
100, 0, 0, 0
101, 0, 0, 0
102, 0, 0, 0.08555172383785248
103, 0, 0, 0.04049976915121078
104, 0, 0, 0.0312455240637064
105, 0, 0, 0
106, 0, 0, 0
107, 0, 0, 0
108, 0, 0, 0
109, 0, 0, 0
110, 0, 0, 0
111, 0, 0, 0
112, 0, 0, 0
113, 0, 0, 0
114, 0, 0, 0
115, 0, 0, 0
116, 0, 0, 0.00730894785374403
117, 0, 0, 0
118, 0, 0, 0
119, 0, 0, 0
120, 0, 0, 0
121, 0, 0, 0
122, 0, 0, 0
123, 0, 0, 0
124, 0, 0, 0
125, 0, 0, 0
126, 0, 0, 0
127, 0, 0, 0
128, 0, 0, 0
129, 0, 0, 0
130, 0, 0, 0
131, 0, 0, 0
132, 0, 0, 0
133, 0, 0, 0
134, 0, 0, 0
135, 0, 0, 0
136, 0, 0, 9.256173133850098
137, 0, 0, 29.63480758666992
138, 0, 0, 108.1388626098633
139, 0, 0, 165.1075134277344
140, 0, 0, 319.998046875
141, 0, 0, 393.1168823242188
142, 0, 0, 505.8274230957031
143, 0, 0, 467.3026123046875
144, 0, 0, 476.3316955566406
145, 0, 0, 387.6492004394531
146, 0, 0, 342.654296875
147, 0, 0, 318.1226501464844
148, 0, 0, 296.0349426269531
149, 0, 0, 274.4938354492188
150, 0, 0, 260.1783447265625
151, 0, 0, 247.6829833984375
152, 0, 0, 236.7460632324219
153, 0, 0, 228.0113372802734
154, 0, 0, 219.2886047363281
155, 0, 0, 211.9130706787109
156, 0, 0, 206.4127960205078
157, 0, 0, 200.3093719482422
158, 0, 0, 194.9195556640625
159, 0, 0, 189.7238922119141
160, 0, 0, 185.0422821044922
161, 0, 0, 181.6618957519531
162, 0, 0, 177.2764587402344
163, 0, 0, 173.5800018310547
164, 0, 0, 168.9570007324219
165, 0, 0, 167.3602752685547
166, 0, 0, 164.2295532226562
167, 0, 0, 162.5889129638672
168, 0, 0, 161.8126983642578
169, 0, 0, 155.3374938964844
170, 0, 0, 154.9903259277344
171, 0, 0, 152.5975189208984
172, 0, 0, 149.1230010986328
173, 0, 0, 149.3425750732422
174, 0, 0, 146.1020660400391
175, 0, 0, 143.2815093994141
176, 0, 0, 142.3091735839844
177, 0, 0, 142.6485595703125
178, 0, 0, 139.0168914794922
179, 0, 0, 139.3321075439453
