# TOPAS Version: 3.3.p1
# Parameter File: Test.txt
# Results for scorer MLIC_Scorer
# Scored in component: MLIC
# X in 180 bins of 0.183333 cm
# Y in 1 bin  of 10 cm
# Z in 1 bin  of 10 cm
# EnergyDeposit ( MeV ) : Sum   
0, 0, 0, 0
1, 0, 0, 0
2, 0, 0, 0
3, 0, 0, 0
4, 0, 0, 0
5, 0, 0, 0
6, 0, 0, 0
7, 0, 0, 0
8, 0, 0, 0
9, 0, 0, 0
10, 0, 0, 0
11, 0, 0, 0
12, 0, 0, 0
13, 0, 0, 0
14, 0, 0, 0
15, 0, 0, 0
16, 0, 0, 0
17, 0, 0, 0
18, 0, 0, 0
19, 0, 0, 0
20, 0, 0, 0
21, 0, 0, 0
22, 0, 0, 0
23, 0, 0, 0
24, 0, 0, 0
25, 0, 0, 0
26, 0, 0, 0
27, 0, 0, 0
28, 0, 0, 0
29, 0, 0, 0
30, 0, 0, 0
31, 0, 0, 0
32, 0, 0, 0
33, 0, 0, 0
34, 0, 0, 0
35, 0, 0, 0
36, 0, 0, 0
37, 0, 0, 0
38, 0, 0, 0
39, 0, 0, 0
40, 0, 0, 0
41, 0, 0, 0
42, 0, 0, 0
43, 0, 0, 0
44, 0, 0, 0
45, 0, 0, 0
46, 0, 0, 0
47, 0, 0, 0
48, 0, 0, 0
49, 0, 0, 0
50, 0, 0, 0
51, 0, 0, 0
52, 0, 0, 0
53, 0, 0, 0
54, 0, 0, 0
55, 0, 0, 0
56, 0, 0, 0
57, 0, 0, 0
58, 0, 0, 0
59, 0, 0, 0
60, 0, 0, 0
61, 0, 0, 0
62, 0, 0, 0
63, 0, 0, 0
64, 0, 0, 0
65, 0, 0, 0
66, 0, 0, 0
67, 0, 0, 0
68, 0, 0, 0
69, 0, 0, 0
70, 0, 0, 0
71, 0, 0, 0
72, 0, 0, 0
73, 0, 0, 0
74, 0, 0, 0
75, 0, 0, 0
76, 0, 0, 0
77, 0, 0, 0
78, 0, 0, 0
79, 0, 0, 0
80, 0, 0, 0
81, 0, 0, 0
82, 0, 0, 0.02049746923148632
83, 0, 0, 0
84, 0, 0, 0
85, 0, 0, 0
86, 0, 0, 0
87, 0, 0, 0
88, 0, 0, 0
89, 0, 0, 0
90, 0, 0, 0
91, 0, 0, 0
92, 0, 0, 0
93, 0, 0, 0
94, 0, 0, 0
95, 0, 0, 0
96, 0, 0, 0
97, 0, 0, 0
98, 0, 0, 0
99, 0, 0, 0
100, 0, 0, 0.00191107508726418
101, 0, 0, 0
102, 0, 0, 0.03623799607157707
103, 0, 0, 0
104, 0, 0, 0
105, 0, 0, 2.774310350418091
106, 0, 0, 89.65721893310547
107, 0, 0, 341.4633483886719
108, 0, 0, 945.708984375
109, 0, 0, 2230.99951171875
110, 0, 0, 4117.3095703125
111, 0, 0, 4807.48779296875
112, 0, 0, 5149.04541015625
113, 0, 0, 4822.6826171875
114, 0, 0, 4257.07177734375
115, 0, 0, 3732.8701171875
116, 0, 0, 3360.61865234375
117, 0, 0, 3068.2431640625
118, 0, 0, 2858.553955078125
119, 0, 0, 2686.63671875
120, 0, 0, 2553.246337890625
121, 0, 0, 2441.2333984375
122, 0, 0, 2345.25341796875
123, 0, 0, 2255.1494140625
124, 0, 0, 2178.490478515625
125, 0, 0, 2106.9853515625
126, 0, 0, 2050.335693359375
127, 0, 0, 1999.053466796875
128, 0, 0, 1938.821533203125
129, 0, 0, 1902.882446289062
130, 0, 0, 1851.6005859375
131, 0, 0, 1815.373291015625
132, 0, 0, 1776.860595703125
133, 0, 0, 1732.955932617188
134, 0, 0, 1704.278442382812
135, 0, 0, 1677.833862304688
136, 0, 0, 1649.384887695312
137, 0, 0, 1614.7822265625
138, 0, 0, 1590.21142578125
139, 0, 0, 1567.712890625
140, 0, 0, 1550.546264648438
141, 0, 0, 1524.818725585938
142, 0, 0, 1506.441284179688
143, 0, 0, 1485.066528320312
144, 0, 0, 1463.227172851562
145, 0, 0, 1449.067993164062
146, 0, 0, 1427.946044921875
147, 0, 0, 1416.148803710938
148, 0, 0, 1395.978515625
149, 0, 0, 1383.51513671875
150, 0, 0, 1366.385864257812
151, 0, 0, 1356.29345703125
152, 0, 0, 1340.878295898438
153, 0, 0, 1328.000244140625
154, 0, 0, 1316.6220703125
155, 0, 0, 1302.014892578125
156, 0, 0, 1284.626220703125
157, 0, 0, 1276.96142578125
158, 0, 0, 1268.076416015625
159, 0, 0, 1253.563842773438
160, 0, 0, 1241.335083007812
161, 0, 0, 1233.232788085938
162, 0, 0, 1216.212158203125
163, 0, 0, 1214.52783203125
164, 0, 0, 1203.739501953125
165, 0, 0, 1194.659301757812
166, 0, 0, 1187.20263671875
167, 0, 0, 1179.216064453125
168, 0, 0, 1171.389770507812
169, 0, 0, 1162.640991210938
170, 0, 0, 1153.040161132812
171, 0, 0, 1151.701416015625
172, 0, 0, 1144.138061523438
173, 0, 0, 1128.495483398438
174, 0, 0, 1128.185302734375
175, 0, 0, 1118.823364257812
176, 0, 0, 1108.86376953125
177, 0, 0, 1104.156005859375
178, 0, 0, 1098.802490234375
179, 0, 0, 1087.240356445312
