# TOPAS Version: 3.3.p1
# Parameter File: Test.txt
# Results for scorer MLIC_Scorer
# Scored in component: MLIC
# X in 180 bins of 0.177778 cm
# Y in 1 bin  of 10 cm
# Z in 1 bin  of 10 cm
# EnergyDeposit ( MeV ) : Sum   
0, 0, 0, 0
1, 0, 0, 0
2, 0, 0, 0
3, 0, 0, 0
4, 0, 0, 0
5, 0, 0, 0
6, 0, 0, 0
7, 0, 0, 0
8, 0, 0, 2.780074119567871
9, 0, 0, 52.53275680541992
10, 0, 0, 76.91634368896484
11, 0, 0, 366.6535949707031
12, 0, 0, 1067.596801757812
13, 0, 0, 2150.937255859375
14, 0, 0, 3682.628173828125
15, 0, 0, 4907.30078125
16, 0, 0, 5120.0078125
17, 0, 0, 4726.41259765625
18, 0, 0, 4182.576171875
19, 0, 0, 3682.736083984375
20, 0, 0, 3287.622802734375
21, 0, 0, 3004.79541015625
22, 0, 0, 2801.626953125
23, 0, 0, 2645.994873046875
24, 0, 0, 2507.18408203125
25, 0, 0, 2397.849365234375
26, 0, 0, 2302.10498046875
27, 0, 0, 2217.851318359375
28, 0, 0, 2142.787353515625
29, 0, 0, 2068.7998046875
30, 0, 0, 2013.861206054688
31, 0, 0, 1956.387573242188
32, 0, 0, 1904.315795898438
33, 0, 0, 1860.225341796875
34, 0, 0, 1820.021728515625
35, 0, 0, 1784.548950195312
36, 0, 0, 1741.59130859375
37, 0, 0, 1712.228637695312
38, 0, 0, 1673.421142578125
39, 0, 0, 1651.189819335938
40, 0, 0, 1613.661376953125
41, 0, 0, 1595.886840820312
42, 0, 0, 1572.160034179688
43, 0, 0, 1549.2578125
44, 0, 0, 1517.77734375
45, 0, 0, 1491.927368164062
46, 0, 0, 1483.725830078125
47, 0, 0, 1467.928100585938
48, 0, 0, 1429.93017578125
49, 0, 0, 1422.5
50, 0, 0, 1402.071899414062
51, 0, 0, 1384.463134765625
52, 0, 0, 1366.239379882812
53, 0, 0, 1358.671630859375
54, 0, 0, 1341.069458007812
55, 0, 0, 1333.979614257812
56, 0, 0, 1311.506713867188
57, 0, 0, 1300.797485351562
58, 0, 0, 1289.607299804688
59, 0, 0, 1275.681518554688
60, 0, 0, 1266.194702148438
61, 0, 0, 1254.587890625
62, 0, 0, 1252.032104492188
63, 0, 0, 1227.53173828125
64, 0, 0, 1216.177490234375
65, 0, 0, 1204.302978515625
66, 0, 0, 1205.321533203125
67, 0, 0, 1183.985229492188
68, 0, 0, 1180.380981445312
69, 0, 0, 1167.657348632812
70, 0, 0, 1165.3408203125
71, 0, 0, 1160.624877929688
72, 0, 0, 1143.943603515625
73, 0, 0, 1145.008544921875
74, 0, 0, 1133.931762695312
75, 0, 0, 1128.933349609375
76, 0, 0, 1117.769287109375
77, 0, 0, 1110.800537109375
78, 0, 0, 1098.92822265625
79, 0, 0, 1094.932495117188
80, 0, 0, 1083.618774414062
81, 0, 0, 1080.617309570312
82, 0, 0, 1072.798828125
83, 0, 0, 1070.6337890625
84, 0, 0, 1058.822265625
85, 0, 0, 1059.657348632812
86, 0, 0, 1048.922607421875
87, 0, 0, 1042.607788085938
88, 0, 0, 1036.001953125
89, 0, 0, 1035.178466796875
90, 0, 0, 1032.598510742188
91, 0, 0, 1016.836059570312
92, 0, 0, 1016.705505371094
93, 0, 0, 1017.811950683594
94, 0, 0, 1011.090454101562
95, 0, 0, 1010.620788574219
96, 0, 0, 995.2337646484375
97, 0, 0, 989.0789794921875
98, 0, 0, 992.10498046875
99, 0, 0, 981.10986328125
100, 0, 0, 976.8431396484375
101, 0, 0, 975.8236083984375
102, 0, 0, 971.93603515625
103, 0, 0, 971.2227172851562
104, 0, 0, 959.64794921875
105, 0, 0, 958.5059814453125
106, 0, 0, 947.2730102539062
107, 0, 0, 953.3839721679688
108, 0, 0, 944.097900390625
109, 0, 0, 937.5950927734375
110, 0, 0, 937.7151489257812
111, 0, 0, 934.859130859375
112, 0, 0, 928.0114135742188
113, 0, 0, 924.83642578125
114, 0, 0, 924.2095336914062
115, 0, 0, 919.6323852539062
116, 0, 0, 918.0594482421875
117, 0, 0, 907.6287841796875
118, 0, 0, 910.2554321289062
119, 0, 0, 907.9359130859375
120, 0, 0, 899.874755859375
121, 0, 0, 898.2666625976562
122, 0, 0, 894.32568359375
123, 0, 0, 888.8225708007812
124, 0, 0, 890.0601806640625
125, 0, 0, 887.275390625
126, 0, 0, 881.9088745117188
127, 0, 0, 871.8932495117188
128, 0, 0, 874.2601318359375
129, 0, 0, 864.4376831054688
130, 0, 0, 871.0031127929688
131, 0, 0, 868.618408203125
132, 0, 0, 860.9865112304688
133, 0, 0, 852.858154296875
134, 0, 0, 859.8008422851562
135, 0, 0, 854.306396484375
136, 0, 0, 846.7055053710938
137, 0, 0, 855.994140625
138, 0, 0, 852.7084350585938
139, 0, 0, 832.8034057617188
140, 0, 0, 843.447021484375
141, 0, 0, 838.536865234375
142, 0, 0, 829.4358520507812
143, 0, 0, 830.9859008789062
144, 0, 0, 833.6414794921875
145, 0, 0, 831.919189453125
146, 0, 0, 831.560791015625
147, 0, 0, 821.7298583984375
148, 0, 0, 818.1734008789062
149, 0, 0, 827.5982666015625
150, 0, 0, 814.0040893554688
151, 0, 0, 813.06787109375
152, 0, 0, 812.2424926757812
153, 0, 0, 815.0523071289062
154, 0, 0, 817.411376953125
155, 0, 0, 807.9840698242188
156, 0, 0, 807.18798828125
157, 0, 0, 801.3330078125
158, 0, 0, 798.6007690429688
159, 0, 0, 802.6375732421875
160, 0, 0, 796.3146362304688
161, 0, 0, 801.2643432617188
162, 0, 0, 792.1749877929688
163, 0, 0, 797.087646484375
164, 0, 0, 780.5170288085938
165, 0, 0, 790.587646484375
166, 0, 0, 792.705078125
167, 0, 0, 787.9164428710938
168, 0, 0, 785.63427734375
169, 0, 0, 775.3123779296875
170, 0, 0, 774.060302734375
171, 0, 0, 773.8552856445312
172, 0, 0, 766.65087890625
173, 0, 0, 776.7613525390625
174, 0, 0, 772.5535888671875
175, 0, 0, 762.524658203125
176, 0, 0, 773.0734252929688
177, 0, 0, 768.69970703125
178, 0, 0, 753.5615234375
179, 0, 0, 760.48681640625
