# TOPAS Version: 3.3.p1
# Parameter File: Test.txt
# Results for scorer MLIC_Scorer
# Scored in component: MLIC
# X in 180 bins of 0.177778 cm
# Y in 1 bin  of 10 cm
# Z in 1 bin  of 10 cm
# EnergyDeposit ( MeV ) : Sum   
0, 0, 0, 0
1, 0, 0, 0
2, 0, 0, 0
3, 0, 0, 0
4, 0, 0, 0
5, 0, 0, 0
6, 0, 0, 0
7, 0, 0, 0
8, 0, 0, 0
9, 0, 0, 0
10, 0, 0, 0
11, 0, 0, 0
12, 0, 0, 0
13, 0, 0, 0
14, 0, 0, 0
15, 0, 0, 0
16, 0, 0, 0
17, 0, 0, 0
18, 0, 0, 0
19, 0, 0, 0
20, 0, 0, 0
21, 0, 0, 0
22, 0, 0, 0
23, 0, 0, 0
24, 0, 0, 0
25, 0, 0, 0
26, 0, 0, 0
27, 0, 0, 0
28, 0, 0, 0
29, 0, 0, 0
30, 0, 0, 0
31, 0, 0, 0
32, 0, 0, 0
33, 0, 0, 0
34, 0, 0, 0
35, 0, 0, 0
36, 0, 0, 0
37, 0, 0, 0
38, 0, 0, 0
39, 0, 0, 0
40, 0, 0, 0
41, 0, 0, 0
42, 0, 0, 0
43, 0, 0, 0
44, 0, 0, 0
45, 0, 0, 0
46, 0, 0, 0
47, 0, 0, 0
48, 0, 0, 0
49, 0, 0, 0
50, 0, 0, 0
51, 0, 0, 0.03734250739216805
52, 0, 0, 0
53, 0, 0, 0
54, 0, 0, 0
55, 0, 0, 0.01933359540998936
56, 0, 0, 0
57, 0, 0, 0
58, 0, 0, 0
59, 0, 0, 3.635421514511108
60, 0, 0, 65.52973937988281
61, 0, 0, 413.0084228515625
62, 0, 0, 1135.613891601562
63, 0, 0, 2282.975830078125
64, 0, 0, 3622.91943359375
65, 0, 0, 4646.9296875
66, 0, 0, 4945.6875
67, 0, 0, 4663.30615234375
68, 0, 0, 4288.7431640625
69, 0, 0, 3725.793212890625
70, 0, 0, 3326.8447265625
71, 0, 0, 3042.899658203125
72, 0, 0, 2819.01513671875
73, 0, 0, 2655.1435546875
74, 0, 0, 2517.51220703125
75, 0, 0, 2406.7099609375
76, 0, 0, 2300.030029296875
77, 0, 0, 2218.803955078125
78, 0, 0, 2146.01416015625
79, 0, 0, 2073.6181640625
80, 0, 0, 2013.876708984375
81, 0, 0, 1955.899047851562
82, 0, 0, 1907.889038085938
83, 0, 0, 1866.876586914062
84, 0, 0, 1821.178100585938
85, 0, 0, 1773.343627929688
86, 0, 0, 1746.875732421875
87, 0, 0, 1715.864624023438
88, 0, 0, 1682.0869140625
89, 0, 0, 1646.50732421875
90, 0, 0, 1617.402587890625
91, 0, 0, 1599.364501953125
92, 0, 0, 1570.126953125
93, 0, 0, 1549.497436523438
94, 0, 0, 1518.01318359375
95, 0, 0, 1502.314208984375
96, 0, 0, 1483.369750976562
97, 0, 0, 1455.832397460938
98, 0, 0, 1436.49755859375
99, 0, 0, 1421.136596679688
100, 0, 0, 1404.265380859375
101, 0, 0, 1392.1396484375
102, 0, 0, 1368.988159179688
103, 0, 0, 1354.151611328125
104, 0, 0, 1345.507568359375
105, 0, 0, 1325.393676757812
106, 0, 0, 1310.20068359375
107, 0, 0, 1304.059326171875
108, 0, 0, 1285.519897460938
109, 0, 0, 1279.46044921875
110, 0, 0, 1261.849609375
111, 0, 0, 1262.878051757812
112, 0, 0, 1240.473022460938
113, 0, 0, 1228.29833984375
114, 0, 0, 1220.01513671875
115, 0, 0, 1216.231567382812
116, 0, 0, 1199.508178710938
117, 0, 0, 1191.853515625
118, 0, 0, 1182.22998046875
119, 0, 0, 1177.42431640625
120, 0, 0, 1163.741577148438
121, 0, 0, 1151.7373046875
122, 0, 0, 1141.88037109375
123, 0, 0, 1146.124267578125
124, 0, 0, 1137.135620117188
125, 0, 0, 1131.166381835938
126, 0, 0, 1118.028198242188
127, 0, 0, 1110.12451171875
128, 0, 0, 1103.785278320312
129, 0, 0, 1095.325927734375
130, 0, 0, 1090.349853515625
131, 0, 0, 1081.224365234375
132, 0, 0, 1073.654296875
133, 0, 0, 1068.942993164062
134, 0, 0, 1067.020751953125
135, 0, 0, 1046.7314453125
136, 0, 0, 1052.075805664062
137, 0, 0, 1051.285278320312
138, 0, 0, 1033.863159179688
139, 0, 0, 1031.531494140625
140, 0, 0, 1028.991577148438
141, 0, 0, 1018.245910644531
142, 0, 0, 1011.694030761719
143, 0, 0, 1009.199829101562
144, 0, 0, 1006.843505859375
145, 0, 0, 1002.961486816406
146, 0, 0, 1000.166259765625
147, 0, 0, 996.6908569335938
148, 0, 0, 992.6126098632812
149, 0, 0, 984.0468139648438
150, 0, 0, 976.9724731445312
151, 0, 0, 974.0885620117188
152, 0, 0, 973.745849609375
153, 0, 0, 965.0330810546875
154, 0, 0, 962.4946899414062
155, 0, 0, 956.0518188476562
156, 0, 0, 956.0950317382812
157, 0, 0, 949.9260864257812
158, 0, 0, 941.3763427734375
159, 0, 0, 947.4113159179688
160, 0, 0, 936.40869140625
161, 0, 0, 931.9359741210938
162, 0, 0, 928.4442749023438
163, 0, 0, 924.9091796875
164, 0, 0, 911.6026611328125
165, 0, 0, 916.05322265625
166, 0, 0, 905.0789794921875
167, 0, 0, 905.7803955078125
168, 0, 0, 904.7537231445312
169, 0, 0, 896.2828369140625
170, 0, 0, 900.7327880859375
171, 0, 0, 908.1492309570312
172, 0, 0, 890.8497924804688
173, 0, 0, 892.78125
174, 0, 0, 890.1153564453125
175, 0, 0, 883.9012451171875
176, 0, 0, 879.2000122070312
177, 0, 0, 876.3195190429688
178, 0, 0, 876.8007202148438
179, 0, 0, 877.9209594726562
