# TOPAS Version: 3.3.p1
# Parameter File: Test.txt
# Results for scorer MLIC_Scorer
# Scored in component: MLIC
# X in 180 bins of 0.183333 cm
# Y in 1 bin  of 10 cm
# Z in 1 bin  of 10 cm
# EnergyDeposit ( MeV ) : Sum   
0, 0, 0, 0
1, 0, 0, 0
2, 0, 0, 0
3, 0, 0, 0
4, 0, 0, 0
5, 0, 0, 0
6, 0, 0, 0
7, 0, 0, 0
8, 0, 0, 0
9, 0, 0, 0
10, 0, 0, 0
11, 0, 0, 0
12, 0, 0, 0
13, 0, 0, 0
14, 0, 0, 0
15, 0, 0, 0
16, 0, 0, 0
17, 0, 0, 0
18, 0, 0, 0
19, 0, 0, 0
20, 0, 0, 0
21, 0, 0, 0
22, 0, 0, 0
23, 0, 0, 1.62888777256012
24, 0, 0, 28.50955581665039
25, 0, 0, 68.70597076416016
26, 0, 0, 263.3096923828125
27, 0, 0, 883.775390625
28, 0, 0, 1953.653686523438
29, 0, 0, 3429.634033203125
30, 0, 0, 4649.41748046875
31, 0, 0, 5183.33447265625
32, 0, 0, 4977.505859375
33, 0, 0, 4400.24072265625
34, 0, 0, 3848.0693359375
35, 0, 0, 3436.05859375
36, 0, 0, 3130.98291015625
37, 0, 0, 2904.0966796875
38, 0, 0, 2726.357421875
39, 0, 0, 2585.879150390625
40, 0, 0, 2461.47314453125
41, 0, 0, 2360.148193359375
42, 0, 0, 2271.630126953125
43, 0, 0, 2190.468017578125
44, 0, 0, 2124.281982421875
45, 0, 0, 2063.0048828125
46, 0, 0, 2013.112060546875
47, 0, 0, 1951.73779296875
48, 0, 0, 1902.916381835938
49, 0, 0, 1849.206787109375
50, 0, 0, 1822.005737304688
51, 0, 0, 1784.765380859375
52, 0, 0, 1744.330810546875
53, 0, 0, 1717.834106445312
54, 0, 0, 1684.36767578125
55, 0, 0, 1648.707397460938
56, 0, 0, 1626.41845703125
57, 0, 0, 1595.098754882812
58, 0, 0, 1573.115112304688
59, 0, 0, 1551.208618164062
60, 0, 0, 1531.4794921875
61, 0, 0, 1503.814208984375
62, 0, 0, 1487.663818359375
63, 0, 0, 1474.493530273438
64, 0, 0, 1450.338989257812
65, 0, 0, 1441.022216796875
66, 0, 0, 1423.369506835938
67, 0, 0, 1398.239501953125
68, 0, 0, 1392.62890625
69, 0, 0, 1372.421508789062
70, 0, 0, 1357.510864257812
71, 0, 0, 1342.254516601562
72, 0, 0, 1332.682983398438
73, 0, 0, 1321.107177734375
74, 0, 0, 1296.20166015625
75, 0, 0, 1285.378662109375
76, 0, 0, 1275.631958007812
77, 0, 0, 1265.369995117188
78, 0, 0, 1264.50048828125
79, 0, 0, 1248.579345703125
80, 0, 0, 1243.821166992188
81, 0, 0, 1218.022094726562
82, 0, 0, 1209.66552734375
83, 0, 0, 1206.230834960938
84, 0, 0, 1194.572998046875
85, 0, 0, 1187.281494140625
86, 0, 0, 1181.998168945312
87, 0, 0, 1173.83203125
88, 0, 0, 1152.209716796875
89, 0, 0, 1158.421875
90, 0, 0, 1154.072143554688
91, 0, 0, 1142.268432617188
92, 0, 0, 1129.3408203125
93, 0, 0, 1123.387817382812
94, 0, 0, 1107.4814453125
95, 0, 0, 1113.376220703125
96, 0, 0, 1097.646606445312
97, 0, 0, 1096.879272460938
98, 0, 0, 1090.300659179688
99, 0, 0, 1088.773559570312
100, 0, 0, 1081.1748046875
101, 0, 0, 1066.883178710938
102, 0, 0, 1074.263793945312
103, 0, 0, 1058.88037109375
104, 0, 0, 1060.658935546875
105, 0, 0, 1050.108520507812
106, 0, 0, 1040.312133789062
107, 0, 0, 1042.6669921875
108, 0, 0, 1029.232421875
109, 0, 0, 1028.253051757812
110, 0, 0, 1012.709289550781
111, 0, 0, 1021.011535644531
112, 0, 0, 1009.555236816406
113, 0, 0, 1007.161499023438
114, 0, 0, 995.956787109375
115, 0, 0, 997.6873779296875
116, 0, 0, 1001.601257324219
117, 0, 0, 989.9519653320312
118, 0, 0, 985.0421752929688
119, 0, 0, 978.1997680664062
120, 0, 0, 982.0165405273438
121, 0, 0, 973.6809692382812
122, 0, 0, 971.36767578125
123, 0, 0, 962.1323852539062
124, 0, 0, 963.36181640625
125, 0, 0, 952.1658935546875
126, 0, 0, 950.3699951171875
127, 0, 0, 954.4953002929688
128, 0, 0, 949.3351440429688
129, 0, 0, 938.9821166992188
130, 0, 0, 932.7675170898438
131, 0, 0, 937.239990234375
132, 0, 0, 924.8150634765625
133, 0, 0, 926.3123779296875
134, 0, 0, 917.8052978515625
135, 0, 0, 914.8380126953125
136, 0, 0, 913.7970581054688
137, 0, 0, 912.3928833007812
138, 0, 0, 922.9410400390625
139, 0, 0, 913.3602294921875
140, 0, 0, 902.635986328125
141, 0, 0, 894.5836181640625
142, 0, 0, 901.9268798828125
143, 0, 0, 891.6759643554688
144, 0, 0, 887.7555541992188
145, 0, 0, 883.5030517578125
146, 0, 0, 882.7595825195312
147, 0, 0, 882.4799194335938
148, 0, 0, 881.5001220703125
149, 0, 0, 877.9390869140625
150, 0, 0, 883.3846435546875
151, 0, 0, 866.2042846679688
152, 0, 0, 861.7368774414062
153, 0, 0, 866.7490234375
154, 0, 0, 867.4712524414062
155, 0, 0, 857.4382934570312
156, 0, 0, 848.7621459960938
157, 0, 0, 852.8051147460938
158, 0, 0, 845.7263793945312
159, 0, 0, 859.6959838867188
160, 0, 0, 842.3126220703125
161, 0, 0, 842.80322265625
162, 0, 0, 843.0722045898438
163, 0, 0, 828.7095336914062
164, 0, 0, 832.2631225585938
165, 0, 0, 839.6956176757812
166, 0, 0, 833.1900634765625
167, 0, 0, 827.9602661132812
168, 0, 0, 829.3341064453125
169, 0, 0, 820.951416015625
170, 0, 0, 828.9134521484375
171, 0, 0, 821.55517578125
172, 0, 0, 823.7009887695312
173, 0, 0, 820.5990600585938
174, 0, 0, 817.5267333984375
175, 0, 0, 814.229736328125
176, 0, 0, 810.3692016601562
177, 0, 0, 809.0689697265625
178, 0, 0, 808.3234252929688
179, 0, 0, 805.624267578125
