# TOPAS Version: 3.3.p1
# Parameter File: Test.txt
# Results for scorer MLIC_Scorer
# Scored in component: MLIC
# X in 180 bins of 0.177778 cm
# Y in 1 bin  of 10 cm
# Z in 1 bin  of 10 cm
# EnergyDeposit ( MeV ) : Sum   
0, 0, 0, 0
1, 0, 0, 0
2, 0, 0, 0
3, 0, 0, 0.002732748398557305
4, 0, 0, 0
5, 0, 0, 0
6, 0, 0, 0
7, 0, 0, 0
8, 0, 0, 0
9, 0, 0, 0
10, 0, 0, 0
11, 0, 0, 0
12, 0, 0, 0
13, 0, 0, 0
14, 0, 0, 0
15, 0, 0, 0.01309437025338411
16, 0, 0, 0
17, 0, 0, 0
18, 0, 0, 0
19, 0, 0, 0
20, 0, 0, 0
21, 0, 0, 0
22, 0, 0, 0
23, 0, 0, 0
24, 0, 0, 0
25, 0, 0, 0
26, 0, 0, 0
27, 0, 0, 0
28, 0, 0, 0
29, 0, 0, 0
30, 0, 0, 0
31, 0, 0, 0
32, 0, 0, 0
33, 0, 0, 0
34, 0, 0, 0
35, 0, 0, 0.001831605448387563
36, 0, 0, 0
37, 0, 0, 0
38, 0, 0, 0
39, 0, 0, 0
40, 0, 0, 0
41, 0, 0, 0
42, 0, 0, 16.3838996887207
43, 0, 0, 33.3524055480957
44, 0, 0, 122.7149887084961
45, 0, 0, 616.7171630859375
46, 0, 0, 1210.988647460938
47, 0, 0, 2853.340576171875
48, 0, 0, 4160.228515625
49, 0, 0, 4904.03076171875
50, 0, 0, 4961.662109375
51, 0, 0, 4610.31982421875
52, 0, 0, 4025.5341796875
53, 0, 0, 3554.169189453125
54, 0, 0, 3203.4931640625
55, 0, 0, 2946.59033203125
56, 0, 0, 2752.984130859375
57, 0, 0, 2599.38623046875
58, 0, 0, 2476.903076171875
59, 0, 0, 2362.03662109375
60, 0, 0, 2272.51318359375
61, 0, 0, 2195.991455078125
62, 0, 0, 2112.25830078125
63, 0, 0, 2059.7451171875
64, 0, 0, 1988.628295898438
65, 0, 0, 1940.22705078125
66, 0, 0, 1892.814453125
67, 0, 0, 1855.304809570312
68, 0, 0, 1804.411499023438
69, 0, 0, 1775.10791015625
70, 0, 0, 1727.478759765625
71, 0, 0, 1705.157836914062
72, 0, 0, 1671.315307617188
73, 0, 0, 1637.489135742188
74, 0, 0, 1601.4150390625
75, 0, 0, 1586.5634765625
76, 0, 0, 1564.205444335938
77, 0, 0, 1533.093139648438
78, 0, 0, 1515.543701171875
79, 0, 0, 1494.535400390625
80, 0, 0, 1469.342529296875
81, 0, 0, 1452.858032226562
82, 0, 0, 1435.87451171875
83, 0, 0, 1412.360107421875
84, 0, 0, 1395.135375976562
85, 0, 0, 1388.238525390625
86, 0, 0, 1368.216064453125
87, 0, 0, 1353.42578125
88, 0, 0, 1345.960693359375
89, 0, 0, 1324.112182617188
90, 0, 0, 1308.244262695312
91, 0, 0, 1302.149291992188
92, 0, 0, 1282.024658203125
93, 0, 0, 1276.2255859375
94, 0, 0, 1260.721313476562
95, 0, 0, 1249.385864257812
96, 0, 0, 1241.658447265625
97, 0, 0, 1228.3359375
98, 0, 0, 1215.429809570312
99, 0, 0, 1207.18505859375
100, 0, 0, 1198.324096679688
101, 0, 0, 1190.168823242188
102, 0, 0, 1172.2197265625
103, 0, 0, 1171.620849609375
104, 0, 0, 1161.10546875
105, 0, 0, 1149.771240234375
106, 0, 0, 1148.249877929688
107, 0, 0, 1133.977905273438
108, 0, 0, 1131.180297851562
109, 0, 0, 1125.142944335938
110, 0, 0, 1113.411499023438
111, 0, 0, 1110.616943359375
112, 0, 0, 1097.188842773438
113, 0, 0, 1098.432250976562
114, 0, 0, 1086.928344726562
115, 0, 0, 1085.841186523438
116, 0, 0, 1071.39111328125
117, 0, 0, 1068.0087890625
118, 0, 0, 1056.834716796875
119, 0, 0, 1052.313354492188
120, 0, 0, 1055.146606445312
121, 0, 0, 1037.44775390625
122, 0, 0, 1024.784912109375
123, 0, 0, 1026.927124023438
124, 0, 0, 1022.065856933594
125, 0, 0, 1027.858764648438
126, 0, 0, 1017.092712402344
127, 0, 0, 1011.7548828125
128, 0, 0, 1005.64501953125
129, 0, 0, 996.9011840820312
130, 0, 0, 991.3472290039062
131, 0, 0, 987.4564819335938
132, 0, 0, 992.151611328125
133, 0, 0, 981.52197265625
134, 0, 0, 977.2744750976562
135, 0, 0, 976.1195068359375
136, 0, 0, 962.473876953125
137, 0, 0, 958.3656616210938
138, 0, 0, 953.59375
139, 0, 0, 958.2454833984375
140, 0, 0, 952.9817504882812
141, 0, 0, 938.9828491210938
142, 0, 0, 937.9177856445312
143, 0, 0, 938.4440307617188
144, 0, 0, 936.9063110351562
145, 0, 0, 923.66455078125
146, 0, 0, 926.6753540039062
147, 0, 0, 920.35888671875
148, 0, 0, 919.9882202148438
149, 0, 0, 922.5202026367188
150, 0, 0, 918.322265625
151, 0, 0, 909.4644775390625
152, 0, 0, 917.9639892578125
153, 0, 0, 904.6353759765625
154, 0, 0, 899.7880859375
155, 0, 0, 902.3262939453125
156, 0, 0, 896.6253662109375
157, 0, 0, 892.0840454101562
158, 0, 0, 887.4517822265625
159, 0, 0, 890.1787719726562
160, 0, 0, 882.3696899414062
161, 0, 0, 876.3495483398438
162, 0, 0, 878.53466796875
163, 0, 0, 870.0497436523438
164, 0, 0, 873.1536865234375
165, 0, 0, 867.3271484375
166, 0, 0, 867.6189575195312
167, 0, 0, 857.1556396484375
168, 0, 0, 861.0480346679688
169, 0, 0, 848.7123413085938
170, 0, 0, 848.2578125
171, 0, 0, 843.1146850585938
172, 0, 0, 844.1964721679688
173, 0, 0, 843.6572265625
174, 0, 0, 846.9764404296875
175, 0, 0, 840.46923828125
176, 0, 0, 828.8455810546875
177, 0, 0, 833.4840698242188
178, 0, 0, 830.57373046875
179, 0, 0, 831.0421142578125
