# TOPAS Version: 3.3.p1
# Parameter File: Test.txt
# Results for scorer MLIC_Scorer
# Scored in component: MLIC
# X in 180 bins of 0.177778 cm
# Y in 1 bin  of 10 cm
# Z in 1 bin  of 10 cm
# EnergyDeposit ( MeV ) : Sum   
0, 0, 0, 0
1, 0, 0, 0
2, 0, 0, 0
3, 0, 0, 0
4, 0, 0, 0
5, 0, 0, 0.0006055266712792218
6, 0, 0, 0
7, 0, 0, 0
8, 0, 0, 0
9, 0, 0, 0
10, 0, 0, 0
11, 0, 0, 0
12, 0, 0, 0
13, 0, 0, 0
14, 0, 0, 0
15, 0, 0, 0
16, 0, 0, 0
17, 0, 0, 0
18, 0, 0, 0
19, 0, 0, 0
20, 0, 0, 0
21, 0, 0, 0
22, 0, 0, 0
23, 0, 0, 0
24, 0, 0, 0
25, 0, 0, 0
26, 0, 0, 0
27, 0, 0, 0.01227675471454859
28, 0, 0, 0
29, 0, 0, 0.0008390210568904877
30, 0, 0, 0
31, 0, 0, 0
32, 0, 0, 0
33, 0, 0, 0
34, 0, 0, 0
35, 0, 0, 0
36, 0, 0, 0
37, 0, 0, 0
38, 0, 0, 0
39, 0, 0, 0
40, 0, 0, 0
41, 0, 0, 0
42, 0, 0, 29.84746360778809
43, 0, 0, 170.4514007568359
44, 0, 0, 652.639404296875
45, 0, 0, 1459.118041992188
46, 0, 0, 2975.974609375
47, 0, 0, 4275.7119140625
48, 0, 0, 5067.23974609375
49, 0, 0, 4938.49365234375
50, 0, 0, 4457.99365234375
51, 0, 0, 3941.524658203125
52, 0, 0, 3499.9931640625
53, 0, 0, 3159.51611328125
54, 0, 0, 2920.734619140625
55, 0, 0, 2733.35791015625
56, 0, 0, 2580.15771484375
57, 0, 0, 2461.7021484375
58, 0, 0, 2358.011474609375
59, 0, 0, 2262.21533203125
60, 0, 0, 2175.760009765625
61, 0, 0, 2112.830322265625
62, 0, 0, 2040.91943359375
63, 0, 0, 1990.888061523438
64, 0, 0, 1929.7705078125
65, 0, 0, 1880.611328125
66, 0, 0, 1842.114624023438
67, 0, 0, 1800.463134765625
68, 0, 0, 1764.534912109375
69, 0, 0, 1726.789306640625
70, 0, 0, 1696.068725585938
71, 0, 0, 1660.691650390625
72, 0, 0, 1631.207885742188
73, 0, 0, 1606.964721679688
74, 0, 0, 1579.072509765625
75, 0, 0, 1555.43408203125
76, 0, 0, 1539.767333984375
77, 0, 0, 1507.43994140625
78, 0, 0, 1482.843872070312
79, 0, 0, 1467.614990234375
80, 0, 0, 1452.234130859375
81, 0, 0, 1426.061279296875
82, 0, 0, 1416.500366210938
83, 0, 0, 1390.404907226562
84, 0, 0, 1382.7841796875
85, 0, 0, 1366.5849609375
86, 0, 0, 1353.199462890625
87, 0, 0, 1337.929321289062
88, 0, 0, 1318.664306640625
89, 0, 0, 1315.375610351562
90, 0, 0, 1297.803466796875
91, 0, 0, 1277.948974609375
92, 0, 0, 1271.059448242188
93, 0, 0, 1261.623046875
94, 0, 0, 1250.362426757812
95, 0, 0, 1232.391357421875
96, 0, 0, 1237.232055664062
97, 0, 0, 1213.709228515625
98, 0, 0, 1204.672241210938
99, 0, 0, 1198.6279296875
100, 0, 0, 1181.134521484375
101, 0, 0, 1186.47021484375
102, 0, 0, 1170.282470703125
103, 0, 0, 1162.2392578125
104, 0, 0, 1160.7626953125
105, 0, 0, 1154.942138671875
106, 0, 0, 1135.633544921875
107, 0, 0, 1133.982666015625
108, 0, 0, 1116.680908203125
109, 0, 0, 1112.9755859375
110, 0, 0, 1103.182373046875
111, 0, 0, 1105.78271484375
112, 0, 0, 1091.973999023438
113, 0, 0, 1084.34716796875
114, 0, 0, 1077.997314453125
115, 0, 0, 1073.79150390625
116, 0, 0, 1069.248046875
117, 0, 0, 1059.836059570312
118, 0, 0, 1054.307495117188
119, 0, 0, 1043.967651367188
120, 0, 0, 1042.7900390625
121, 0, 0, 1038.116943359375
122, 0, 0, 1028.205322265625
123, 0, 0, 1024.377319335938
124, 0, 0, 1020.812255859375
125, 0, 0, 1007.685913085938
126, 0, 0, 1008.8193359375
127, 0, 0, 1013.053527832031
128, 0, 0, 1002.893676757812
129, 0, 0, 1000.950988769531
130, 0, 0, 984.8599853515625
131, 0, 0, 982.8468627929688
132, 0, 0, 984.124267578125
133, 0, 0, 985.1552734375
134, 0, 0, 976.1578979492188
135, 0, 0, 966.2431030273438
136, 0, 0, 966.638427734375
137, 0, 0, 965.6928100585938
138, 0, 0, 950.54296875
139, 0, 0, 953.6358642578125
140, 0, 0, 951.774169921875
141, 0, 0, 951.0089721679688
142, 0, 0, 943.3637084960938
143, 0, 0, 933.83349609375
144, 0, 0, 931.7022705078125
145, 0, 0, 922.3312377929688
146, 0, 0, 918.2770385742188
147, 0, 0, 915.557861328125
148, 0, 0, 908.9050903320312
149, 0, 0, 906.6187744140625
150, 0, 0, 909.27197265625
151, 0, 0, 912.1846923828125
152, 0, 0, 908.1527709960938
153, 0, 0, 904.189208984375
154, 0, 0, 898.4043579101562
155, 0, 0, 897.4640502929688
156, 0, 0, 890.8500366210938
157, 0, 0, 881.3611450195312
158, 0, 0, 891.2440185546875
159, 0, 0, 884.1805419921875
160, 0, 0, 876.3947143554688
161, 0, 0, 876.6219482421875
162, 0, 0, 865.4632568359375
163, 0, 0, 867.3452758789062
164, 0, 0, 866.0499267578125
165, 0, 0, 856.9174194335938
166, 0, 0, 858.0658569335938
167, 0, 0, 848.6497802734375
168, 0, 0, 851.990234375
169, 0, 0, 856.478271484375
170, 0, 0, 854.52587890625
171, 0, 0, 852.422607421875
172, 0, 0, 836.7464599609375
173, 0, 0, 839.9199829101562
174, 0, 0, 833.2174072265625
175, 0, 0, 836.0713500976562
176, 0, 0, 832.2533569335938
177, 0, 0, 830.3339233398438
178, 0, 0, 831.9307861328125
179, 0, 0, 828.5634155273438
