# TOPAS Version: 3.3.p1
# Parameter File: Test.txt
# Results for scorer MLIC_Scorer
# Scored in component: MLIC
# X in 180 bins of 0.177778 cm
# Y in 1 bin  of 10 cm
# Z in 1 bin  of 10 cm
# EnergyDeposit ( MeV ) : Sum   
0, 0, 0, 0
1, 0, 0, 0
2, 0, 0, 0
3, 0, 0, 0
4, 0, 0, 0
5, 0, 0, 0
6, 0, 0, 0
7, 0, 0, 0
8, 0, 0, 0
9, 0, 0, 0
10, 0, 0, 0
11, 0, 0, 0
12, 0, 0, 0
13, 0, 0, 0
14, 0, 0, 0
15, 0, 0, 0
16, 0, 0, 0
17, 0, 0, 0
18, 0, 0, 0
19, 0, 0, 0
20, 0, 0, 0
21, 0, 0, 0
22, 0, 0, 0
23, 0, 0, 0
24, 0, 0, 0
25, 0, 0, 0
26, 0, 0, 0
27, 0, 0, 0
28, 0, 0, 0
29, 0, 0, 0
30, 0, 0, 0
31, 0, 0, 0
32, 0, 0, 0
33, 0, 0, 0
34, 0, 0, 0
35, 0, 0, 0
36, 0, 0, 0
37, 0, 0, 0
38, 0, 0, 0
39, 0, 0, 0
40, 0, 0, 0
41, 0, 0, 0
42, 0, 0, 0
43, 0, 0, 0
44, 0, 0, 0
45, 0, 0, 0
46, 0, 0, 0
47, 0, 0, 0
48, 0, 0, 0
49, 0, 0, 0.05903466045856476
50, 0, 0, 0
51, 0, 0, 0
52, 0, 0, 0
53, 0, 0, 3.786859512329102
54, 0, 0, 134.0691223144531
55, 0, 0, 469.2205505371094
56, 0, 0, 1233.217895507812
57, 0, 0, 2665.071044921875
58, 0, 0, 4130.875
59, 0, 0, 5149.22265625
60, 0, 0, 5071.33984375
61, 0, 0, 4514.521484375
62, 0, 0, 3988.105712890625
63, 0, 0, 3544.024169921875
64, 0, 0, 3187.49951171875
65, 0, 0, 2956.882080078125
66, 0, 0, 2751.508056640625
67, 0, 0, 2597.74267578125
68, 0, 0, 2474.546142578125
69, 0, 0, 2358.15283203125
70, 0, 0, 2266.875
71, 0, 0, 2182.314697265625
72, 0, 0, 2118.845703125
73, 0, 0, 2043.284545898438
74, 0, 0, 1991.918212890625
75, 0, 0, 1939.803833007812
76, 0, 0, 1887.302124023438
77, 0, 0, 1849.031494140625
78, 0, 0, 1801.938842773438
79, 0, 0, 1764.219604492188
80, 0, 0, 1731.28564453125
81, 0, 0, 1703.427856445312
82, 0, 0, 1668.869262695312
83, 0, 0, 1636.592407226562
84, 0, 0, 1610.822631835938
85, 0, 0, 1575.942260742188
86, 0, 0, 1565.662109375
87, 0, 0, 1530.12255859375
88, 0, 0, 1509.891845703125
89, 0, 0, 1498.857788085938
90, 0, 0, 1468.204345703125
91, 0, 0, 1452.320922851562
92, 0, 0, 1427.619873046875
93, 0, 0, 1412.807861328125
94, 0, 0, 1400.689331054688
95, 0, 0, 1382.22314453125
96, 0, 0, 1366.180541992188
97, 0, 0, 1360.190795898438
98, 0, 0, 1340.60986328125
99, 0, 0, 1328.693237304688
100, 0, 0, 1311.351928710938
101, 0, 0, 1302.891357421875
102, 0, 0, 1289.093994140625
103, 0, 0, 1277.289306640625
104, 0, 0, 1255.267456054688
105, 0, 0, 1251.841186523438
106, 0, 0, 1236.62158203125
107, 0, 0, 1226.774536132812
108, 0, 0, 1216.41259765625
109, 0, 0, 1215.230102539062
110, 0, 0, 1207.072998046875
111, 0, 0, 1185.017700195312
112, 0, 0, 1184.858642578125
113, 0, 0, 1176.693603515625
114, 0, 0, 1157.370849609375
115, 0, 0, 1153.088989257812
116, 0, 0, 1142.913818359375
117, 0, 0, 1135.285034179688
118, 0, 0, 1131.946899414062
119, 0, 0, 1127.20263671875
120, 0, 0, 1116.871826171875
121, 0, 0, 1110.644653320312
122, 0, 0, 1102.17333984375
123, 0, 0, 1093.999877929688
124, 0, 0, 1090.827026367188
125, 0, 0, 1084.773071289062
126, 0, 0, 1073.499145507812
127, 0, 0, 1067.588623046875
128, 0, 0, 1070.275634765625
129, 0, 0, 1048.65380859375
130, 0, 0, 1047.828125
131, 0, 0, 1041.356567382812
132, 0, 0, 1043.765502929688
133, 0, 0, 1036.708740234375
134, 0, 0, 1028.005981445312
135, 0, 0, 1022.915161132812
136, 0, 0, 1014.734313964844
137, 0, 0, 1011.759216308594
138, 0, 0, 1006.098327636719
139, 0, 0, 1003.9599609375
140, 0, 0, 995.2021484375
141, 0, 0, 986.8297729492188
142, 0, 0, 995.3402709960938
143, 0, 0, 988.3626708984375
144, 0, 0, 977.9356689453125
145, 0, 0, 967.6296997070312
146, 0, 0, 971.4238891601562
147, 0, 0, 959.9671020507812
148, 0, 0, 957.8762817382812
149, 0, 0, 953.385009765625
150, 0, 0, 947.1983642578125
151, 0, 0, 953.6773071289062
152, 0, 0, 941.7620849609375
153, 0, 0, 941.0413818359375
154, 0, 0, 927.5712890625
155, 0, 0, 928.253662109375
156, 0, 0, 925.3045654296875
157, 0, 0, 916.234375
158, 0, 0, 917.4498291015625
159, 0, 0, 915.4052124023438
160, 0, 0, 911.0894165039062
161, 0, 0, 908.2203369140625
162, 0, 0, 910.2054443359375
163, 0, 0, 899.0990600585938
164, 0, 0, 896.7215576171875
165, 0, 0, 892.1089477539062
166, 0, 0, 899.6937866210938
167, 0, 0, 895.4320068359375
168, 0, 0, 891.211669921875
169, 0, 0, 892.5429077148438
170, 0, 0, 884.37451171875
171, 0, 0, 874.76220703125
172, 0, 0, 871.4039306640625
173, 0, 0, 880.5424194335938
174, 0, 0, 867.0559692382812
175, 0, 0, 864.929931640625
176, 0, 0, 857.3565063476562
177, 0, 0, 862.7313232421875
178, 0, 0, 862.673828125
179, 0, 0, 848.6871337890625
