# TOPAS Version: 3.3.p1
# Parameter File: Test.txt
# Results for scorer MLIC_Scorer
# Scored in component: MLIC
# X in 180 bins of 0.177778 cm
# Y in 1 bin  of 10 cm
# Z in 1 bin  of 10 cm
# EnergyDeposit ( MeV ) : Sum   
0, 0, 0, 0
1, 0, 0, 0
2, 0, 0, 0
3, 0, 0, 0
4, 0, 0, 0
5, 0, 0, 0
6, 0, 0, 0
7, 0, 0, 0
8, 0, 0, 0
9, 0, 0, 0
10, 0, 0, 0
11, 0, 0, 0
12, 0, 0, 0
13, 0, 0, 0
14, 0, 0, 25.65107536315918
15, 0, 0, 76.101318359375
16, 0, 0, 287.6646423339844
17, 0, 0, 1168.259765625
18, 0, 0, 2234.320556640625
19, 0, 0, 3809.79150390625
20, 0, 0, 4821.88671875
21, 0, 0, 5075.42138671875
22, 0, 0, 4745.9228515625
23, 0, 0, 4219.13671875
24, 0, 0, 3651.951171875
25, 0, 0, 3265.9853515625
26, 0, 0, 3007.4482421875
27, 0, 0, 2798.17626953125
28, 0, 0, 2637.990478515625
29, 0, 0, 2500.11083984375
30, 0, 0, 2386.404052734375
31, 0, 0, 2289.885498046875
32, 0, 0, 2206.576904296875
33, 0, 0, 2134.4931640625
34, 0, 0, 2072.95849609375
35, 0, 0, 2010.150024414062
36, 0, 0, 1954.0859375
37, 0, 0, 1906.866577148438
38, 0, 0, 1854.572143554688
39, 0, 0, 1812.437133789062
40, 0, 0, 1767.729736328125
41, 0, 0, 1736.618408203125
42, 0, 0, 1706.9921875
43, 0, 0, 1679.607421875
44, 0, 0, 1634.786010742188
45, 0, 0, 1611.741333007812
46, 0, 0, 1592.389404296875
47, 0, 0, 1569.533203125
48, 0, 0, 1542.747436523438
49, 0, 0, 1522.495239257812
50, 0, 0, 1496.964233398438
51, 0, 0, 1473.084350585938
52, 0, 0, 1461.290649414062
53, 0, 0, 1444.483154296875
54, 0, 0, 1419.553100585938
55, 0, 0, 1402.7509765625
56, 0, 0, 1390.590209960938
57, 0, 0, 1369.818115234375
58, 0, 0, 1359.16455078125
59, 0, 0, 1336.780639648438
60, 0, 0, 1328.764038085938
61, 0, 0, 1316.071044921875
62, 0, 0, 1308.429077148438
63, 0, 0, 1278.253540039062
64, 0, 0, 1277.7099609375
65, 0, 0, 1270.3779296875
66, 0, 0, 1253.773681640625
67, 0, 0, 1240.232788085938
68, 0, 0, 1225.491577148438
69, 0, 0, 1221.860229492188
70, 0, 0, 1213.220458984375
71, 0, 0, 1195.350219726562
72, 0, 0, 1190.295288085938
73, 0, 0, 1184.426391601562
74, 0, 0, 1171.518310546875
75, 0, 0, 1164.077514648438
76, 0, 0, 1154.565185546875
77, 0, 0, 1146.980590820312
78, 0, 0, 1139.52001953125
79, 0, 0, 1135.970458984375
80, 0, 0, 1121.601440429688
81, 0, 0, 1114.4404296875
82, 0, 0, 1110.128662109375
83, 0, 0, 1098.35546875
84, 0, 0, 1098.774291992188
85, 0, 0, 1084.474365234375
86, 0, 0, 1082.265380859375
87, 0, 0, 1075.553588867188
88, 0, 0, 1067.75341796875
89, 0, 0, 1056.321044921875
90, 0, 0, 1054.031372070312
91, 0, 0, 1049.692993164062
92, 0, 0, 1040.625854492188
93, 0, 0, 1039.494873046875
94, 0, 0, 1035.064453125
95, 0, 0, 1022.076477050781
96, 0, 0, 1019.375671386719
97, 0, 0, 1022.032836914062
98, 0, 0, 1011.038879394531
99, 0, 0, 1010.588623046875
100, 0, 0, 995.6343994140625
101, 0, 0, 999.3673095703125
102, 0, 0, 992.8228149414062
103, 0, 0, 983.4013671875
104, 0, 0, 983.6009521484375
105, 0, 0, 982.2322998046875
106, 0, 0, 964.7771606445312
107, 0, 0, 971.3507080078125
108, 0, 0, 962.4640502929688
109, 0, 0, 963.986083984375
110, 0, 0, 961.5550537109375
111, 0, 0, 950.137451171875
112, 0, 0, 944.6209106445312
113, 0, 0, 943.85986328125
114, 0, 0, 942.8098754882812
115, 0, 0, 943.6447143554688
116, 0, 0, 934.5026245117188
117, 0, 0, 926.9926147460938
118, 0, 0, 919.0999755859375
119, 0, 0, 925.1974487304688
120, 0, 0, 916.7344970703125
121, 0, 0, 913.0987548828125
122, 0, 0, 908.268798828125
123, 0, 0, 912.1282958984375
124, 0, 0, 906.3385009765625
125, 0, 0, 894.2659301757812
126, 0, 0, 898.1966552734375
127, 0, 0, 893.2152099609375
128, 0, 0, 897.732421875
129, 0, 0, 886.3700561523438
130, 0, 0, 881.8453369140625
131, 0, 0, 878.0740356445312
132, 0, 0, 880.9874877929688
133, 0, 0, 875.4918212890625
134, 0, 0, 874.788330078125
135, 0, 0, 873.368408203125
136, 0, 0, 869.7503662109375
137, 0, 0, 860.8340454101562
138, 0, 0, 862.0856323242188
139, 0, 0, 863.1469116210938
140, 0, 0, 855.7626953125
141, 0, 0, 858.7523803710938
142, 0, 0, 856.7532958984375
143, 0, 0, 849.3955078125
144, 0, 0, 846.1064453125
145, 0, 0, 846.4495849609375
146, 0, 0, 844.9805297851562
147, 0, 0, 842.2334594726562
148, 0, 0, 835.2182006835938
149, 0, 0, 832.4472045898438
150, 0, 0, 822.7791137695312
151, 0, 0, 826.0225219726562
152, 0, 0, 830.7748413085938
153, 0, 0, 821.6054077148438
154, 0, 0, 821.9596557617188
155, 0, 0, 817.8591918945312
156, 0, 0, 813.1318969726562
157, 0, 0, 810.1203002929688
158, 0, 0, 813.4475708007812
159, 0, 0, 815.7894287109375
160, 0, 0, 805.0404052734375
161, 0, 0, 793.9904174804688
162, 0, 0, 805.0792846679688
163, 0, 0, 801.2428588867188
164, 0, 0, 803.5731201171875
165, 0, 0, 796.4218139648438
166, 0, 0, 802.9169311523438
167, 0, 0, 790.4995727539062
168, 0, 0, 784.38232421875
169, 0, 0, 781.3690185546875
170, 0, 0, 781.0895385742188
171, 0, 0, 783.9619750976562
172, 0, 0, 783.8833618164062
173, 0, 0, 781.244140625
174, 0, 0, 780.7190551757812
175, 0, 0, 774.2271728515625
176, 0, 0, 778.4663696289062
177, 0, 0, 776.1502685546875
178, 0, 0, 773.9862670898438
179, 0, 0, 773.7930297851562
