# TOPAS Version: 3.3.p1
# Parameter File: Test.txt
# Results for scorer MLIC_Scorer
# Scored in component: MLIC
# X in 165 bins of 0.2 cm
# Y in 1 bin  of 10 cm
# Z in 1 bin  of 10 cm
# EnergyDeposit ( MeV ) : Sum   
0, 0, 0, 0
1, 0, 0, 0
2, 0, 0, 0
3, 0, 0, 0
4, 0, 0, 0
5, 0, 0, 0
6, 0, 0, 0
7, 0, 0, 0
8, 0, 0, 0
9, 0, 0, 0
10, 0, 0, 0
11, 0, 0, 0
12, 0, 0, 0
13, 0, 0, 0
14, 0, 0, 0
15, 0, 0, 0
16, 0, 0, 0
17, 0, 0, 0
18, 0, 0, 0
19, 0, 0, 0
20, 0, 0, 0
21, 0, 0, 0
22, 0, 0, 0
23, 0, 0, 0
24, 0, 0, 0
25, 0, 0, 0
26, 0, 0, 0
27, 0, 0, 0
28, 0, 0, 0
29, 0, 0, 0
30, 0, 0, 0
31, 0, 0, 0
32, 0, 0, 0
33, 0, 0, 0
34, 0, 0, 0
35, 0, 0, 0
36, 0, 0, 0
37, 0, 0, 0
38, 0, 0, 0
39, 0, 0, 0
40, 0, 0, 0
41, 0, 0, 0
42, 0, 0, 0
43, 0, 0, 0
44, 0, 0, 0
45, 0, 0, 0
46, 0, 0, 0
47, 0, 0, 0
48, 0, 0, 0
49, 0, 0, 0
50, 0, 0, 0
51, 0, 0, 0
52, 0, 0, 0
53, 0, 0, 0
54, 0, 0, 0
55, 0, 0, 0
56, 0, 0, 0
57, 0, 0, 0
58, 0, 0, 0
59, 0, 0, 0
60, 0, 0, 0
61, 0, 0, 0
62, 0, 0, 0
63, 0, 0, 0
64, 0, 0, 0
65, 0, 0, 0
66, 0, 0, 0
67, 0, 0, 0
68, 0, 0, 0
69, 0, 0, 0
70, 0, 0, 0
71, 0, 0, 0
72, 0, 0, 0
73, 0, 0, 0
74, 0, 0, 0
75, 0, 0, 0
76, 0, 0, 0
77, 0, 0, 0
78, 0, 0, 0
79, 0, 0, 0
80, 0, 0, 0
81, 0, 0, 0
82, 0, 0, 0
83, 0, 0, 0
84, 0, 0, 0
85, 0, 0, 0
86, 0, 0, 0
87, 0, 0, 0
88, 0, 0, 5.472251892089844
89, 0, 0, 26.51134872436523
90, 0, 0, 96.41004180908203
91, 0, 0, 506.7259216308594
92, 0, 0, 1404.952514648438
93, 0, 0, 2838.9638671875
94, 0, 0, 4307.44140625
95, 0, 0, 5288.5869140625
96, 0, 0, 5503.07666015625
97, 0, 0, 4985.4130859375
98, 0, 0, 4331.3408203125
99, 0, 0, 3779.066650390625
100, 0, 0, 3411.88037109375
101, 0, 0, 3144.310791015625
102, 0, 0, 2936.086669921875
103, 0, 0, 2776.49951171875
104, 0, 0, 2643.290283203125
105, 0, 0, 2526.122314453125
106, 0, 0, 2427.083984375
107, 0, 0, 2350.8603515625
108, 0, 0, 2264.653076171875
109, 0, 0, 2197.95458984375
110, 0, 0, 2132.176025390625
111, 0, 0, 2075.18115234375
112, 0, 0, 2025.720458984375
113, 0, 0, 1977.6767578125
114, 0, 0, 1931.84521484375
115, 0, 0, 1888.744873046875
116, 0, 0, 1851.93212890625
117, 0, 0, 1814.652221679688
118, 0, 0, 1781.892456054688
119, 0, 0, 1750.974731445312
120, 0, 0, 1723.200317382812
121, 0, 0, 1694.632202148438
122, 0, 0, 1671.627685546875
123, 0, 0, 1640.455444335938
124, 0, 0, 1627.164916992188
125, 0, 0, 1602.614624023438
126, 0, 0, 1574.395751953125
127, 0, 0, 1555.074829101562
128, 0, 0, 1536.2255859375
129, 0, 0, 1513.690063476562
130, 0, 0, 1502.154174804688
131, 0, 0, 1478.661865234375
132, 0, 0, 1462.153442382812
133, 0, 0, 1450.873046875
134, 0, 0, 1433.36328125
135, 0, 0, 1419.357543945312
136, 0, 0, 1411.068603515625
137, 0, 0, 1385.658935546875
138, 0, 0, 1371.945190429688
139, 0, 0, 1374.284790039062
140, 0, 0, 1352.054931640625
141, 0, 0, 1342.101684570312
142, 0, 0, 1325.932250976562
143, 0, 0, 1311.799560546875
144, 0, 0, 1305.75537109375
145, 0, 0, 1295.177856445312
146, 0, 0, 1289.430053710938
147, 0, 0, 1279.736938476562
148, 0, 0, 1266.743774414062
149, 0, 0, 1257.709228515625
150, 0, 0, 1234.779052734375
151, 0, 0, 1231.137573242188
152, 0, 0, 1229.304321289062
153, 0, 0, 1214.413696289062
154, 0, 0, 1213.436279296875
155, 0, 0, 1204.309326171875
156, 0, 0, 1202.44287109375
157, 0, 0, 1198.311645507812
158, 0, 0, 1181.890991210938
159, 0, 0, 1172.368286132812
160, 0, 0, 1168.723876953125
161, 0, 0, 1161.536499023438
162, 0, 0, 1145.653076171875
163, 0, 0, 1151.534912109375
164, 0, 0, 1141.639770507812
