# TOPAS Version: 3.3.p1
# Parameter File: Test.txt
# Results for scorer MLIC_Scorer
# Scored in component: MLIC
# X in 180 bins of 0.177778 cm
# Y in 1 bin  of 10 cm
# Z in 1 bin  of 10 cm
# EnergyDeposit ( MeV ) : Sum   
0, 0, 0, 0
1, 0, 0, 0
2, 0, 0, 0
3, 0, 0, 0
4, 0, 0, 0
5, 0, 0, 0
6, 0, 0, 0
7, 0, 0, 0
8, 0, 0, 0
9, 0, 0, 0
10, 0, 0, 0
11, 0, 0, 0
12, 0, 0, 0
13, 0, 0, 0
14, 0, 0, 0
15, 0, 0, 0
16, 0, 0, 0
17, 0, 0, 0
18, 0, 0, 0
19, 0, 0, 0
20, 0, 0, 0
21, 0, 0, 0
22, 0, 0, 0.01176436431705952
23, 0, 0, 0
24, 0, 0, 0
25, 0, 0, 0
26, 0, 0, 0
27, 0, 0, 0
28, 0, 0, 0
29, 0, 0, 0
30, 0, 0, 0.003272272180765867
31, 0, 0, 0
32, 0, 0, 0
33, 0, 0, 0
34, 0, 0, 0
35, 0, 0, 0
36, 0, 0, 0
37, 0, 0, 0
38, 0, 0, 0
39, 0, 0, 0
40, 0, 0, 0
41, 0, 0, 0
42, 0, 0, 0
43, 0, 0, 0
44, 0, 0, 0.02365880645811558
45, 0, 0, 0
46, 0, 0, 0
47, 0, 0, 0
48, 0, 0, 0
49, 0, 0, 0
50, 0, 0, 0
51, 0, 0, 0
52, 0, 0, 0
53, 0, 0, 0
54, 0, 0, 0.0134363966062665
55, 0, 0, 0
56, 0, 0, 0
57, 0, 0, 23.17137336730957
58, 0, 0, 153.3048858642578
59, 0, 0, 688.4002075195312
60, 0, 0, 1570.319580078125
61, 0, 0, 3084.534423828125
62, 0, 0, 4323.58056640625
63, 0, 0, 4895.61767578125
64, 0, 0, 4918.673828125
65, 0, 0, 4550.5947265625
66, 0, 0, 3932.50146484375
67, 0, 0, 3500.30712890625
68, 0, 0, 3152.9716796875
69, 0, 0, 2906.923583984375
70, 0, 0, 2727.924072265625
71, 0, 0, 2582.711669921875
72, 0, 0, 2461.147705078125
73, 0, 0, 2348.011474609375
74, 0, 0, 2252.4775390625
75, 0, 0, 2177
76, 0, 0, 2112.35595703125
77, 0, 0, 2038.73681640625
78, 0, 0, 1984.347412109375
79, 0, 0, 1939.894287109375
80, 0, 0, 1890.026000976562
81, 0, 0, 1838.876342773438
82, 0, 0, 1799.595947265625
83, 0, 0, 1764.289916992188
84, 0, 0, 1727.881103515625
85, 0, 0, 1695.69677734375
86, 0, 0, 1663.9296875
87, 0, 0, 1631.16015625
88, 0, 0, 1603.030639648438
89, 0, 0, 1583.197021484375
90, 0, 0, 1550.045166015625
91, 0, 0, 1533.516723632812
92, 0, 0, 1521.869995117188
93, 0, 0, 1491.760498046875
94, 0, 0, 1469.177124023438
95, 0, 0, 1452.718139648438
96, 0, 0, 1427.355224609375
97, 0, 0, 1418.518310546875
98, 0, 0, 1395.733764648438
99, 0, 0, 1380.520874023438
100, 0, 0, 1364.42138671875
101, 0, 0, 1344.726318359375
102, 0, 0, 1342.524169921875
103, 0, 0, 1326.616943359375
104, 0, 0, 1310.420654296875
105, 0, 0, 1298.70849609375
106, 0, 0, 1287.00634765625
107, 0, 0, 1270.101318359375
108, 0, 0, 1256.611328125
109, 0, 0, 1242.422485351562
110, 0, 0, 1237.860595703125
111, 0, 0, 1225.626098632812
112, 0, 0, 1214.272094726562
113, 0, 0, 1201.54638671875
114, 0, 0, 1196.474243164062
115, 0, 0, 1195.464721679688
116, 0, 0, 1174.968994140625
117, 0, 0, 1165.889282226562
118, 0, 0, 1155.754760742188
119, 0, 0, 1150.221923828125
120, 0, 0, 1138.165649414062
121, 0, 0, 1130.662475585938
122, 0, 0, 1120.4052734375
123, 0, 0, 1124.351806640625
124, 0, 0, 1111.016967773438
125, 0, 0, 1111.989135742188
126, 0, 0, 1094.961547851562
127, 0, 0, 1087.6875
128, 0, 0, 1092.297607421875
129, 0, 0, 1077.839721679688
130, 0, 0, 1078.970825195312
131, 0, 0, 1067.931762695312
132, 0, 0, 1067.62890625
133, 0, 0, 1047.300903320312
134, 0, 0, 1046.9716796875
135, 0, 0, 1033.841064453125
136, 0, 0, 1027.346801757812
137, 0, 0, 1031.931884765625
138, 0, 0, 1029.855224609375
139, 0, 0, 1019.308044433594
140, 0, 0, 1016.727416992188
141, 0, 0, 1011.412170410156
142, 0, 0, 1012.009887695312
143, 0, 0, 995.4866943359375
144, 0, 0, 996.0078125
145, 0, 0, 987.8587646484375
146, 0, 0, 983.1470336914062
147, 0, 0, 983.764892578125
148, 0, 0, 981.9285278320312
149, 0, 0, 970.6093139648438
150, 0, 0, 965.4671020507812
151, 0, 0, 967.6229248046875
152, 0, 0, 960.3649291992188
153, 0, 0, 951.1849365234375
154, 0, 0, 955.3578491210938
155, 0, 0, 950.1796264648438
156, 0, 0, 942.2329711914062
157, 0, 0, 934.6546630859375
158, 0, 0, 928.2176513671875
159, 0, 0, 935.3656005859375
160, 0, 0, 929.0250244140625
161, 0, 0, 920.904052734375
162, 0, 0, 924.1031494140625
163, 0, 0, 914.2982788085938
164, 0, 0, 918.5095825195312
165, 0, 0, 914.8152465820312
166, 0, 0, 901.959716796875
167, 0, 0, 902.2078247070312
168, 0, 0, 906.2562255859375
169, 0, 0, 901.4589233398438
170, 0, 0, 896.85791015625
171, 0, 0, 894.5777587890625
172, 0, 0, 885.48876953125
173, 0, 0, 875.3887939453125
174, 0, 0, 880.49560546875
175, 0, 0, 876.0653686523438
176, 0, 0, 872.7013549804688
177, 0, 0, 863.0607299804688
178, 0, 0, 873.334228515625
179, 0, 0, 866.6475830078125
