# TOPAS Version: 3.3.p1
# Parameter File: Test.txt
# Results for scorer MLIC_Scorer
# Scored in component: MLIC
# X in 180 bins of 0.183333 cm
# Y in 1 bin  of 10 cm
# Z in 1 bin  of 10 cm
# EnergyDeposit ( MeV ) : Sum   
0, 0, 0, 0
1, 0, 0, 0
2, 0, 0, 0
3, 0, 0, 0
4, 0, 0, 0.000169686449225992
5, 0, 0, 0
6, 0, 0, 0
7, 0, 0, 0
8, 0, 0, 0
9, 0, 0, 0
10, 0, 0, 0
11, 0, 0, 0
12, 0, 0, 0
13, 0, 0, 0
14, 0, 0, 0
15, 0, 0, 0
16, 0, 0, 0
17, 0, 0, 0
18, 0, 0, 0
19, 0, 0, 0
20, 0, 0, 0
21, 0, 0, 0
22, 0, 0, 0
23, 0, 0, 0
24, 0, 0, 0
25, 0, 0, 0
26, 0, 0, 0
27, 0, 0, 0
28, 0, 0, 0
29, 0, 0, 12.1079568862915
30, 0, 0, 22.69023513793945
31, 0, 0, 161.1113739013672
32, 0, 0, 586.6900634765625
33, 0, 0, 1516.354125976562
34, 0, 0, 2867.126708984375
35, 0, 0, 4256.765625
36, 0, 0, 4940.68896484375
37, 0, 0, 4988.57861328125
38, 0, 0, 4612.1298828125
39, 0, 0, 4034.66650390625
40, 0, 0, 3618.85302734375
41, 0, 0, 3255.742431640625
42, 0, 0, 3000.789306640625
43, 0, 0, 2802.789794921875
44, 0, 0, 2644.608154296875
45, 0, 0, 2515.638916015625
46, 0, 0, 2408.510498046875
47, 0, 0, 2301.82666015625
48, 0, 0, 2222.940673828125
49, 0, 0, 2148.41552734375
50, 0, 0, 2091.47802734375
51, 0, 0, 2034.757568359375
52, 0, 0, 1973.181762695312
53, 0, 0, 1928.189819335938
54, 0, 0, 1872.200805664062
55, 0, 0, 1840.207641601562
56, 0, 0, 1794.55419921875
57, 0, 0, 1752.870483398438
58, 0, 0, 1725.492919921875
59, 0, 0, 1699.371337890625
60, 0, 0, 1668.94189453125
61, 0, 0, 1644.42041015625
62, 0, 0, 1614.27880859375
63, 0, 0, 1589.85791015625
64, 0, 0, 1559.130981445312
65, 0, 0, 1540.236206054688
66, 0, 0, 1514.327392578125
67, 0, 0, 1498.256958007812
68, 0, 0, 1483.457275390625
69, 0, 0, 1461.382690429688
70, 0, 0, 1452.320678710938
71, 0, 0, 1430.50146484375
72, 0, 0, 1411.6884765625
73, 0, 0, 1389.083129882812
74, 0, 0, 1384.225830078125
75, 0, 0, 1362.23046875
76, 0, 0, 1344.75
77, 0, 0, 1321.723999023438
78, 0, 0, 1320.51708984375
79, 0, 0, 1307.225219726562
80, 0, 0, 1300.692993164062
81, 0, 0, 1289.733276367188
82, 0, 0, 1271.7646484375
83, 0, 0, 1258.005126953125
84, 0, 0, 1252.019653320312
85, 0, 0, 1232.341552734375
86, 0, 0, 1220.997314453125
87, 0, 0, 1216.462036132812
88, 0, 0, 1209.825073242188
89, 0, 0, 1199.099243164062
90, 0, 0, 1191.933715820312
91, 0, 0, 1182.076171875
92, 0, 0, 1173.814819335938
93, 0, 0, 1172.948120117188
94, 0, 0, 1159.337158203125
95, 0, 0, 1148.803833007812
96, 0, 0, 1138.496337890625
97, 0, 0, 1129.5986328125
98, 0, 0, 1128.862060546875
99, 0, 0, 1126.365600585938
100, 0, 0, 1117.97607421875
101, 0, 0, 1104.005249023438
102, 0, 0, 1098.982666015625
103, 0, 0, 1094.61083984375
104, 0, 0, 1086.815795898438
105, 0, 0, 1071.890014648438
106, 0, 0, 1069.717163085938
107, 0, 0, 1073.050659179688
108, 0, 0, 1063.802368164062
109, 0, 0, 1049.825927734375
110, 0, 0, 1054.624755859375
111, 0, 0, 1047.142822265625
112, 0, 0, 1046.499755859375
113, 0, 0, 1035.550048828125
114, 0, 0, 1028.395874023438
115, 0, 0, 1024.077880859375
116, 0, 0, 1020.151123046875
117, 0, 0, 1017.044494628906
118, 0, 0, 1008.193786621094
119, 0, 0, 1001.218139648438
120, 0, 0, 998.0293579101562
121, 0, 0, 988.74951171875
122, 0, 0, 991.7096557617188
123, 0, 0, 982.1102905273438
124, 0, 0, 979.8817138671875
125, 0, 0, 981.1016845703125
126, 0, 0, 976.017822265625
127, 0, 0, 969.7732543945312
128, 0, 0, 974.77734375
129, 0, 0, 957.5020141601562
130, 0, 0, 959.0110473632812
131, 0, 0, 950.1446533203125
132, 0, 0, 944.5419311523438
133, 0, 0, 945.9802856445312
134, 0, 0, 938.2518920898438
135, 0, 0, 947.9617309570312
136, 0, 0, 935.007568359375
137, 0, 0, 935.2030029296875
138, 0, 0, 926.0807495117188
139, 0, 0, 926.6996459960938
140, 0, 0, 920.8650512695312
141, 0, 0, 924.3231201171875
142, 0, 0, 913.0568237304688
143, 0, 0, 903.8270874023438
144, 0, 0, 903.6859130859375
145, 0, 0, 902.607177734375
146, 0, 0, 900.8728637695312
147, 0, 0, 897.5767822265625
148, 0, 0, 907.1919555664062
149, 0, 0, 892.4963989257812
150, 0, 0, 887.7164916992188
151, 0, 0, 883.0137329101562
152, 0, 0, 885.2433471679688
153, 0, 0, 886.0977783203125
154, 0, 0, 882.1802368164062
155, 0, 0, 871.2341918945312
156, 0, 0, 869.9346923828125
157, 0, 0, 860.0506591796875
158, 0, 0, 868.4136352539062
159, 0, 0, 858.0321655273438
160, 0, 0, 865.0914916992188
161, 0, 0, 856.607421875
162, 0, 0, 856.365966796875
163, 0, 0, 849.2538452148438
164, 0, 0, 849.2266235351562
165, 0, 0, 851.5179443359375
166, 0, 0, 847.9937133789062
167, 0, 0, 839.1707153320312
168, 0, 0, 844.880126953125
169, 0, 0, 832.7037353515625
170, 0, 0, 843.6414184570312
171, 0, 0, 832.9226684570312
172, 0, 0, 835.9058227539062
173, 0, 0, 833.7565307617188
174, 0, 0, 829.57763671875
175, 0, 0, 822.8636474609375
176, 0, 0, 822.1310424804688
177, 0, 0, 825.276611328125
178, 0, 0, 809.5278930664062
179, 0, 0, 810.22216796875
