# TOPAS Version: 3.3.p1
# Parameter File: Test.txt
# Results for scorer MLIC_Scorer
# Scored in component: MLIC
# X in 165 bins of 0.2 cm
# Y in 1 bin  of 10 cm
# Z in 1 bin  of 10 cm
# EnergyDeposit ( MeV ) : Sum   
0, 0, 0, 0
1, 0, 0, 0
2, 0, 0, 0
3, 0, 0, 0
4, 0, 0, 0
5, 0, 0, 0
6, 0, 0, 0
7, 0, 0, 0
8, 0, 0, 0
9, 0, 0, 0
10, 0, 0, 0
11, 0, 0, 0
12, 0, 0, 0
13, 0, 0, 0
14, 0, 0, 0
15, 0, 0, 0
16, 0, 0, 0
17, 0, 0, 0
18, 0, 0, 0
19, 0, 0, 0.008657120168209076
20, 0, 0, 0
21, 0, 0, 0
22, 0, 0, 0
23, 0, 0, 0
24, 0, 0, 0
25, 0, 0, 0.004478297661989927
26, 0, 0, 0
27, 0, 0, 0
28, 0, 0, 0.003402970498427749
29, 0, 0, 0
30, 0, 0, 0
31, 0, 0, 0
32, 0, 0, 0.00516996206715703
33, 0, 0, 0.03158348053693771
34, 0, 0, 0
35, 0, 0, 0.002858275314792991
36, 0, 0, 0
37, 0, 0, 0
38, 0, 0, 0
39, 0, 0, 0
40, 0, 0, 0
41, 0, 0, 0
42, 0, 0, 0.00183772889431566
43, 0, 0, 0
44, 0, 0, 0
45, 0, 0, 0
46, 0, 0, 0
47, 0, 0, 43.14996337890625
48, 0, 0, 159.0828704833984
49, 0, 0, 628.7118530273438
50, 0, 0, 1534.347290039062
51, 0, 0, 2949.6533203125
52, 0, 0, 4358.185546875
53, 0, 0, 5379.8330078125
54, 0, 0, 5258.91748046875
55, 0, 0, 4858.1103515625
56, 0, 0, 4247.95654296875
57, 0, 0, 3772.61376953125
58, 0, 0, 3399.463623046875
59, 0, 0, 3142.12841796875
60, 0, 0, 2933.684326171875
61, 0, 0, 2765.139404296875
62, 0, 0, 2636.69384765625
63, 0, 0, 2519.129150390625
64, 0, 0, 2419.876953125
65, 0, 0, 2335.819580078125
66, 0, 0, 2256.974853515625
67, 0, 0, 2190.0517578125
68, 0, 0, 2129.19921875
69, 0, 0, 2068.948486328125
70, 0, 0, 2025.301879882812
71, 0, 0, 1959.871826171875
72, 0, 0, 1920.977416992188
73, 0, 0, 1886.466552734375
74, 0, 0, 1843.21044921875
75, 0, 0, 1815.036499023438
76, 0, 0, 1784.159790039062
77, 0, 0, 1749.956176757812
78, 0, 0, 1725.523193359375
79, 0, 0, 1695.520874023438
80, 0, 0, 1675.240600585938
81, 0, 0, 1641.8837890625
82, 0, 0, 1625.448486328125
83, 0, 0, 1599.3359375
84, 0, 0, 1575.506713867188
85, 0, 0, 1561.578125
86, 0, 0, 1531.209716796875
87, 0, 0, 1516.294311523438
88, 0, 0, 1501.121948242188
89, 0, 0, 1484.12109375
90, 0, 0, 1462.1767578125
91, 0, 0, 1441.41064453125
92, 0, 0, 1433.004150390625
93, 0, 0, 1414.8134765625
94, 0, 0, 1412.86083984375
95, 0, 0, 1392.620483398438
96, 0, 0, 1377.465942382812
97, 0, 0, 1364.12744140625
98, 0, 0, 1355.116333007812
99, 0, 0, 1344.268310546875
100, 0, 0, 1329.10595703125
101, 0, 0, 1317.33154296875
102, 0, 0, 1302.776489257812
103, 0, 0, 1294.116821289062
104, 0, 0, 1290.88427734375
105, 0, 0, 1263.616943359375
106, 0, 0, 1266.561645507812
107, 0, 0, 1254.77294921875
108, 0, 0, 1241.606567382812
109, 0, 0, 1232.02685546875
110, 0, 0, 1224.4697265625
111, 0, 0, 1222.456787109375
112, 0, 0, 1206.1318359375
113, 0, 0, 1202.152954101562
114, 0, 0, 1184.527221679688
115, 0, 0, 1190.325927734375
116, 0, 0, 1175.0224609375
117, 0, 0, 1182.304077148438
118, 0, 0, 1167.021362304688
119, 0, 0, 1167.536987304688
120, 0, 0, 1151.82958984375
121, 0, 0, 1145.864624023438
122, 0, 0, 1133.070922851562
123, 0, 0, 1128.632080078125
124, 0, 0, 1127.312133789062
125, 0, 0, 1118.249755859375
126, 0, 0, 1110.010131835938
127, 0, 0, 1107.124389648438
128, 0, 0, 1104.45263671875
129, 0, 0, 1101.327392578125
130, 0, 0, 1089.653198242188
131, 0, 0, 1086.88916015625
132, 0, 0, 1080.010498046875
133, 0, 0, 1077.085815429688
134, 0, 0, 1062.959228515625
135, 0, 0, 1065.283325195312
136, 0, 0, 1057.234375
137, 0, 0, 1052.680908203125
138, 0, 0, 1049.886840820312
139, 0, 0, 1043.907836914062
140, 0, 0, 1045.404174804688
141, 0, 0, 1031.151733398438
142, 0, 0, 1027.698974609375
143, 0, 0, 1032.112548828125
144, 0, 0, 1013.867065429688
145, 0, 0, 1020.60888671875
146, 0, 0, 1014.107116699219
147, 0, 0, 1009.50927734375
148, 0, 0, 999.1423950195312
149, 0, 0, 1001.968994140625
150, 0, 0, 1001.432067871094
151, 0, 0, 991.0490112304688
152, 0, 0, 990.48193359375
153, 0, 0, 988.225341796875
154, 0, 0, 990.779052734375
155, 0, 0, 975.1535034179688
156, 0, 0, 975.4607543945312
157, 0, 0, 969.2482299804688
158, 0, 0, 969.0707397460938
159, 0, 0, 964.54345703125
160, 0, 0, 960.478515625
161, 0, 0, 956.6435546875
162, 0, 0, 953.092529296875
163, 0, 0, 953.6473388671875
164, 0, 0, 942.9786987304688
