# TOPAS Version: 3.3.p1
# Parameter File: Test.txt
# Results for scorer MLIC_Scorer
# Scored in component: MLIC
# X in 180 bins of 0.177778 cm
# Y in 1 bin  of 10 cm
# Z in 1 bin  of 10 cm
# EnergyDeposit ( MeV ) : Sum   
0, 0, 0, 0
1, 0, 0, 0
2, 0, 0, 0
3, 0, 0, 0
4, 0, 0, 0
5, 0, 0, 0
6, 0, 0, 0
7, 0, 0, 0
8, 0, 0, 0
9, 0, 0, 0
10, 0, 0, 0
11, 0, 0, 0
12, 0, 0, 0
13, 0, 0, 0
14, 0, 0, 0
15, 0, 0, 0
16, 0, 0, 0
17, 0, 0, 0
18, 0, 0, 0
19, 0, 0, 0
20, 0, 0, 0
21, 0, 0, 0
22, 0, 0, 0
23, 0, 0, 0
24, 0, 0, 0
25, 0, 0, 0
26, 0, 0, 0
27, 0, 0, 0
28, 0, 0, 0
29, 0, 0, 0
30, 0, 0, 0
31, 0, 0, 0
32, 0, 0, 0
33, 0, 0, 0
34, 0, 0, 0
35, 0, 0, 0
36, 0, 0, 0
37, 0, 0, 0
38, 0, 0, 0
39, 0, 0, 0
40, 0, 0, 0
41, 0, 0, 0
42, 0, 0, 0
43, 0, 0, 0
44, 0, 0, 0
45, 0, 0, 0
46, 0, 0, 0
47, 0, 0, 0
48, 0, 0, 0
49, 0, 0, 0
50, 0, 0, 0
51, 0, 0, 0
52, 0, 0, 0
53, 0, 0, 0
54, 0, 0, 0
55, 0, 0, 0
56, 0, 0, 0
57, 0, 0, 0
58, 0, 0, 0
59, 0, 0, 0
60, 0, 0, 0
61, 0, 0, 0
62, 0, 0, 0
63, 0, 0, 0
64, 0, 0, 0
65, 0, 0, 0
66, 0, 0, 0
67, 0, 0, 0
68, 0, 0, 0
69, 0, 0, 0
70, 0, 0, 0
71, 0, 0, 0
72, 0, 0, 0
73, 0, 0, 0
74, 0, 0, 0
75, 0, 0, 0
76, 0, 0, 28.59616851806641
77, 0, 0, 75.18656921386719
78, 0, 0, 172.7152252197266
79, 0, 0, 298.4099426269531
80, 0, 0, 434.2243347167969
81, 0, 0, 382.9239196777344
82, 0, 0, 378.2955322265625
83, 0, 0, 336.4980773925781
84, 0, 0, 293.7373657226562
85, 0, 0, 261.4351196289062
86, 0, 0, 239.814208984375
87, 0, 0, 224.9656372070312
88, 0, 0, 209.4547882080078
89, 0, 0, 201.145751953125
90, 0, 0, 192.0441131591797
91, 0, 0, 185.1083831787109
92, 0, 0, 174.7576141357422
93, 0, 0, 170.6209716796875
94, 0, 0, 165.7464447021484
95, 0, 0, 162.3271484375
96, 0, 0, 156.8014678955078
97, 0, 0, 153.8070983886719
98, 0, 0, 149.4943389892578
99, 0, 0, 146.2261047363281
100, 0, 0, 144.6695251464844
101, 0, 0, 138.3672027587891
102, 0, 0, 136.88623046875
103, 0, 0, 136.3009338378906
104, 0, 0, 131.3811798095703
105, 0, 0, 130.2989501953125
106, 0, 0, 127.0034484863281
107, 0, 0, 125.0158996582031
108, 0, 0, 122.7285690307617
109, 0, 0, 121.5580368041992
110, 0, 0, 118.9368667602539
111, 0, 0, 118.0100708007812
112, 0, 0, 116.6414031982422
113, 0, 0, 116.4570465087891
114, 0, 0, 112.00146484375
115, 0, 0, 111.4962921142578
116, 0, 0, 112.0403900146484
117, 0, 0, 109.3732223510742
118, 0, 0, 109.2061080932617
119, 0, 0, 106.6915969848633
120, 0, 0, 105.5735778808594
121, 0, 0, 104.3480911254883
122, 0, 0, 103.7377624511719
123, 0, 0, 103.8845367431641
124, 0, 0, 103.462043762207
125, 0, 0, 101.2406539916992
126, 0, 0, 99.73930358886719
127, 0, 0, 99.82893371582031
128, 0, 0, 97.82654571533203
129, 0, 0, 99.0966796875
130, 0, 0, 96.34735107421875
131, 0, 0, 96.49420166015625
132, 0, 0, 94.56831359863281
133, 0, 0, 96.83477783203125
134, 0, 0, 91.98158264160156
135, 0, 0, 93.49810028076172
136, 0, 0, 92.997802734375
137, 0, 0, 91.82302856445312
138, 0, 0, 91.56468200683594
139, 0, 0, 91.70392608642578
140, 0, 0, 90.37976837158203
141, 0, 0, 89.95046997070312
142, 0, 0, 86.94577026367188
143, 0, 0, 87.50117492675781
144, 0, 0, 89.15485382080078
145, 0, 0, 88.38775634765625
146, 0, 0, 85.08159637451172
147, 0, 0, 84.54539489746094
148, 0, 0, 85.72682189941406
149, 0, 0, 86.49739837646484
150, 0, 0, 82.8223876953125
151, 0, 0, 84.7838134765625
152, 0, 0, 82.67522430419922
153, 0, 0, 85.70107269287109
154, 0, 0, 82.38150787353516
155, 0, 0, 82.30157470703125
156, 0, 0, 80.35984039306641
157, 0, 0, 80.65958404541016
158, 0, 0, 82.37178039550781
159, 0, 0, 81.02848052978516
160, 0, 0, 80.33792114257812
161, 0, 0, 80.15702819824219
162, 0, 0, 80.28608703613281
163, 0, 0, 77.95579528808594
164, 0, 0, 76.89589691162109
165, 0, 0, 79.48751068115234
166, 0, 0, 79.85068511962891
167, 0, 0, 76.22840881347656
168, 0, 0, 78.38253784179688
169, 0, 0, 75.94593811035156
170, 0, 0, 77.70660400390625
171, 0, 0, 75.59205627441406
172, 0, 0, 76.9482421875
173, 0, 0, 74.94094085693359
174, 0, 0, 75.23191833496094
175, 0, 0, 73.85447692871094
176, 0, 0, 72.56906890869141
177, 0, 0, 75.72065734863281
178, 0, 0, 72.67037200927734
179, 0, 0, 71.84660339355469
