# TOPAS Version: 3.3.p1
# Parameter File: Test.txt
# Results for scorer MLIC_Scorer
# Scored in component: MLIC
# X in 180 bins of 0.177778 cm
# Y in 1 bin  of 10 cm
# Z in 1 bin  of 10 cm
# EnergyDeposit ( MeV ) : Sum   
0, 0, 0, 0
1, 0, 0, 0
2, 0, 0, 0
3, 0, 0, 0
4, 0, 0, 0
5, 0, 0, 0
6, 0, 0, 0
7, 0, 0, 0
8, 0, 0, 0
9, 0, 0, 0
10, 0, 0, 0
11, 0, 0, 0
12, 0, 0, 0
13, 0, 0, 0
14, 0, 0, 0
15, 0, 0, 0.001224777544848621
16, 0, 0, 0
17, 0, 0, 0
18, 0, 0, 0
19, 0, 0, 0
20, 0, 0, 0
21, 0, 0, 0
22, 0, 0, 0
23, 0, 0, 0
24, 0, 0, 0
25, 0, 0, 23.10491561889648
26, 0, 0, 99.16407012939453
27, 0, 0, 266.0055236816406
28, 0, 0, 978.9585571289062
29, 0, 0, 2125.0234375
30, 0, 0, 3492.575439453125
31, 0, 0, 4540.8798828125
32, 0, 0, 4998.19580078125
33, 0, 0, 4713.47021484375
34, 0, 0, 4259.71826171875
35, 0, 0, 3779.44287109375
36, 0, 0, 3357.597412109375
37, 0, 0, 3077.578125
38, 0, 0, 2855.322265625
39, 0, 0, 2670.220458984375
40, 0, 0, 2523.06591796875
41, 0, 0, 2416.85791015625
42, 0, 0, 2310.72119140625
43, 0, 0, 2232.42138671875
44, 0, 0, 2146.086669921875
45, 0, 0, 2087.407958984375
46, 0, 0, 2020.711791992188
47, 0, 0, 1970.042358398438
48, 0, 0, 1917.697998046875
49, 0, 0, 1868.506713867188
50, 0, 0, 1828.026489257812
51, 0, 0, 1786.425903320312
52, 0, 0, 1754.922485351562
53, 0, 0, 1711.879760742188
54, 0, 0, 1678.904541015625
55, 0, 0, 1646.010131835938
56, 0, 0, 1626.855834960938
57, 0, 0, 1597.671142578125
58, 0, 0, 1567.618041992188
59, 0, 0, 1544.5556640625
60, 0, 0, 1521.678588867188
61, 0, 0, 1499.348388671875
62, 0, 0, 1475.70751953125
63, 0, 0, 1465.502319335938
64, 0, 0, 1446.12109375
65, 0, 0, 1421.954223632812
66, 0, 0, 1407.918212890625
67, 0, 0, 1398.297241210938
68, 0, 0, 1373.295654296875
69, 0, 0, 1355.634887695312
70, 0, 0, 1351.508544921875
71, 0, 0, 1327.258178710938
72, 0, 0, 1313.9755859375
73, 0, 0, 1306.719970703125
74, 0, 0, 1289.451904296875
75, 0, 0, 1280.184692382812
76, 0, 0, 1267.036376953125
77, 0, 0, 1250.864868164062
78, 0, 0, 1244.6884765625
79, 0, 0, 1231.861938476562
80, 0, 0, 1216.866577148438
81, 0, 0, 1213.15185546875
82, 0, 0, 1207.773803710938
83, 0, 0, 1193.780517578125
84, 0, 0, 1185.664428710938
85, 0, 0, 1180.363525390625
86, 0, 0, 1161.4140625
87, 0, 0, 1151.264038085938
88, 0, 0, 1150.350341796875
89, 0, 0, 1148.575073242188
90, 0, 0, 1130.719116210938
91, 0, 0, 1120.575805664062
92, 0, 0, 1116.326293945312
93, 0, 0, 1103.981079101562
94, 0, 0, 1113.57177734375
95, 0, 0, 1101.202026367188
96, 0, 0, 1088.735473632812
97, 0, 0, 1081.925537109375
98, 0, 0, 1078.151611328125
99, 0, 0, 1075.40576171875
100, 0, 0, 1057.04052734375
101, 0, 0, 1052.701171875
102, 0, 0, 1050.325317382812
103, 0, 0, 1044.2099609375
104, 0, 0, 1041.861450195312
105, 0, 0, 1032.666625976562
106, 0, 0, 1035.480834960938
107, 0, 0, 1025.8564453125
108, 0, 0, 1015.917602539062
109, 0, 0, 1015.865234375
110, 0, 0, 1005.818969726562
111, 0, 0, 1009.05517578125
112, 0, 0, 991.0197143554688
113, 0, 0, 992.2745361328125
114, 0, 0, 991.38671875
115, 0, 0, 988.353515625
116, 0, 0, 977.058837890625
117, 0, 0, 975.4364624023438
118, 0, 0, 971.05078125
119, 0, 0, 958.685302734375
120, 0, 0, 964.1393432617188
121, 0, 0, 959.2476806640625
122, 0, 0, 952.200439453125
123, 0, 0, 943.328125
124, 0, 0, 939.2730102539062
125, 0, 0, 947.5547485351562
126, 0, 0, 944.6810302734375
127, 0, 0, 926.525390625
128, 0, 0, 927.3357543945312
129, 0, 0, 927.5623168945312
130, 0, 0, 920.431884765625
131, 0, 0, 919.306640625
132, 0, 0, 913.5377197265625
133, 0, 0, 910.8623657226562
134, 0, 0, 904.9208374023438
135, 0, 0, 907.3814697265625
136, 0, 0, 903.172119140625
137, 0, 0, 901.3881225585938
138, 0, 0, 892.7614135742188
139, 0, 0, 892.2658081054688
140, 0, 0, 877.68115234375
141, 0, 0, 883.5658569335938
142, 0, 0, 885.6655883789062
143, 0, 0, 883.9475708007812
144, 0, 0, 879.8362426757812
145, 0, 0, 878.4208374023438
146, 0, 0, 871.5283813476562
147, 0, 0, 867.0995483398438
148, 0, 0, 860.7769775390625
149, 0, 0, 858.3895874023438
150, 0, 0, 858.87158203125
151, 0, 0, 847.6940307617188
152, 0, 0, 855.2484130859375
153, 0, 0, 846.9044189453125
154, 0, 0, 842.987548828125
155, 0, 0, 847.7454223632812
156, 0, 0, 842.1778564453125
157, 0, 0, 844.1788330078125
158, 0, 0, 838.3486938476562
159, 0, 0, 835.4539794921875
160, 0, 0, 828.3419189453125
161, 0, 0, 832.7666625976562
162, 0, 0, 822.7239379882812
163, 0, 0, 832.6102905273438
164, 0, 0, 821.9453125
165, 0, 0, 819.3478393554688
166, 0, 0, 819.9432373046875
167, 0, 0, 815.8515014648438
168, 0, 0, 808.97998046875
169, 0, 0, 811.7989501953125
170, 0, 0, 809.1650390625
171, 0, 0, 803.0367431640625
172, 0, 0, 804.1367797851562
173, 0, 0, 805.4782104492188
174, 0, 0, 796.6744995117188
175, 0, 0, 806.0946044921875
176, 0, 0, 795.9718017578125
177, 0, 0, 797.034423828125
178, 0, 0, 795.2891845703125
179, 0, 0, 791.6448364257812
