# TOPAS Version: 3.3.p1
# Parameter File: Test.txt
# Results for scorer MLIC_Scorer
# Scored in component: MLIC
# X in 180 bins of 0.177778 cm
# Y in 1 bin  of 10 cm
# Z in 1 bin  of 10 cm
# EnergyDeposit ( MeV ) : Sum   
0, 0, 0, 0
1, 0, 0, 0
2, 0, 0, 0
3, 0, 0, 0
4, 0, 0, 0
5, 0, 0, 0
6, 0, 0, 0
7, 0, 0, 0
8, 0, 0, 0
9, 0, 0, 0
10, 0, 0, 0
11, 0, 0, 0
12, 0, 0, 0
13, 0, 0, 0
14, 0, 0, 0
15, 0, 0, 0
16, 0, 0, 0
17, 0, 0, 0
18, 0, 0, 0
19, 0, 0, 0
20, 0, 0, 0
21, 0, 0, 0
22, 0, 0, 0
23, 0, 0, 0
24, 0, 0, 0
25, 0, 0, 0
26, 0, 0, 0
27, 0, 0, 0
28, 0, 0, 0
29, 0, 0, 0
30, 0, 0, 0
31, 0, 0, 0
32, 0, 0, 0
33, 0, 0, 0
34, 0, 0, 0
35, 0, 0, 0
36, 0, 0, 0
37, 0, 0, 0
38, 0, 0, 0
39, 0, 0, 0
40, 0, 0, 0
41, 0, 0, 0
42, 0, 0, 0
43, 0, 0, 0
44, 0, 0, 0
45, 0, 0, 0
46, 0, 0, 0
47, 0, 0, 0
48, 0, 0, 0
49, 0, 0, 0
50, 0, 0, 0
51, 0, 0, 0
52, 0, 0, 0
53, 0, 0, 0
54, 0, 0, 0
55, 0, 0, 0
56, 0, 0, 0
57, 0, 0, 0
58, 0, 0, 0
59, 0, 0, 0
60, 0, 0, 0
61, 0, 0, 0
62, 0, 0, 0
63, 0, 0, 0
64, 0, 0, 0
65, 0, 0, 0
66, 0, 0, 0
67, 0, 0, 0
68, 0, 0, 0
69, 0, 0, 0
70, 0, 0, 0
71, 0, 0, 0
72, 0, 0, 0
73, 0, 0, 0
74, 0, 0, 0
75, 0, 0, 0
76, 0, 0, 0
77, 0, 0, 0
78, 0, 0, 0.002393650822341442
79, 0, 0, 0
80, 0, 0, 0
81, 0, 0, 0
82, 0, 0, 0
83, 0, 0, 0
84, 0, 0, 0
85, 0, 0, 0.0001005773738143034
86, 0, 0, 0
87, 0, 0, 0
88, 0, 0, 0
89, 0, 0, 0
90, 0, 0, 0
91, 0, 0, 0
92, 0, 0, 0
93, 0, 0, 0
94, 0, 0, 0
95, 0, 0, 0
96, 0, 0, 0
97, 0, 0, 0
98, 0, 0, 0
99, 0, 0, 0
100, 0, 0, 0.02086200192570686
101, 0, 0, 38.72039794921875
102, 0, 0, 241.4455413818359
103, 0, 0, 833.537353515625
104, 0, 0, 1976.310180664062
105, 0, 0, 3319.739990234375
106, 0, 0, 4675.7177734375
107, 0, 0, 5184.12158203125
108, 0, 0, 4834.98193359375
109, 0, 0, 4342.00634765625
110, 0, 0, 3796.4228515625
111, 0, 0, 3349.595458984375
112, 0, 0, 3052.16455078125
113, 0, 0, 2844.19580078125
114, 0, 0, 2675.296875
115, 0, 0, 2538.789794921875
116, 0, 0, 2416.339599609375
117, 0, 0, 2319.73974609375
118, 0, 0, 2228.92822265625
119, 0, 0, 2152.67822265625
120, 0, 0, 2078.9267578125
121, 0, 0, 2019.236328125
122, 0, 0, 1966.828125
123, 0, 0, 1909.242797851562
124, 0, 0, 1871.306762695312
125, 0, 0, 1832.142333984375
126, 0, 0, 1789.230712890625
127, 0, 0, 1744.793212890625
128, 0, 0, 1724.768920898438
129, 0, 0, 1678.243774414062
130, 0, 0, 1648.770141601562
131, 0, 0, 1626.0439453125
132, 0, 0, 1595.648803710938
133, 0, 0, 1569.60302734375
134, 0, 0, 1545.591064453125
135, 0, 0, 1520.823486328125
136, 0, 0, 1504.966796875
137, 0, 0, 1486.080200195312
138, 0, 0, 1465.870849609375
139, 0, 0, 1449.437744140625
140, 0, 0, 1429.118896484375
141, 0, 0, 1410.13623046875
142, 0, 0, 1396.596435546875
143, 0, 0, 1376.929443359375
144, 0, 0, 1363.4443359375
145, 0, 0, 1346.514770507812
146, 0, 0, 1326.944213867188
147, 0, 0, 1317.003540039062
148, 0, 0, 1305.97509765625
149, 0, 0, 1285.890380859375
150, 0, 0, 1281.581787109375
151, 0, 0, 1275.190063476562
152, 0, 0, 1252.549072265625
153, 0, 0, 1243.900146484375
154, 0, 0, 1236.928466796875
155, 0, 0, 1225.46826171875
156, 0, 0, 1211.488403320312
157, 0, 0, 1195.059204101562
158, 0, 0, 1193.801513671875
159, 0, 0, 1176.743408203125
160, 0, 0, 1179.07177734375
161, 0, 0, 1162.952026367188
162, 0, 0, 1160.796264648438
163, 0, 0, 1154.897583007812
164, 0, 0, 1139.648803710938
165, 0, 0, 1136.3818359375
166, 0, 0, 1129.3046875
167, 0, 0, 1113.891357421875
168, 0, 0, 1107.434936523438
169, 0, 0, 1100.184814453125
170, 0, 0, 1099.36474609375
171, 0, 0, 1092.805419921875
172, 0, 0, 1082.0400390625
173, 0, 0, 1073.92431640625
174, 0, 0, 1064.587768554688
175, 0, 0, 1063.644287109375
176, 0, 0, 1061.146362304688
177, 0, 0, 1048.888427734375
178, 0, 0, 1047.441528320312
179, 0, 0, 1040.727905273438
