# TOPAS Version: 3.3.p1
# Parameter File: Test.txt
# Results for scorer MLIC_Scorer
# Scored in component: MLIC
# X in 180 bins of 0.177778 cm
# Y in 1 bin  of 10 cm
# Z in 1 bin  of 10 cm
# EnergyDeposit ( MeV ) : Sum   
0, 0, 0, 0
1, 0, 0, 0
2, 0, 0, 0
3, 0, 0, 0
4, 0, 0, 0
5, 0, 0, 0.0371951200067997
6, 0, 0, 0
7, 0, 0, 0
8, 0, 0, 0
9, 0, 0, 0
10, 0, 0, 0
11, 0, 0, 0
12, 0, 0, 7.070848941802979
13, 0, 0, 25.34903335571289
14, 0, 0, 85.68630218505859
15, 0, 0, 456.5305786132812
16, 0, 0, 1394.130126953125
17, 0, 0, 2588.250732421875
18, 0, 0, 4209.61083984375
19, 0, 0, 5145.744140625
20, 0, 0, 5014.8642578125
21, 0, 0, 4566.8916015625
22, 0, 0, 4022.54638671875
23, 0, 0, 3524.662109375
24, 0, 0, 3200.42724609375
25, 0, 0, 2934.0615234375
26, 0, 0, 2758.700927734375
27, 0, 0, 2601.011474609375
28, 0, 0, 2473.269775390625
29, 0, 0, 2365.749267578125
30, 0, 0, 2276.781494140625
31, 0, 0, 2188.885498046875
32, 0, 0, 2120.81591796875
33, 0, 0, 2055.93896484375
34, 0, 0, 1994.643310546875
35, 0, 0, 1944.349243164062
36, 0, 0, 1891.983276367188
37, 0, 0, 1841.61865234375
38, 0, 0, 1799.709838867188
39, 0, 0, 1767.124877929688
40, 0, 0, 1742.049682617188
41, 0, 0, 1700.583984375
42, 0, 0, 1674.322021484375
43, 0, 0, 1631.629760742188
44, 0, 0, 1605.004516601562
45, 0, 0, 1587.120483398438
46, 0, 0, 1565.733764648438
47, 0, 0, 1531.131713867188
48, 0, 0, 1505.531127929688
49, 0, 0, 1487.467529296875
50, 0, 0, 1473.347900390625
51, 0, 0, 1457.281127929688
52, 0, 0, 1438.609008789062
53, 0, 0, 1418.597900390625
54, 0, 0, 1408.379760742188
55, 0, 0, 1382.47802734375
56, 0, 0, 1364.38427734375
57, 0, 0, 1351.721069335938
58, 0, 0, 1327.861938476562
59, 0, 0, 1317.676635742188
60, 0, 0, 1312.0859375
61, 0, 0, 1291.65771484375
62, 0, 0, 1280.6103515625
63, 0, 0, 1281.835327148438
64, 0, 0, 1261.837280273438
65, 0, 0, 1254.197509765625
66, 0, 0, 1240.2314453125
67, 0, 0, 1229.512939453125
68, 0, 0, 1216.460571289062
69, 0, 0, 1209.926391601562
70, 0, 0, 1208.177612304688
71, 0, 0, 1184.074951171875
72, 0, 0, 1178.335571289062
73, 0, 0, 1166.48046875
74, 0, 0, 1168.642944335938
75, 0, 0, 1157.890014648438
76, 0, 0, 1139.111572265625
77, 0, 0, 1132.548828125
78, 0, 0, 1125.617309570312
79, 0, 0, 1111.971313476562
80, 0, 0, 1116.06591796875
81, 0, 0, 1106.055053710938
82, 0, 0, 1092.346313476562
83, 0, 0, 1089.9150390625
84, 0, 0, 1086.181030273438
85, 0, 0, 1072.25
86, 0, 0, 1076.33349609375
87, 0, 0, 1070.393188476562
88, 0, 0, 1061.559204101562
89, 0, 0, 1060.40234375
90, 0, 0, 1047.22802734375
91, 0, 0, 1047.779052734375
92, 0, 0, 1032.147216796875
93, 0, 0, 1037.176025390625
94, 0, 0, 1023.279113769531
95, 0, 0, 1021.37548828125
96, 0, 0, 1022.82177734375
97, 0, 0, 1016.517700195312
98, 0, 0, 1002.341674804688
99, 0, 0, 1002.43994140625
100, 0, 0, 1002.516967773438
101, 0, 0, 991.1638793945312
102, 0, 0, 983.537353515625
103, 0, 0, 980.6239013671875
104, 0, 0, 968.9915771484375
105, 0, 0, 963.2277221679688
106, 0, 0, 965.3740234375
107, 0, 0, 962.6506958007812
108, 0, 0, 961.2160034179688
109, 0, 0, 950.8868408203125
110, 0, 0, 950.5068359375
111, 0, 0, 949.4973754882812
112, 0, 0, 943.9345703125
113, 0, 0, 937.04736328125
114, 0, 0, 931.3549194335938
115, 0, 0, 930.5962524414062
116, 0, 0, 925.3828125
117, 0, 0, 916.9651489257812
118, 0, 0, 928.767578125
119, 0, 0, 920.4473876953125
120, 0, 0, 921.0034790039062
121, 0, 0, 907.641357421875
122, 0, 0, 901.9473266601562
123, 0, 0, 904.4739379882812
124, 0, 0, 903.192138671875
125, 0, 0, 899.8743286132812
126, 0, 0, 894.6334228515625
127, 0, 0, 887.4378051757812
128, 0, 0, 874.8970336914062
129, 0, 0, 884.9230346679688
130, 0, 0, 886.4088745117188
131, 0, 0, 882.3612670898438
132, 0, 0, 885.2492065429688
133, 0, 0, 866.0825805664062
134, 0, 0, 869.3482055664062
135, 0, 0, 869.3074340820312
136, 0, 0, 864.796142578125
137, 0, 0, 858.7285766601562
138, 0, 0, 852.322998046875
139, 0, 0, 856.8570556640625
140, 0, 0, 862.6583251953125
141, 0, 0, 848.0046997070312
142, 0, 0, 850.7048950195312
143, 0, 0, 846.5037231445312
144, 0, 0, 845.3073120117188
145, 0, 0, 838.6702880859375
146, 0, 0, 844.2262573242188
147, 0, 0, 832.7337646484375
148, 0, 0, 828.6974487304688
149, 0, 0, 833.5225830078125
150, 0, 0, 827.7483520507812
151, 0, 0, 821.45458984375
152, 0, 0, 819.4927368164062
153, 0, 0, 818.621826171875
154, 0, 0, 826.6465454101562
155, 0, 0, 814.7189331054688
156, 0, 0, 811.5691528320312
157, 0, 0, 818.1649169921875
158, 0, 0, 806.71826171875
159, 0, 0, 807.3226928710938
160, 0, 0, 808.4800415039062
161, 0, 0, 803.4256591796875
162, 0, 0, 804.4266967773438
163, 0, 0, 795.98583984375
164, 0, 0, 791.2791748046875
165, 0, 0, 793.9137573242188
166, 0, 0, 794.9697875976562
167, 0, 0, 779.1887817382812
168, 0, 0, 786.2283935546875
169, 0, 0, 781.1838989257812
170, 0, 0, 783.6380615234375
171, 0, 0, 779.656005859375
172, 0, 0, 785.339111328125
173, 0, 0, 786.842529296875
174, 0, 0, 771.4711303710938
175, 0, 0, 773.9840087890625
176, 0, 0, 775.9827270507812
177, 0, 0, 767.9887084960938
178, 0, 0, 769.1909790039062
179, 0, 0, 770.21826171875
