# TOPAS Version: 3.3.p1
# Parameter File: Test.txt
# Results for scorer MLIC_Scorer
# Scored in component: MLIC
# X in 180 bins of 0.177778 cm
# Y in 1 bin  of 10 cm
# Z in 1 bin  of 10 cm
# EnergyDeposit ( MeV ) : Sum   
0, 0, 0, 0
1, 0, 0, 0
2, 0, 0, 0
3, 0, 0, 0
4, 0, 0, 0
5, 0, 0, 0
6, 0, 0, 0
7, 0, 0, 0
8, 0, 0, 0
9, 0, 0, 0
10, 0, 0, 0
11, 0, 0, 0
12, 0, 0, 0
13, 0, 0, 0
14, 0, 0, 0
15, 0, 0, 0
16, 0, 0, 0
17, 0, 0, 0
18, 0, 0, 0
19, 0, 0, 0
20, 0, 0, 0
21, 0, 0, 0
22, 0, 0, 0
23, 0, 0, 0
24, 0, 0, 0
25, 0, 0, 0
26, 0, 0, 0
27, 0, 0, 0
28, 0, 0, 0
29, 0, 0, 0
30, 0, 0, 0
31, 0, 0, 0
32, 0, 0, 0
33, 0, 0, 0
34, 0, 0, 0
35, 0, 0, 0
36, 0, 0, 0
37, 0, 0, 0
38, 0, 0, 0
39, 0, 0, 0
40, 0, 0, 0
41, 0, 0, 0
42, 0, 0, 0
43, 0, 0, 0
44, 0, 0, 0
45, 0, 0, 0
46, 0, 0, 0
47, 0, 0, 0
48, 0, 0, 0
49, 0, 0, 0
50, 0, 0, 0
51, 0, 0, 0
52, 0, 0, 0
53, 0, 0, 0
54, 0, 0, 0
55, 0, 0, 0
56, 0, 0, 0
57, 0, 0, 0
58, 0, 0, 0
59, 0, 0, 0
60, 0, 0, 0
61, 0, 0, 0
62, 0, 0, 0
63, 0, 0, 0
64, 0, 0, 0
65, 0, 0, 0
66, 0, 0, 0
67, 0, 0, 0
68, 0, 0, 0
69, 0, 0, 0
70, 0, 0, 0
71, 0, 0, 0
72, 0, 0, 0
73, 0, 0, 0
74, 0, 0, 0
75, 0, 0, 0
76, 0, 0, 0
77, 0, 0, 0
78, 0, 0, 0
79, 0, 0, 0
80, 0, 0, 0
81, 0, 0, 0
82, 0, 0, 0
83, 0, 0, 0
84, 0, 0, 0
85, 0, 0, 0
86, 0, 0, 0
87, 0, 0, 3.623905658721924
88, 0, 0, 46.75540924072266
89, 0, 0, 125.1067581176758
90, 0, 0, 274.9185791015625
91, 0, 0, 431.5140686035156
92, 0, 0, 471.3126831054688
93, 0, 0, 412.6731872558594
94, 0, 0, 353.2574462890625
95, 0, 0, 315.1125793457031
96, 0, 0, 284.1611938476562
97, 0, 0, 256.7688293457031
98, 0, 0, 240.8961944580078
99, 0, 0, 226.3887634277344
100, 0, 0, 212.8461151123047
101, 0, 0, 205.2085876464844
102, 0, 0, 194.8291778564453
103, 0, 0, 187.5181121826172
104, 0, 0, 182.6948089599609
105, 0, 0, 174.7424774169922
106, 0, 0, 170.4358978271484
107, 0, 0, 165.2037048339844
108, 0, 0, 161.5546722412109
109, 0, 0, 156.9126892089844
110, 0, 0, 154.4061126708984
111, 0, 0, 151.2222137451172
112, 0, 0, 149.4773101806641
113, 0, 0, 144.9732055664062
114, 0, 0, 141.9713745117188
115, 0, 0, 140.1254272460938
116, 0, 0, 137.9028778076172
117, 0, 0, 135.4715881347656
118, 0, 0, 132.7992553710938
119, 0, 0, 130.613525390625
120, 0, 0, 128.7261962890625
121, 0, 0, 126.3356552124023
122, 0, 0, 125.3951644897461
123, 0, 0, 121.8707427978516
124, 0, 0, 119.0904235839844
125, 0, 0, 119.3964538574219
126, 0, 0, 117.3027801513672
127, 0, 0, 117.8653106689453
128, 0, 0, 115.9074020385742
129, 0, 0, 115.0414352416992
130, 0, 0, 112.4144287109375
131, 0, 0, 113.3672485351562
132, 0, 0, 110.2772903442383
133, 0, 0, 108.1433258056641
134, 0, 0, 108.1889038085938
135, 0, 0, 107.4666900634766
136, 0, 0, 107.4934616088867
137, 0, 0, 106.2450332641602
138, 0, 0, 103.6855697631836
139, 0, 0, 103.7464447021484
140, 0, 0, 101.7124404907227
141, 0, 0, 101.6762161254883
142, 0, 0, 102.7468490600586
143, 0, 0, 98.16587829589844
144, 0, 0, 98.83448028564453
145, 0, 0, 97.79188537597656
146, 0, 0, 99.65998077392578
147, 0, 0, 98.34569549560547
148, 0, 0, 96.19387054443359
149, 0, 0, 97.11045074462891
150, 0, 0, 93.06380462646484
151, 0, 0, 97.90298461914062
152, 0, 0, 94.91400146484375
153, 0, 0, 90.98096466064453
154, 0, 0, 92.69118499755859
155, 0, 0, 93.94542694091797
156, 0, 0, 90.89110565185547
157, 0, 0, 89.92068481445312
158, 0, 0, 88.50778198242188
159, 0, 0, 89.95079040527344
160, 0, 0, 89.80462646484375
161, 0, 0, 87.85159301757812
162, 0, 0, 87.68784332275391
163, 0, 0, 88.88269805908203
164, 0, 0, 87.87545776367188
165, 0, 0, 84.87925720214844
166, 0, 0, 87.46650695800781
167, 0, 0, 88.01064300537109
168, 0, 0, 84.00106048583984
169, 0, 0, 85.02223205566406
170, 0, 0, 86.28647613525391
171, 0, 0, 82.49777221679688
172, 0, 0, 83.92304992675781
173, 0, 0, 84.33103942871094
174, 0, 0, 82.87929534912109
175, 0, 0, 81.31158447265625
176, 0, 0, 82.88504028320312
177, 0, 0, 82.35276031494141
178, 0, 0, 81.12610626220703
179, 0, 0, 80.50762939453125
