# TOPAS Version: 3.3.p1
# Parameter File: Test.txt
# Results for scorer MLIC_Scorer
# Scored in component: MLIC
# X in 180 bins of 0.183333 cm
# Y in 1 bin  of 10 cm
# Z in 1 bin  of 10 cm
# EnergyDeposit ( MeV ) : Sum   
0, 0, 0, 0
1, 0, 0, 0
2, 0, 0, 0
3, 0, 0, 0
4, 0, 0, 0
5, 0, 0, 0
6, 0, 0, 0
7, 0, 0, 0
8, 0, 0, 0
9, 0, 0, 0
10, 0, 0, 0
11, 0, 0, 0
12, 0, 0, 0
13, 0, 0, 0
14, 0, 0, 0
15, 0, 0, 0
16, 0, 0, 0
17, 0, 0, 0
18, 0, 0, 0
19, 0, 0, 0
20, 0, 0, 0
21, 0, 0, 0
22, 0, 0, 0
23, 0, 0, 0
24, 0, 0, 0
25, 0, 0, 0
26, 0, 0, 0
27, 0, 0, 0
28, 0, 0, 0
29, 0, 0, 0
30, 0, 0, 0
31, 0, 0, 0
32, 0, 0, 0
33, 0, 0, 0
34, 0, 0, 0
35, 0, 0, 0
36, 0, 0, 0
37, 0, 0, 0
38, 0, 0, 0
39, 0, 0, 0
40, 0, 0, 0
41, 0, 0, 0
42, 0, 0, 0
43, 0, 0, 0
44, 0, 0, 0
45, 0, 0, 0
46, 0, 0, 0
47, 0, 0, 0
48, 0, 0, 0
49, 0, 0, 0
50, 0, 0, 0
51, 0, 0, 0
52, 0, 0, 0
53, 0, 0, 0
54, 0, 0, 0
55, 0, 0, 0
56, 0, 0, 0
57, 0, 0, 0
58, 0, 0, 0
59, 0, 0, 0
60, 0, 0, 0
61, 0, 0, 0
62, 0, 0, 0
63, 0, 0, 0
64, 0, 0, 0.02493108995258808
65, 0, 0, 0
66, 0, 0, 0
67, 0, 0, 0.001290258369408548
68, 0, 0, 0
69, 0, 0, 0
70, 0, 0, 0
71, 0, 0, 0.001073158346116543
72, 0, 0, 0
73, 0, 0, 8.337272644042969
74, 0, 0, 7.67333459854126
75, 0, 0, 5.03134822845459
76, 0, 0, 59.14097213745117
77, 0, 0, 174.1467437744141
78, 0, 0, 685.2993774414062
79, 0, 0, 1775.80029296875
80, 0, 0, 3222.703857421875
81, 0, 0, 4550.16455078125
82, 0, 0, 5031.1484375
83, 0, 0, 5017.5810546875
84, 0, 0, 4541.54638671875
85, 0, 0, 3987.539306640625
86, 0, 0, 3481.75634765625
87, 0, 0, 3168.2197265625
88, 0, 0, 2932.364501953125
89, 0, 0, 2746.032958984375
90, 0, 0, 2602.716064453125
91, 0, 0, 2481.396240234375
92, 0, 0, 2375.998779296875
93, 0, 0, 2284.5810546875
94, 0, 0, 2197.521240234375
95, 0, 0, 2132.279541015625
96, 0, 0, 2073.486328125
97, 0, 0, 2015.7265625
98, 0, 0, 1962.311157226562
99, 0, 0, 1912.509155273438
100, 0, 0, 1874.65869140625
101, 0, 0, 1833.480712890625
102, 0, 0, 1785.195190429688
103, 0, 0, 1752.501342773438
104, 0, 0, 1727.064697265625
105, 0, 0, 1696.592041015625
106, 0, 0, 1660.937866210938
107, 0, 0, 1626.314208984375
108, 0, 0, 1604.533813476562
109, 0, 0, 1584.604736328125
110, 0, 0, 1553.97998046875
111, 0, 0, 1538.654907226562
112, 0, 0, 1509.9296875
113, 0, 0, 1491.967895507812
114, 0, 0, 1475.237670898438
115, 0, 0, 1456.636840820312
116, 0, 0, 1435.879760742188
117, 0, 0, 1415.486328125
118, 0, 0, 1418.572143554688
119, 0, 0, 1396.507690429688
120, 0, 0, 1378.74560546875
121, 0, 0, 1352.396728515625
122, 0, 0, 1341.886108398438
123, 0, 0, 1335.610961914062
124, 0, 0, 1318.517211914062
125, 0, 0, 1311.636962890625
126, 0, 0, 1294.069580078125
127, 0, 0, 1283.061279296875
128, 0, 0, 1270.891235351562
129, 0, 0, 1263.399658203125
130, 0, 0, 1248.92578125
131, 0, 0, 1227.741088867188
132, 0, 0, 1229.52587890625
133, 0, 0, 1215.085571289062
134, 0, 0, 1204.45556640625
135, 0, 0, 1195.837280273438
136, 0, 0, 1183.89111328125
137, 0, 0, 1186.012084960938
138, 0, 0, 1162.209350585938
139, 0, 0, 1161.16943359375
140, 0, 0, 1158.707275390625
141, 0, 0, 1153.868530273438
142, 0, 0, 1135.054077148438
143, 0, 0, 1133.965454101562
144, 0, 0, 1135.41845703125
145, 0, 0, 1123.089721679688
146, 0, 0, 1111.03271484375
147, 0, 0, 1109.844116210938
148, 0, 0, 1100.460327148438
149, 0, 0, 1095.564453125
150, 0, 0, 1088.371215820312
151, 0, 0, 1077.6259765625
152, 0, 0, 1072.827270507812
153, 0, 0, 1057.319458007812
154, 0, 0, 1054.549438476562
155, 0, 0, 1057.987182617188
156, 0, 0, 1053.653198242188
157, 0, 0, 1049.83740234375
158, 0, 0, 1040.1806640625
159, 0, 0, 1029.475219726562
160, 0, 0, 1026.020751953125
161, 0, 0, 1024.093017578125
162, 0, 0, 1016.274291992188
163, 0, 0, 1017.094360351562
164, 0, 0, 1010.136657714844
165, 0, 0, 999.6847534179688
166, 0, 0, 998.3963012695312
167, 0, 0, 994.0211791992188
168, 0, 0, 988.1107788085938
169, 0, 0, 988.1249389648438
170, 0, 0, 971.7592163085938
171, 0, 0, 983.3507690429688
172, 0, 0, 973.8258056640625
173, 0, 0, 972.46337890625
174, 0, 0, 954.0204467773438
175, 0, 0, 968.3342895507812
176, 0, 0, 945.2147216796875
177, 0, 0, 953.7608642578125
178, 0, 0, 946.1378173828125
179, 0, 0, 937.0084228515625
