# TOPAS Version: 3.3.p1
# Parameter File: Test.txt
# Results for scorer MLIC_Scorer
# Scored in component: MLIC
# X in 165 bins of 0.2 cm
# Y in 1 bin  of 10 cm
# Z in 1 bin  of 10 cm
# EnergyDeposit ( MeV ) : Sum   
0, 0, 0, 0
1, 0, 0, 0
2, 0, 0, 0
3, 0, 0, 0
4, 0, 0, 0
5, 0, 0, 0
6, 0, 0, 0
7, 0, 0, 0
8, 0, 0, 0
9, 0, 0, 0
10, 0, 0, 0
11, 0, 0, 0
12, 0, 0, 0
13, 0, 0, 0
14, 0, 0, 0
15, 0, 0, 0
16, 0, 0, 0
17, 0, 0, 0
18, 0, 0, 0
19, 0, 0, 0
20, 0, 0, 0
21, 0, 0, 0
22, 0, 0, 0
23, 0, 0, 0
24, 0, 0, 0
25, 0, 0, 0
26, 0, 0, 0
27, 0, 0, 0
28, 0, 0, 0
29, 0, 0, 0
30, 0, 0, 0
31, 0, 0, 0
32, 0, 0, 0
33, 0, 0, 0
34, 0, 0, 0
35, 0, 0, 0
36, 0, 0, 0
37, 0, 0, 0
38, 0, 0, 0
39, 0, 0, 0
40, 0, 0, 0
41, 0, 0, 0
42, 0, 0, 0
43, 0, 0, 0
44, 0, 0, 0
45, 0, 0, 0
46, 0, 0, 0
47, 0, 0, 0
48, 0, 0, 0
49, 0, 0, 0
50, 0, 0, 0
51, 0, 0, 0
52, 0, 0, 0
53, 0, 0, 0
54, 0, 0, 0
55, 0, 0, 0
56, 0, 0, 0
57, 0, 0, 0
58, 0, 0, 0
59, 0, 0, 0
60, 0, 0, 0
61, 0, 0, 0
62, 0, 0, 0
63, 0, 0, 0
64, 0, 0, 0
65, 0, 0, 0
66, 0, 0, 0
67, 0, 0, 0.03179923072457314
68, 0, 0, 26.78075790405273
69, 0, 0, 144.2882232666016
70, 0, 0, 557.607177734375
71, 0, 0, 1302.820556640625
72, 0, 0, 2859.93896484375
73, 0, 0, 4315.3447265625
74, 0, 0, 5339.34130859375
75, 0, 0, 5488.51171875
76, 0, 0, 4937.54052734375
77, 0, 0, 4306.13232421875
78, 0, 0, 3787.7861328125
79, 0, 0, 3419.6123046875
80, 0, 0, 3145.35791015625
81, 0, 0, 2951.12548828125
82, 0, 0, 2779.656494140625
83, 0, 0, 2643.34375
84, 0, 0, 2528.668701171875
85, 0, 0, 2436.93310546875
86, 0, 0, 2342.41845703125
87, 0, 0, 2264.239501953125
88, 0, 0, 2195.214111328125
89, 0, 0, 2132.915283203125
90, 0, 0, 2068.434814453125
91, 0, 0, 2029.883544921875
92, 0, 0, 1975.213134765625
93, 0, 0, 1929.89111328125
94, 0, 0, 1893.491943359375
95, 0, 0, 1855.648681640625
96, 0, 0, 1812.809692382812
97, 0, 0, 1792.177124023438
98, 0, 0, 1748.459106445312
99, 0, 0, 1727.641357421875
100, 0, 0, 1691.0703125
101, 0, 0, 1672.570922851562
102, 0, 0, 1646.805297851562
103, 0, 0, 1616.486938476562
104, 0, 0, 1600.352416992188
105, 0, 0, 1570.83740234375
106, 0, 0, 1561.060302734375
107, 0, 0, 1537.677490234375
108, 0, 0, 1517.1796875
109, 0, 0, 1492.866821289062
110, 0, 0, 1473.722045898438
111, 0, 0, 1462.751342773438
112, 0, 0, 1445.359619140625
113, 0, 0, 1427.40673828125
114, 0, 0, 1413.290161132812
115, 0, 0, 1406.521484375
116, 0, 0, 1391.475708007812
117, 0, 0, 1384.461547851562
118, 0, 0, 1363.18701171875
119, 0, 0, 1348.864868164062
120, 0, 0, 1342.686401367188
121, 0, 0, 1330.39208984375
122, 0, 0, 1321.225341796875
123, 0, 0, 1300.711547851562
124, 0, 0, 1293.049682617188
125, 0, 0, 1291.782958984375
126, 0, 0, 1276.340942382812
127, 0, 0, 1258.832275390625
128, 0, 0, 1254.440673828125
129, 0, 0, 1243.13134765625
130, 0, 0, 1239.140869140625
131, 0, 0, 1236.484375
132, 0, 0, 1219.876831054688
133, 0, 0, 1213.735229492188
134, 0, 0, 1202.099731445312
135, 0, 0, 1197.6923828125
136, 0, 0, 1188.667602539062
137, 0, 0, 1178.121459960938
138, 0, 0, 1176.606689453125
139, 0, 0, 1168.910278320312
140, 0, 0, 1154.17919921875
141, 0, 0, 1145.438232421875
142, 0, 0, 1141.277221679688
143, 0, 0, 1137.95849609375
144, 0, 0, 1136.22509765625
145, 0, 0, 1119.952514648438
146, 0, 0, 1118.24658203125
147, 0, 0, 1116.316528320312
148, 0, 0, 1117.637084960938
149, 0, 0, 1100.244262695312
150, 0, 0, 1086.86328125
151, 0, 0, 1101.596435546875
152, 0, 0, 1092.385375976562
153, 0, 0, 1075.352905273438
154, 0, 0, 1072.119995117188
155, 0, 0, 1067.352783203125
156, 0, 0, 1063.798217773438
157, 0, 0, 1060.6826171875
158, 0, 0, 1049.26416015625
159, 0, 0, 1051.699829101562
160, 0, 0, 1040.7919921875
161, 0, 0, 1041.576904296875
162, 0, 0, 1042.096801757812
163, 0, 0, 1031.799926757812
164, 0, 0, 1025.683715820312
