# TOPAS Version: 3.3.p1
# Parameter File: Test.txt
# Results for scorer MLIC_Scorer
# Scored in component: MLIC
# X in 180 bins of 0.183333 cm
# Y in 1 bin  of 10 cm
# Z in 1 bin  of 10 cm
# EnergyDeposit ( MeV ) : Sum   
0, 0, 0, 0
1, 0, 0, 0
2, 0, 0, 0
3, 0, 0, 0
4, 0, 0, 0
5, 0, 0, 0
6, 0, 0, 0
7, 0, 0, 0
8, 0, 0, 0.04335647076368332
9, 0, 0, 0
10, 0, 0, 0
11, 0, 0, 0
12, 0, 0, 0
13, 0, 0, 11.83637523651123
14, 0, 0, 25.09310531616211
15, 0, 0, 192.0883483886719
16, 0, 0, 747.008544921875
17, 0, 0, 1708.887329101562
18, 0, 0, 3149.9140625
19, 0, 0, 4837.49169921875
20, 0, 0, 5256.14306640625
21, 0, 0, 5044.57568359375
22, 0, 0, 4505.97802734375
23, 0, 0, 3871.8466796875
24, 0, 0, 3463.866455078125
25, 0, 0, 3139.629638671875
26, 0, 0, 2910.5986328125
27, 0, 0, 2737.6787109375
28, 0, 0, 2594.969482421875
29, 0, 0, 2476.955078125
30, 0, 0, 2374.508544921875
31, 0, 0, 2281.357177734375
32, 0, 0, 2201.25732421875
33, 0, 0, 2129.732421875
34, 0, 0, 2066.70068359375
35, 0, 0, 2011.619873046875
36, 0, 0, 1960.977905273438
37, 0, 0, 1908.570556640625
38, 0, 0, 1870.382202148438
39, 0, 0, 1829.029907226562
40, 0, 0, 1786.843872070312
41, 0, 0, 1750.02197265625
42, 0, 0, 1720.237670898438
43, 0, 0, 1690.661254882812
44, 0, 0, 1661.102661132812
45, 0, 0, 1624.483520507812
46, 0, 0, 1604.595581054688
47, 0, 0, 1573.75390625
48, 0, 0, 1553.916137695312
49, 0, 0, 1537.121337890625
50, 0, 0, 1514.563598632812
51, 0, 0, 1491.790771484375
52, 0, 0, 1466.145629882812
53, 0, 0, 1451.896728515625
54, 0, 0, 1439.2216796875
55, 0, 0, 1428.313720703125
56, 0, 0, 1403.199096679688
57, 0, 0, 1386.41845703125
58, 0, 0, 1366.169555664062
59, 0, 0, 1353.417724609375
60, 0, 0, 1342.286987304688
61, 0, 0, 1333.510498046875
62, 0, 0, 1316.008544921875
63, 0, 0, 1307.080078125
64, 0, 0, 1289.080688476562
65, 0, 0, 1280.856811523438
66, 0, 0, 1267.189086914062
67, 0, 0, 1259.648681640625
68, 0, 0, 1250.337036132812
69, 0, 0, 1234.781005859375
70, 0, 0, 1226.952758789062
71, 0, 0, 1215.80810546875
72, 0, 0, 1205.046875
73, 0, 0, 1187.404296875
74, 0, 0, 1179.040893554688
75, 0, 0, 1174.580078125
76, 0, 0, 1173.318359375
77, 0, 0, 1147.255004882812
78, 0, 0, 1150.964477539062
79, 0, 0, 1142.4775390625
80, 0, 0, 1146.506713867188
81, 0, 0, 1130.222412109375
82, 0, 0, 1127.029296875
83, 0, 0, 1120.754150390625
84, 0, 0, 1117.39697265625
85, 0, 0, 1104.050415039062
86, 0, 0, 1094.874755859375
87, 0, 0, 1096.476806640625
88, 0, 0, 1090.0693359375
89, 0, 0, 1085.499145507812
90, 0, 0, 1071.689331054688
91, 0, 0, 1061.414306640625
92, 0, 0, 1061.826538085938
93, 0, 0, 1054.98095703125
94, 0, 0, 1052.326416015625
95, 0, 0, 1045.466796875
96, 0, 0, 1038.576416015625
97, 0, 0, 1040.354614257812
98, 0, 0, 1027.316528320312
99, 0, 0, 1025.941284179688
100, 0, 0, 1013.754821777344
101, 0, 0, 1019.566101074219
102, 0, 0, 1011.032409667969
103, 0, 0, 1000.686950683594
104, 0, 0, 1005.407775878906
105, 0, 0, 984.0570068359375
106, 0, 0, 989.3359985351562
107, 0, 0, 977.492919921875
108, 0, 0, 988.8527221679688
109, 0, 0, 976.5769653320312
110, 0, 0, 965.9581298828125
111, 0, 0, 966.30615234375
112, 0, 0, 965.1915893554688
113, 0, 0, 966.0615234375
114, 0, 0, 950.8294677734375
115, 0, 0, 944.9605102539062
116, 0, 0, 944.0625610351562
117, 0, 0, 946.8131713867188
118, 0, 0, 940.7745971679688
119, 0, 0, 942.4739379882812
120, 0, 0, 934.8900146484375
121, 0, 0, 934.7366943359375
122, 0, 0, 923.650390625
123, 0, 0, 931.0753784179688
124, 0, 0, 916.8300170898438
125, 0, 0, 913.2896728515625
126, 0, 0, 914.4408569335938
127, 0, 0, 900.927978515625
128, 0, 0, 905.2520141601562
129, 0, 0, 901.1810913085938
130, 0, 0, 903.9472045898438
131, 0, 0, 891.3916015625
132, 0, 0, 896.8360595703125
133, 0, 0, 893.02783203125
134, 0, 0, 886.9440307617188
135, 0, 0, 887.6528930664062
136, 0, 0, 877.4456176757812
137, 0, 0, 871.0377807617188
138, 0, 0, 877.6377563476562
139, 0, 0, 873.9219970703125
140, 0, 0, 877.6761474609375
141, 0, 0, 862.9618530273438
142, 0, 0, 865.7259521484375
143, 0, 0, 865.8807373046875
144, 0, 0, 859.18701171875
145, 0, 0, 854.0640258789062
146, 0, 0, 845.0950927734375
147, 0, 0, 856.348388671875
148, 0, 0, 850.5155029296875
149, 0, 0, 846.3170776367188
150, 0, 0, 854.6834716796875
151, 0, 0, 846.5172729492188
152, 0, 0, 841.7708129882812
153, 0, 0, 843.5313110351562
154, 0, 0, 839.7721557617188
155, 0, 0, 832.1551513671875
156, 0, 0, 829.6046752929688
157, 0, 0, 830.39306640625
158, 0, 0, 820.5989990234375
159, 0, 0, 826.4651489257812
160, 0, 0, 820.9912719726562
161, 0, 0, 815.8204345703125
162, 0, 0, 814.4410400390625
163, 0, 0, 818.6556396484375
164, 0, 0, 809.9368286132812
165, 0, 0, 823.0083618164062
166, 0, 0, 811.4736938476562
167, 0, 0, 805.26318359375
168, 0, 0, 794.7902221679688
169, 0, 0, 805.5595092773438
170, 0, 0, 795.876220703125
171, 0, 0, 801.3655395507812
172, 0, 0, 793.6525268554688
173, 0, 0, 797.3661499023438
174, 0, 0, 792.4388427734375
175, 0, 0, 795.7217407226562
176, 0, 0, 792.5540771484375
177, 0, 0, 795.9664306640625
178, 0, 0, 785.3380126953125
179, 0, 0, 781.3031616210938
