# TOPAS Version: 3.3.p1
# Parameter File: Test.txt
# Results for scorer MLIC_Scorer
# Scored in component: MLIC
# X in 165 bins of 0.2 cm
# Y in 1 bin  of 10 cm
# Z in 1 bin  of 10 cm
# EnergyDeposit ( MeV ) : Sum   
0, 0, 0, 0
1, 0, 0, 0
2, 0, 0, 0
3, 0, 0, 0
4, 0, 0, 0
5, 0, 0, 0
6, 0, 0, 0
7, 0, 0, 0
8, 0, 0, 0
9, 0, 0, 0
10, 0, 0, 0
11, 0, 0, 0
12, 0, 0, 0
13, 0, 0, 0
14, 0, 0, 0
15, 0, 0, 0
16, 0, 0, 0
17, 0, 0, 0
18, 0, 0, 0
19, 0, 0, 0
20, 0, 0, 0
21, 0, 0, 0
22, 0, 0, 0
23, 0, 0, 0
24, 0, 0, 0
25, 0, 0, 0
26, 0, 0, 0
27, 0, 0, 0
28, 0, 0, 0
29, 0, 0, 0
30, 0, 0, 0
31, 0, 0, 0
32, 0, 0, 0
33, 0, 0, 0
34, 0, 0, 0
35, 0, 0, 0
36, 0, 0, 0
37, 0, 0, 0
38, 0, 0, 0
39, 0, 0, 0
40, 0, 0, 0
41, 0, 0, 0
42, 0, 0, 0
43, 0, 0, 0
44, 0, 0, 0
45, 0, 0, 0
46, 0, 0, 0
47, 0, 0, 0
48, 0, 0, 0
49, 0, 0, 0
50, 0, 0, 0
51, 0, 0, 0
52, 0, 0, 0
53, 0, 0, 0
54, 0, 0, 0
55, 0, 0, 0
56, 0, 0, 0
57, 0, 0, 0
58, 0, 0, 0
59, 0, 0, 0
60, 0, 0, 0
61, 0, 0, 0
62, 0, 0, 0
63, 0, 0, 0
64, 0, 0, 0
65, 0, 0, 0
66, 0, 0, 0
67, 0, 0, 0
68, 0, 0, 0
69, 0, 0, 0
70, 0, 0, 0.01482992991805077
71, 0, 0, 0.05898517370223999
72, 0, 0, 0
73, 0, 0, 0
74, 0, 0, 0
75, 0, 0, 0
76, 0, 0, 0
77, 0, 0, 0
78, 0, 0, 0
79, 0, 0, 0
80, 0, 0, 0
81, 0, 0, 0
82, 0, 0, 0
83, 0, 0, 0
84, 0, 0, 0.03030693344771862
85, 0, 0, 0.0040512983687222
86, 0, 0, 0.001594006433151662
87, 0, 0, 0
88, 0, 0, 0
89, 0, 0, 0
90, 0, 0, 0
91, 0, 0, 0
92, 0, 0, 0
93, 0, 0, 2.580906867980957
94, 0, 0, 115.9840316772461
95, 0, 0, 485.0845947265625
96, 0, 0, 1320.058837890625
97, 0, 0, 2904.65478515625
98, 0, 0, 4602.92578125
99, 0, 0, 5334.48095703125
100, 0, 0, 5355.0810546875
101, 0, 0, 4845.7197265625
102, 0, 0, 4299.79052734375
103, 0, 0, 3818.499267578125
104, 0, 0, 3410.002197265625
105, 0, 0, 3147.440673828125
106, 0, 0, 2937.63623046875
107, 0, 0, 2783.349609375
108, 0, 0, 2631.829833984375
109, 0, 0, 2529.460205078125
110, 0, 0, 2423.50634765625
111, 0, 0, 2335.05224609375
112, 0, 0, 2262.46533203125
113, 0, 0, 2192.64306640625
114, 0, 0, 2139.188232421875
115, 0, 0, 2082.06494140625
116, 0, 0, 2018.373901367188
117, 0, 0, 1974.939208984375
118, 0, 0, 1923.572143554688
119, 0, 0, 1884.998168945312
120, 0, 0, 1847.771850585938
121, 0, 0, 1811.514282226562
122, 0, 0, 1782.4541015625
123, 0, 0, 1745.185424804688
124, 0, 0, 1727.714965820312
125, 0, 0, 1695.470092773438
126, 0, 0, 1657.705200195312
127, 0, 0, 1648.244262695312
128, 0, 0, 1612.428833007812
129, 0, 0, 1591.85791015625
130, 0, 0, 1576.271728515625
131, 0, 0, 1553.756591796875
132, 0, 0, 1537.284912109375
133, 0, 0, 1509.231811523438
134, 0, 0, 1501.91064453125
135, 0, 0, 1481.374145507812
136, 0, 0, 1465.660766601562
137, 0, 0, 1443.182250976562
138, 0, 0, 1427.331298828125
139, 0, 0, 1415.353393554688
140, 0, 0, 1399.433959960938
141, 0, 0, 1393.10986328125
142, 0, 0, 1372.56982421875
143, 0, 0, 1367.774658203125
144, 0, 0, 1357.193115234375
145, 0, 0, 1347.7197265625
146, 0, 0, 1332.1015625
147, 0, 0, 1317.594360351562
148, 0, 0, 1305.6220703125
149, 0, 0, 1289.10791015625
150, 0, 0, 1282.003295898438
151, 0, 0, 1274.157348632812
152, 0, 0, 1260.946411132812
153, 0, 0, 1255.537719726562
154, 0, 0, 1247.652954101562
155, 0, 0, 1233.419921875
156, 0, 0, 1228.978393554688
157, 0, 0, 1217.312622070312
158, 0, 0, 1213.138916015625
159, 0, 0, 1195.667358398438
160, 0, 0, 1188.056396484375
161, 0, 0, 1185.181762695312
162, 0, 0, 1180.987915039062
163, 0, 0, 1173.77197265625
164, 0, 0, 1165.513061523438
