# TOPAS Version: 3.3.p1
# Parameter File: Test.txt
# Results for scorer MLIC_Scorer
# Scored in component: MLIC
# X in 180 bins of 0.222222 cm
# Y in 1 bin  of 10 cm
# Z in 1 bin  of 10 cm
# EnergyDeposit ( MeV ) : Sum   
0, 0, 0, 0
1, 0, 0, 0
2, 0, 0, 0
3, 0, 0, 0
4, 0, 0, 0
5, 0, 0, 0
6, 0, 0, 0
7, 0, 0, 0
8, 0, 0, 0
9, 0, 0, 0
10, 0, 0, 0
11, 0, 0, 0
12, 0, 0, 0
13, 0, 0, 0
14, 0, 0, 0
15, 0, 0, 0
16, 0, 0, 0
17, 0, 0, 0
18, 0, 0, 0
19, 0, 0, 0
20, 0, 0, 0
21, 0, 0, 0
22, 0, 0, 0
23, 0, 0, 0
24, 0, 0, 0
25, 0, 0, 0
26, 0, 0, 0
27, 0, 0, 0
28, 0, 0, 0
29, 0, 0, 0
30, 0, 0, 0
31, 0, 0, 0
32, 0, 0, 0
33, 0, 0, 0
34, 0, 0, 0
35, 0, 0, 0
36, 0, 0, 0
37, 0, 0, 0
38, 0, 0, 0
39, 0, 0, 0
40, 0, 0, 0
41, 0, 0, 0
42, 0, 0, 0
43, 0, 0, 0
44, 0, 0, 0
45, 0, 0, 0
46, 0, 0, 0
47, 0, 0, 0
48, 0, 0, 0
49, 0, 0, 0
50, 0, 0, 0.05389502644538879
51, 0, 0, 0
52, 0, 0, 0
53, 0, 0, 0
54, 0, 0, 0
55, 0, 0, 0
56, 0, 0, 0
57, 0, 0, 0
58, 0, 0, 0
59, 0, 0, 0
60, 0, 0, 0
61, 0, 0, 14.37046527862549
62, 0, 0, 171.0083312988281
63, 0, 0, 776.0112915039062
64, 0, 0, 2256.19970703125
65, 0, 0, 4275.35693359375
66, 0, 0, 5918.0693359375
67, 0, 0, 6283.58935546875
68, 0, 0, 5532.99560546875
69, 0, 0, 4687.0224609375
70, 0, 0, 4099.91650390625
71, 0, 0, 3670.929931640625
72, 0, 0, 3387.118896484375
73, 0, 0, 3159.290283203125
74, 0, 0, 2994.3935546875
75, 0, 0, 2839.699951171875
76, 0, 0, 2707.99951171875
77, 0, 0, 2607.511962890625
78, 0, 0, 2505.089111328125
79, 0, 0, 2421.511962890625
80, 0, 0, 2345.674560546875
81, 0, 0, 2284.630859375
82, 0, 0, 2209.099609375
83, 0, 0, 2161.643798828125
84, 0, 0, 2108.372314453125
85, 0, 0, 2059.849365234375
86, 0, 0, 2029.200561523438
87, 0, 0, 1987.934692382812
88, 0, 0, 1948.483276367188
89, 0, 0, 1906.873779296875
90, 0, 0, 1872.939086914062
91, 0, 0, 1843.61962890625
92, 0, 0, 1807.548461914062
93, 0, 0, 1785.22509765625
94, 0, 0, 1758.631713867188
95, 0, 0, 1725.2353515625
96, 0, 0, 1701.17919921875
97, 0, 0, 1674.015747070312
98, 0, 0, 1648.793212890625
99, 0, 0, 1640.265991210938
100, 0, 0, 1617.642700195312
101, 0, 0, 1603.180786132812
102, 0, 0, 1575.140869140625
103, 0, 0, 1578.08203125
104, 0, 0, 1547.226684570312
105, 0, 0, 1533.662475585938
106, 0, 0, 1515.506958007812
107, 0, 0, 1497.072387695312
108, 0, 0, 1481.5810546875
109, 0, 0, 1472.22314453125
110, 0, 0, 1455.709228515625
111, 0, 0, 1441.278686523438
112, 0, 0, 1434.177490234375
113, 0, 0, 1416.070556640625
114, 0, 0, 1401.2646484375
115, 0, 0, 1386.982421875
116, 0, 0, 1376.956787109375
117, 0, 0, 1369.502197265625
118, 0, 0, 1367.3125
119, 0, 0, 1348.941772460938
120, 0, 0, 1339.561889648438
121, 0, 0, 1328.594360351562
122, 0, 0, 1320.483764648438
123, 0, 0, 1311.276611328125
124, 0, 0, 1304.28857421875
125, 0, 0, 1288.176513671875
126, 0, 0, 1286.000244140625
127, 0, 0, 1273.625
128, 0, 0, 1269.073852539062
129, 0, 0, 1251.464721679688
130, 0, 0, 1257.997314453125
131, 0, 0, 1246.001220703125
132, 0, 0, 1233.364135742188
133, 0, 0, 1225.177124023438
134, 0, 0, 1218.650024414062
135, 0, 0, 1215.835083007812
136, 0, 0, 1207.628051757812
137, 0, 0, 1214.339965820312
138, 0, 0, 1190.927124023438
139, 0, 0, 1176.573852539062
140, 0, 0, 1179.064086914062
141, 0, 0, 1173.485961914062
142, 0, 0, 1165.285888671875
143, 0, 0, 1162.18896484375
144, 0, 0, 1161.560913085938
145, 0, 0, 1154.32080078125
146, 0, 0, 1148.620239257812
147, 0, 0, 1132.9931640625
148, 0, 0, 1141.0380859375
149, 0, 0, 1135.444580078125
150, 0, 0, 1121.518432617188
151, 0, 0, 1122.999877929688
152, 0, 0, 1111.549072265625
153, 0, 0, 1113.747314453125
154, 0, 0, 1105.09423828125
155, 0, 0, 1103.203247070312
156, 0, 0, 1102.651245117188
157, 0, 0, 1089.314208984375
158, 0, 0, 1087.0654296875
159, 0, 0, 1085.904541015625
160, 0, 0, 1076.830688476562
161, 0, 0, 1080.416870117188
162, 0, 0, 1064.600463867188
163, 0, 0, 1064.497924804688
164, 0, 0, 1061.173706054688
165, 0, 0, 1051.361572265625
166, 0, 0, 1051.964965820312
167, 0, 0, 1049.435180664062
168, 0, 0, 1042.4326171875
169, 0, 0, 1037.07763671875
170, 0, 0, 1043.51318359375
171, 0, 0, 1027.939697265625
172, 0, 0, 1036.167236328125
173, 0, 0, 1030.460083007812
174, 0, 0, 1013.701965332031
175, 0, 0, 1016.537658691406
176, 0, 0, 1012.294616699219
177, 0, 0, 1006.294128417969
178, 0, 0, 1017.022033691406
179, 0, 0, 1013.971801757812
