# TOPAS Version: 3.3.p1
# Parameter File: Test.txt
# Results for scorer MLIC_Scorer
# Scored in component: MLIC
# X in 165 bins of 0.2 cm
# Y in 1 bin  of 10 cm
# Z in 1 bin  of 10 cm
# EnergyDeposit ( MeV ) : Sum   
0, 0, 0, 0
1, 0, 0, 0
2, 0, 0, 0
3, 0, 0, 0
4, 0, 0, 0
5, 0, 0, 0
6, 0, 0, 0
7, 0, 0, 0
8, 0, 0, 0
9, 0, 0, 0
10, 0, 0, 0
11, 0, 0, 0
12, 0, 0, 0
13, 0, 0, 0
14, 0, 0, 0
15, 0, 0, 0
16, 0, 0, 0
17, 0, 0, 0
18, 0, 0, 0
19, 0, 0, 0
20, 0, 0, 0
21, 0, 0, 0
22, 0, 0, 0
23, 0, 0, 0
24, 0, 0, 0
25, 0, 0, 0
26, 0, 0, 0
27, 0, 0, 0
28, 0, 0, 0
29, 0, 0, 12.85415363311768
30, 0, 0, 22.1428108215332
31, 0, 0, 166.4772033691406
32, 0, 0, 554.4688720703125
33, 0, 0, 1493.433837890625
34, 0, 0, 3201.912109375
35, 0, 0, 4566.130859375
36, 0, 0, 5383.37255859375
37, 0, 0, 5242.03564453125
38, 0, 0, 4865.466796875
39, 0, 0, 4249.41748046875
40, 0, 0, 3746.6962890625
41, 0, 0, 3380.497802734375
42, 0, 0, 3113.19921875
43, 0, 0, 2929.0791015625
44, 0, 0, 2758.449951171875
45, 0, 0, 2622.20458984375
46, 0, 0, 2521.621337890625
47, 0, 0, 2417.9677734375
48, 0, 0, 2329.5791015625
49, 0, 0, 2258.577392578125
50, 0, 0, 2192.7802734375
51, 0, 0, 2121.971923828125
52, 0, 0, 2072.720947265625
53, 0, 0, 2014.21923828125
54, 0, 0, 1970.391235351562
55, 0, 0, 1925.969116210938
56, 0, 0, 1889.922973632812
57, 0, 0, 1848.9794921875
58, 0, 0, 1810.721435546875
59, 0, 0, 1779.620849609375
60, 0, 0, 1751.341186523438
61, 0, 0, 1720.449829101562
62, 0, 0, 1695.027954101562
63, 0, 0, 1664.750610351562
64, 0, 0, 1642.039916992188
65, 0, 0, 1622.080932617188
66, 0, 0, 1602.197265625
67, 0, 0, 1574.472290039062
68, 0, 0, 1553.948974609375
69, 0, 0, 1535.14453125
70, 0, 0, 1519.173217773438
71, 0, 0, 1490.703247070312
72, 0, 0, 1476.774780273438
73, 0, 0, 1457.205200195312
74, 0, 0, 1445.005493164062
75, 0, 0, 1424.26806640625
76, 0, 0, 1412.756591796875
77, 0, 0, 1407.234741210938
78, 0, 0, 1390.951049804688
79, 0, 0, 1367.218383789062
80, 0, 0, 1361.376831054688
81, 0, 0, 1356.67822265625
82, 0, 0, 1344.536010742188
83, 0, 0, 1333.820068359375
84, 0, 0, 1312.769653320312
85, 0, 0, 1311.857177734375
86, 0, 0, 1300.427734375
87, 0, 0, 1281.754272460938
88, 0, 0, 1274.530029296875
89, 0, 0, 1266.276611328125
90, 0, 0, 1245.992431640625
91, 0, 0, 1246.61083984375
92, 0, 0, 1235.236938476562
93, 0, 0, 1220.765991210938
94, 0, 0, 1214.823120117188
95, 0, 0, 1214.035888671875
96, 0, 0, 1200.016845703125
97, 0, 0, 1198.857788085938
98, 0, 0, 1189.290771484375
99, 0, 0, 1174.386840820312
100, 0, 0, 1172.939208984375
101, 0, 0, 1162.341674804688
102, 0, 0, 1163.597900390625
103, 0, 0, 1149.198608398438
104, 0, 0, 1145.9951171875
105, 0, 0, 1139.834350585938
106, 0, 0, 1126.96484375
107, 0, 0, 1127.049926757812
108, 0, 0, 1123.235107421875
109, 0, 0, 1112.549072265625
110, 0, 0, 1095.200439453125
111, 0, 0, 1103.41015625
112, 0, 0, 1094.860595703125
113, 0, 0, 1092.215576171875
114, 0, 0, 1089.076904296875
115, 0, 0, 1081.943481445312
116, 0, 0, 1075.014038085938
117, 0, 0, 1075.143676757812
118, 0, 0, 1063.069946289062
119, 0, 0, 1052.794067382812
120, 0, 0, 1059.192504882812
121, 0, 0, 1046.347778320312
122, 0, 0, 1043.212158203125
123, 0, 0, 1039.138427734375
124, 0, 0, 1034.161743164062
125, 0, 0, 1028.653442382812
126, 0, 0, 1021.123718261719
127, 0, 0, 1023.603149414062
128, 0, 0, 1009.1943359375
129, 0, 0, 1010.262817382812
130, 0, 0, 1003.169738769531
131, 0, 0, 1012.521911621094
132, 0, 0, 999.1590576171875
133, 0, 0, 997.60791015625
134, 0, 0, 993.1539916992188
135, 0, 0, 986.20166015625
136, 0, 0, 979.6096801757812
137, 0, 0, 981.1342163085938
138, 0, 0, 976.8351440429688
139, 0, 0, 970.2393798828125
140, 0, 0, 970.6708374023438
141, 0, 0, 957.2147216796875
142, 0, 0, 953.7666015625
143, 0, 0, 958.8507690429688
144, 0, 0, 962.8827514648438
145, 0, 0, 957.8216552734375
146, 0, 0, 955.7991333007812
147, 0, 0, 946.9622192382812
148, 0, 0, 940.7644653320312
149, 0, 0, 936.8128051757812
150, 0, 0, 937.277587890625
151, 0, 0, 932.41162109375
152, 0, 0, 931.7327270507812
153, 0, 0, 920.0875854492188
154, 0, 0, 927.8262329101562
155, 0, 0, 922.6957397460938
156, 0, 0, 917.28857421875
157, 0, 0, 914.3672485351562
158, 0, 0, 912.0017700195312
159, 0, 0, 917.7688598632812
160, 0, 0, 915.3175659179688
161, 0, 0, 902.4664306640625
162, 0, 0, 894.2439575195312
163, 0, 0, 906.9690551757812
164, 0, 0, 891.1096801757812
