# TOPAS Version: 3.3.p1
# Parameter File: Test.txt
# Results for scorer MLIC_Scorer
# Scored in component: MLIC
# X in 165 bins of 0.2 cm
# Y in 1 bin  of 10 cm
# Z in 1 bin  of 10 cm
# EnergyDeposit ( MeV ) : Sum   
0, 0, 0, 0
1, 0, 0, 0
2, 0, 0, 0
3, 0, 0, 0
4, 0, 0, 0
5, 0, 0, 0
6, 0, 0, 0
7, 0, 0, 0.04570010304450989
8, 0, 0, 0
9, 0, 0, 0
10, 0, 0, 0
11, 0, 0, 0.007075531408190727
12, 0, 0, 0
13, 0, 0, 0.002302754437550902
14, 0, 0, 0
15, 0, 0, 0
16, 0, 0, 0
17, 0, 0, 0
18, 0, 0, 0
19, 0, 0, 0
20, 0, 0, 0
21, 0, 0, 0.008958956226706505
22, 0, 0, 0
23, 0, 0, 0
24, 0, 0, 0
25, 0, 0, 0
26, 0, 0, 0
27, 0, 0, 0
28, 0, 0, 0
29, 0, 0, 0
30, 0, 0, 0
31, 0, 0, 0
32, 0, 0, 0
33, 0, 0, 0
34, 0, 0, 0
35, 0, 0, 0
36, 0, 0, 0
37, 0, 0, 0
38, 0, 0, 0
39, 0, 0, 0
40, 0, 0, 0
41, 0, 0, 0
42, 0, 0, 0
43, 0, 0, 0
44, 0, 0, 0
45, 0, 0, 0
46, 0, 0, 0
47, 0, 0, 0
48, 0, 0, 0
49, 0, 0, 0
50, 0, 0, 0
51, 0, 0, 0
52, 0, 0, 0
53, 0, 0, 0
54, 0, 0, 0
55, 0, 0, 0
56, 0, 0, 0
57, 0, 0, 0
58, 0, 0, 0
59, 0, 0, 0
60, 0, 0, 0
61, 0, 0, 0
62, 0, 0, 0
63, 0, 0, 0.03070199303328991
64, 0, 0, 0
65, 0, 0, 0
66, 0, 0, 0
67, 0, 0, 0
68, 0, 0, 0
69, 0, 0, 0
70, 0, 0, 0
71, 0, 0, 0
72, 0, 0, 0.00619343901053071
73, 0, 0, 0
74, 0, 0, 0
75, 0, 0, 0
76, 0, 0, 0
77, 0, 0, 0
78, 0, 0, 0
79, 0, 0, 9.886143684387207
80, 0, 0, 86.74771881103516
81, 0, 0, 538.5054931640625
82, 0, 0, 1494.3330078125
83, 0, 0, 3046.366455078125
84, 0, 0, 4638.75537109375
85, 0, 0, 5526.9482421875
86, 0, 0, 5333.5048828125
87, 0, 0, 4755.49462890625
88, 0, 0, 4206.62353515625
89, 0, 0, 3747.576904296875
90, 0, 0, 3387.20751953125
91, 0, 0, 3121.38134765625
92, 0, 0, 2927.2236328125
93, 0, 0, 2759.724365234375
94, 0, 0, 2628.2958984375
95, 0, 0, 2513.283447265625
96, 0, 0, 2418.197998046875
97, 0, 0, 2332.261962890625
98, 0, 0, 2255.488525390625
99, 0, 0, 2187.020263671875
100, 0, 0, 2125.495361328125
101, 0, 0, 2067.647705078125
102, 0, 0, 2009.0234375
103, 0, 0, 1966.236572265625
104, 0, 0, 1921.40380859375
105, 0, 0, 1882.431396484375
106, 0, 0, 1848.141357421875
107, 0, 0, 1811.707397460938
108, 0, 0, 1778.828125
109, 0, 0, 1742.837158203125
110, 0, 0, 1715.747314453125
111, 0, 0, 1692.78857421875
112, 0, 0, 1670.641967773438
113, 0, 0, 1643.742553710938
114, 0, 0, 1623.125
115, 0, 0, 1592.509643554688
116, 0, 0, 1570.046020507812
117, 0, 0, 1557.407348632812
118, 0, 0, 1536.835205078125
119, 0, 0, 1507.769897460938
120, 0, 0, 1490.19189453125
121, 0, 0, 1483.077392578125
122, 0, 0, 1472.022705078125
123, 0, 0, 1445.187622070312
124, 0, 0, 1442.4736328125
125, 0, 0, 1418.01416015625
126, 0, 0, 1397.7509765625
127, 0, 0, 1382.821044921875
128, 0, 0, 1385.256469726562
129, 0, 0, 1362.731811523438
130, 0, 0, 1347.630737304688
131, 0, 0, 1337.230224609375
132, 0, 0, 1333.282836914062
133, 0, 0, 1313.907592773438
134, 0, 0, 1296.16943359375
135, 0, 0, 1298.727294921875
136, 0, 0, 1282.12060546875
137, 0, 0, 1272.531982421875
138, 0, 0, 1255.192749023438
139, 0, 0, 1250.010131835938
140, 0, 0, 1246.763305664062
141, 0, 0, 1240.196899414062
142, 0, 0, 1230.87451171875
143, 0, 0, 1229.7978515625
144, 0, 0, 1216.840942382812
145, 0, 0, 1206.421508789062
146, 0, 0, 1195.94482421875
147, 0, 0, 1181.435302734375
148, 0, 0, 1176.963989257812
149, 0, 0, 1174.778198242188
150, 0, 0, 1159.896606445312
151, 0, 0, 1156.340209960938
152, 0, 0, 1154.642456054688
153, 0, 0, 1143.552124023438
154, 0, 0, 1135.960815429688
155, 0, 0, 1130.081298828125
156, 0, 0, 1116.7265625
157, 0, 0, 1128.666137695312
158, 0, 0, 1109.481323242188
159, 0, 0, 1114.699340820312
160, 0, 0, 1094.743041992188
161, 0, 0, 1100.395385742188
162, 0, 0, 1091.444946289062
163, 0, 0, 1084.297729492188
164, 0, 0, 1082.609985351562
