# TOPAS Version: 3.3.p1
# Parameter File: Test.txt
# Results for scorer MLIC_Scorer
# Scored in component: MLIC
# X in 180 bins of 0.177778 cm
# Y in 1 bin  of 10 cm
# Z in 1 bin  of 10 cm
# EnergyDeposit ( MeV ) : Sum   
0, 0, 0, 0
1, 0, 0, 0
2, 0, 0, 0
3, 0, 0, 0
4, 0, 0, 0
5, 0, 0, 0
6, 0, 0, 0.005589277017861605
7, 0, 0, 0
8, 0, 0, 0
9, 0, 0, 0
10, 0, 0, 0
11, 0, 0, 0
12, 0, 0, 0
13, 0, 0, 0
14, 0, 0, 0
15, 0, 0, 0
16, 0, 0, 0.003685042727738619
17, 0, 0, 0
18, 0, 0, 0
19, 0, 0, 18.00008964538574
20, 0, 0, 97.05881500244141
21, 0, 0, 337.3847961425781
22, 0, 0, 1129.833251953125
23, 0, 0, 2390.200439453125
24, 0, 0, 3729.369873046875
25, 0, 0, 4671.4453125
26, 0, 0, 5050.240234375
27, 0, 0, 4710.14501953125
28, 0, 0, 4215.55908203125
29, 0, 0, 3684.498046875
30, 0, 0, 3300.19970703125
31, 0, 0, 3014.82373046875
32, 0, 0, 2809.942626953125
33, 0, 0, 2643.62109375
34, 0, 0, 2505.728515625
35, 0, 0, 2391.319091796875
36, 0, 0, 2300.317138671875
37, 0, 0, 2211.86279296875
38, 0, 0, 2142.197265625
39, 0, 0, 2071.6689453125
40, 0, 0, 2014.872314453125
41, 0, 0, 1959.82470703125
42, 0, 0, 1908.276245117188
43, 0, 0, 1861.726684570312
44, 0, 0, 1818.213500976562
45, 0, 0, 1782.990600585938
46, 0, 0, 1744.117797851562
47, 0, 0, 1709.664794921875
48, 0, 0, 1673.421020507812
49, 0, 0, 1649.856079101562
50, 0, 0, 1615.024536132812
51, 0, 0, 1593.567504882812
52, 0, 0, 1568.213134765625
53, 0, 0, 1544.686279296875
54, 0, 0, 1520.0595703125
55, 0, 0, 1503.3701171875
56, 0, 0, 1478.794555664062
57, 0, 0, 1462.787109375
58, 0, 0, 1440.572021484375
59, 0, 0, 1424.566772460938
60, 0, 0, 1397.994506835938
61, 0, 0, 1387.69384765625
62, 0, 0, 1373.7724609375
63, 0, 0, 1356.262817382812
64, 0, 0, 1344.5361328125
65, 0, 0, 1330.639282226562
66, 0, 0, 1319.957763671875
67, 0, 0, 1300.6044921875
68, 0, 0, 1286.291381835938
69, 0, 0, 1277.983276367188
70, 0, 0, 1265.939086914062
71, 0, 0, 1261.313232421875
72, 0, 0, 1239.790283203125
73, 0, 0, 1226.781005859375
74, 0, 0, 1229.929077148438
75, 0, 0, 1213.99365234375
76, 0, 0, 1199.324951171875
77, 0, 0, 1192.962158203125
78, 0, 0, 1174.447631835938
79, 0, 0, 1178.588500976562
80, 0, 0, 1169.607788085938
81, 0, 0, 1156.2880859375
82, 0, 0, 1147.381713867188
83, 0, 0, 1136.839965820312
84, 0, 0, 1133.939453125
85, 0, 0, 1119.529174804688
86, 0, 0, 1122.590087890625
87, 0, 0, 1111.308227539062
88, 0, 0, 1100.966796875
89, 0, 0, 1101.735717773438
90, 0, 0, 1084.156372070312
91, 0, 0, 1081.640258789062
92, 0, 0, 1077.541015625
93, 0, 0, 1066.616577148438
94, 0, 0, 1059.159912109375
95, 0, 0, 1059.757446289062
96, 0, 0, 1054.551391601562
97, 0, 0, 1042.294067382812
98, 0, 0, 1043.355712890625
99, 0, 0, 1034.791259765625
100, 0, 0, 1027.487915039062
101, 0, 0, 1022.625244140625
102, 0, 0, 1024.538452148438
103, 0, 0, 1012.344299316406
104, 0, 0, 1008.671142578125
105, 0, 0, 996.2493896484375
106, 0, 0, 997.1814575195312
107, 0, 0, 981.93701171875
108, 0, 0, 991.37255859375
109, 0, 0, 985.7095947265625
110, 0, 0, 971.4075317382812
111, 0, 0, 970.1546020507812
112, 0, 0, 967.505126953125
113, 0, 0, 964.1826782226562
114, 0, 0, 963.8473510742188
115, 0, 0, 954.328369140625
116, 0, 0, 955.3348388671875
117, 0, 0, 948.45361328125
118, 0, 0, 934.4791259765625
119, 0, 0, 935.4970092773438
120, 0, 0, 941.2554321289062
121, 0, 0, 930.771240234375
122, 0, 0, 927.2560424804688
123, 0, 0, 927.7775268554688
124, 0, 0, 922.1004638671875
125, 0, 0, 919.1553955078125
126, 0, 0, 913.1497802734375
127, 0, 0, 915.1057739257812
128, 0, 0, 911.5691528320312
129, 0, 0, 896.6755981445312
130, 0, 0, 904.7676391601562
131, 0, 0, 896.4007568359375
132, 0, 0, 898.4819946289062
133, 0, 0, 893.4313354492188
134, 0, 0, 882.9412841796875
135, 0, 0, 884.0623779296875
136, 0, 0, 888.4036865234375
137, 0, 0, 876.560302734375
138, 0, 0, 880.4926147460938
139, 0, 0, 869.1093139648438
140, 0, 0, 868.55029296875
141, 0, 0, 864.0092163085938
142, 0, 0, 860.6233520507812
143, 0, 0, 857.3078002929688
144, 0, 0, 856.7633056640625
145, 0, 0, 854.039794921875
146, 0, 0, 855.7765502929688
147, 0, 0, 846.4039306640625
148, 0, 0, 840.204345703125
149, 0, 0, 848.6959838867188
150, 0, 0, 840.137451171875
151, 0, 0, 834.0283813476562
152, 0, 0, 826.447265625
153, 0, 0, 833.7606201171875
154, 0, 0, 827.97265625
155, 0, 0, 831.0158081054688
156, 0, 0, 832.2561645507812
157, 0, 0, 823.3477172851562
158, 0, 0, 820.5694580078125
159, 0, 0, 820.087890625
160, 0, 0, 819.79150390625
161, 0, 0, 818.895263671875
162, 0, 0, 819.3443603515625
163, 0, 0, 813.59326171875
164, 0, 0, 810.2434692382812
165, 0, 0, 810.1082763671875
166, 0, 0, 810.2196655273438
167, 0, 0, 793.4820556640625
168, 0, 0, 797.6054077148438
169, 0, 0, 798.5693359375
170, 0, 0, 803.9705200195312
171, 0, 0, 791.6672973632812
172, 0, 0, 795.6248168945312
173, 0, 0, 790.0867919921875
174, 0, 0, 791.0557250976562
175, 0, 0, 782.6152954101562
176, 0, 0, 781.6787109375
177, 0, 0, 784.8276977539062
178, 0, 0, 776.135498046875
179, 0, 0, 779.6506958007812
