# TOPAS Version: 3.3.p1
# Parameter File: Test.txt
# Results for scorer MLIC_Scorer
# Scored in component: MLIC
# X in 180 bins of 0.177778 cm
# Y in 1 bin  of 10 cm
# Z in 1 bin  of 10 cm
# EnergyDeposit ( MeV ) : Sum   
0, 0, 0, 0
1, 0, 0, 0
2, 0, 0, 0
3, 0, 0, 0
4, 0, 0, 0
5, 0, 0, 0
6, 0, 0, 0
7, 0, 0, 0
8, 0, 0, 0
9, 0, 0, 0
10, 0, 0, 0
11, 0, 0, 0
12, 0, 0, 0
13, 0, 0, 0
14, 0, 0, 0
15, 0, 0, 0
16, 0, 0, 0
17, 0, 0, 0
18, 0, 0, 0
19, 0, 0, 0
20, 0, 0, 0
21, 0, 0, 0
22, 0, 0, 0
23, 0, 0, 0
24, 0, 0, 0
25, 0, 0, 0
26, 0, 0, 0
27, 0, 0, 0
28, 0, 0, 0
29, 0, 0, 0
30, 0, 0, 0
31, 0, 0, 0
32, 0, 0, 0
33, 0, 0, 0
34, 0, 0, 0
35, 0, 0, 0
36, 0, 0, 0
37, 0, 0, 0
38, 0, 0, 0
39, 0, 0, 0
40, 0, 0, 0
41, 0, 0, 0
42, 0, 0, 0
43, 0, 0, 0
44, 0, 0, 0
45, 0, 0, 0
46, 0, 0, 0
47, 0, 0, 0
48, 0, 0, 0
49, 0, 0, 0
50, 0, 0, 0
51, 0, 0, 0
52, 0, 0, 0
53, 0, 0, 0
54, 0, 0, 0
55, 0, 0, 0
56, 0, 0, 0
57, 0, 0, 0
58, 0, 0, 0
59, 0, 0, 0
60, 0, 0, 44.55991363525391
61, 0, 0, 111.1204299926758
62, 0, 0, 231.1715087890625
63, 0, 0, 292.6369018554688
64, 0, 0, 416.8873596191406
65, 0, 0, 430.3854370117188
66, 0, 0, 398.0409545898438
67, 0, 0, 338.5964965820312
68, 0, 0, 313.2328186035156
69, 0, 0, 281.5347595214844
70, 0, 0, 253.891357421875
71, 0, 0, 239.4828338623047
72, 0, 0, 223.7055511474609
73, 0, 0, 212.15673828125
74, 0, 0, 202.1588897705078
75, 0, 0, 193.3112335205078
76, 0, 0, 186.9039154052734
77, 0, 0, 182.4309387207031
78, 0, 0, 176.1912078857422
79, 0, 0, 172.5153198242188
80, 0, 0, 165.935302734375
81, 0, 0, 162.6636657714844
82, 0, 0, 157.9244689941406
83, 0, 0, 154.9879760742188
84, 0, 0, 150.5735321044922
85, 0, 0, 148.5634460449219
86, 0, 0, 144.3976593017578
87, 0, 0, 144.0328826904297
88, 0, 0, 139.3640747070312
89, 0, 0, 136.2350158691406
90, 0, 0, 133.4168090820312
91, 0, 0, 131.8303375244141
92, 0, 0, 132.2349548339844
93, 0, 0, 129.5436859130859
94, 0, 0, 127.9194107055664
95, 0, 0, 126.4662322998047
96, 0, 0, 125.5657730102539
97, 0, 0, 122.7874908447266
98, 0, 0, 120.8442993164062
99, 0, 0, 119.5633087158203
100, 0, 0, 115.8864669799805
101, 0, 0, 116.5245666503906
102, 0, 0, 115.5421600341797
103, 0, 0, 113.6223449707031
104, 0, 0, 113.7426452636719
105, 0, 0, 110.4772796630859
106, 0, 0, 110.0652389526367
107, 0, 0, 110.8418884277344
108, 0, 0, 106.9514312744141
109, 0, 0, 106.8433227539062
110, 0, 0, 104.506217956543
111, 0, 0, 104.0434494018555
112, 0, 0, 106.6778411865234
113, 0, 0, 103.9253692626953
114, 0, 0, 102.4967422485352
115, 0, 0, 102.0744247436523
116, 0, 0, 100.7456207275391
117, 0, 0, 101.5314025878906
118, 0, 0, 97.83661651611328
119, 0, 0, 98.76225280761719
120, 0, 0, 99.09440612792969
121, 0, 0, 99.30399322509766
122, 0, 0, 96.21202850341797
123, 0, 0, 96.10980224609375
124, 0, 0, 94.41941833496094
125, 0, 0, 93.59909820556641
126, 0, 0, 95.97122192382812
127, 0, 0, 91.2801513671875
128, 0, 0, 94.51044464111328
129, 0, 0, 91.87550354003906
130, 0, 0, 91.29338073730469
131, 0, 0, 92.03165435791016
132, 0, 0, 91.99951934814453
133, 0, 0, 89.50191497802734
134, 0, 0, 89.94341278076172
135, 0, 0, 88.93950653076172
136, 0, 0, 90.95408630371094
137, 0, 0, 86.71867370605469
138, 0, 0, 86.93601989746094
139, 0, 0, 88.75778198242188
140, 0, 0, 87.74769592285156
141, 0, 0, 83.63999176025391
142, 0, 0, 86.43754577636719
143, 0, 0, 86.91323089599609
144, 0, 0, 85.57045745849609
145, 0, 0, 81.08412170410156
146, 0, 0, 83.54047393798828
147, 0, 0, 86.72665405273438
148, 0, 0, 84.95338439941406
149, 0, 0, 83.25727844238281
150, 0, 0, 81.40114593505859
151, 0, 0, 83.28876495361328
152, 0, 0, 80.49539947509766
153, 0, 0, 80.75724792480469
154, 0, 0, 82.39212036132812
155, 0, 0, 81.46314239501953
156, 0, 0, 77.94960021972656
157, 0, 0, 79.93900299072266
158, 0, 0, 79.85311126708984
159, 0, 0, 79.8555908203125
160, 0, 0, 80.44545745849609
161, 0, 0, 78.05129241943359
162, 0, 0, 78.77069854736328
163, 0, 0, 79.21849822998047
164, 0, 0, 78.10683441162109
165, 0, 0, 76.90088653564453
166, 0, 0, 77.97193908691406
167, 0, 0, 76.5135498046875
168, 0, 0, 78.11261749267578
169, 0, 0, 76.25673675537109
170, 0, 0, 75.79689025878906
171, 0, 0, 77.03543853759766
172, 0, 0, 73.77921295166016
173, 0, 0, 74.77791595458984
174, 0, 0, 77.4140625
175, 0, 0, 73.82202911376953
176, 0, 0, 72.97075653076172
177, 0, 0, 76.49979400634766
178, 0, 0, 73.35428619384766
179, 0, 0, 74.73909759521484
