# TOPAS Version: 3.3.p1
# Parameter File: Test.txt
# Results for scorer MLIC_Scorer
# Scored in component: MLIC
# X in 180 bins of 0.222222 cm
# Y in 1 bin  of 10 cm
# Z in 1 bin  of 10 cm
# EnergyDeposit ( MeV ) : Sum   
0, 0, 0, 0
1, 0, 0, 0
2, 0, 0, 0
3, 0, 0, 0
4, 0, 0, 0
5, 0, 0, 0
6, 0, 0, 0
7, 0, 0, 0
8, 0, 0, 0
9, 0, 0, 0
10, 0, 0, 0
11, 0, 0, 0
12, 0, 0, 0
13, 0, 0, 0
14, 0, 0, 0
15, 0, 0, 0
16, 0, 0, 0
17, 0, 0, 0
18, 0, 0, 0
19, 0, 0, 0
20, 0, 0, 0
21, 0, 0, 0
22, 0, 0, 0
23, 0, 0, 0
24, 0, 0, 0
25, 0, 0, 0
26, 0, 0, 0
27, 0, 0, 0
28, 0, 0, 0
29, 0, 0, 0
30, 0, 0, 0
31, 0, 0, 0
32, 0, 0, 0
33, 0, 0, 0
34, 0, 0, 0
35, 0, 0, 0
36, 0, 0, 0
37, 0, 0, 0
38, 0, 0, 0
39, 0, 0, 0
40, 0, 0, 0
41, 0, 0, 0
42, 0, 0, 0
43, 0, 0, 0
44, 0, 0, 0
45, 0, 0, 0
46, 0, 0, 0
47, 0, 0, 0.0002060221886495128
48, 0, 0, 0.001196210272610188
49, 0, 0, 0
50, 0, 0, 0
51, 0, 0, 0
52, 0, 0, 0
53, 0, 0, 0
54, 0, 0, 0
55, 0, 0, 0
56, 0, 0, 0
57, 0, 0, 0
58, 0, 0, 0
59, 0, 0, 0
60, 0, 0, 0
61, 0, 0, 0
62, 0, 0, 0
63, 0, 0, 0
64, 0, 0, 0
65, 0, 0, 0
66, 0, 0, 0
67, 0, 0, 0
68, 0, 0, 0
69, 0, 0, 0
70, 0, 0, 0.03500319644808769
71, 0, 0, 0
72, 0, 0, 0
73, 0, 0, 0
74, 0, 0, 0
75, 0, 0, 0
76, 0, 0, 0
77, 0, 0, 0
78, 0, 0, 0
79, 0, 0, 0
80, 0, 0, 12.09154224395752
81, 0, 0, 19.31941604614258
82, 0, 0, 132.3553771972656
83, 0, 0, 673.9741821289062
84, 0, 0, 2067.544921875
85, 0, 0, 4321.14404296875
86, 0, 0, 6153.31103515625
87, 0, 0, 6324.5166015625
88, 0, 0, 5544.17578125
89, 0, 0, 4695.3837890625
90, 0, 0, 4073.173095703125
91, 0, 0, 3667.96142578125
92, 0, 0, 3378.7470703125
93, 0, 0, 3160.43310546875
94, 0, 0, 2986.687744140625
95, 0, 0, 2837.31201171875
96, 0, 0, 2710.486328125
97, 0, 0, 2613.780517578125
98, 0, 0, 2514.695068359375
99, 0, 0, 2420.914794921875
100, 0, 0, 2351.597900390625
101, 0, 0, 2277.8125
102, 0, 0, 2209.089599609375
103, 0, 0, 2166.35302734375
104, 0, 0, 2116.20654296875
105, 0, 0, 2065.84619140625
106, 0, 0, 2018.976684570312
107, 0, 0, 1973.710815429688
108, 0, 0, 1940.647705078125
109, 0, 0, 1912.819213867188
110, 0, 0, 1874.073974609375
111, 0, 0, 1841.315185546875
112, 0, 0, 1811.644287109375
113, 0, 0, 1784.316040039062
114, 0, 0, 1752.788330078125
115, 0, 0, 1726.75390625
116, 0, 0, 1705.7314453125
117, 0, 0, 1676.985107421875
118, 0, 0, 1656.598266601562
119, 0, 0, 1642.053588867188
120, 0, 0, 1618.822875976562
121, 0, 0, 1593.48095703125
122, 0, 0, 1581.278198242188
123, 0, 0, 1561.351806640625
124, 0, 0, 1549.949829101562
125, 0, 0, 1530.078857421875
126, 0, 0, 1512.080200195312
127, 0, 0, 1499.223022460938
128, 0, 0, 1478.076293945312
129, 0, 0, 1464.89111328125
130, 0, 0, 1454.817749023438
131, 0, 0, 1448.426147460938
132, 0, 0, 1426.721801757812
133, 0, 0, 1418.795288085938
134, 0, 0, 1409.493408203125
135, 0, 0, 1388.686645507812
136, 0, 0, 1375.41015625
137, 0, 0, 1388.619018554688
138, 0, 0, 1360.2138671875
139, 0, 0, 1350.177978515625
140, 0, 0, 1328.569213867188
141, 0, 0, 1327.744140625
142, 0, 0, 1320.601928710938
143, 0, 0, 1315.2939453125
144, 0, 0, 1301.251953125
145, 0, 0, 1293.068725585938
146, 0, 0, 1282.919067382812
147, 0, 0, 1274.370483398438
148, 0, 0, 1265.31884765625
149, 0, 0, 1264.31591796875
150, 0, 0, 1243.907470703125
151, 0, 0, 1237.765747070312
152, 0, 0, 1232.496826171875
153, 0, 0, 1238.182861328125
154, 0, 0, 1216.417724609375
155, 0, 0, 1208.985107421875
156, 0, 0, 1207.692260742188
157, 0, 0, 1209.877197265625
158, 0, 0, 1195.418701171875
159, 0, 0, 1192.7392578125
160, 0, 0, 1176.174926757812
161, 0, 0, 1175.550659179688
162, 0, 0, 1172.067260742188
163, 0, 0, 1169.556762695312
164, 0, 0, 1163.905639648438
165, 0, 0, 1148.87744140625
166, 0, 0, 1146.505004882812
167, 0, 0, 1134.209716796875
168, 0, 0, 1141.976928710938
169, 0, 0, 1133.511962890625
170, 0, 0, 1129.882934570312
171, 0, 0, 1121.123413085938
172, 0, 0, 1111.1513671875
173, 0, 0, 1112.37841796875
174, 0, 0, 1110.56689453125
175, 0, 0, 1096.673828125
176, 0, 0, 1099.125610351562
177, 0, 0, 1092.83056640625
178, 0, 0, 1088.772827148438
179, 0, 0, 1093.29248046875
