# TOPAS Version: 3.3.p1
# Parameter File: Test.txt
# Results for scorer MLIC_Scorer
# Scored in component: MLIC
# X in 180 bins of 0.177778 cm
# Y in 1 bin  of 10 cm
# Z in 1 bin  of 10 cm
# EnergyDeposit ( MeV ) : Sum   
0, 0, 0, 0
1, 0, 0, 0
2, 0, 0, 0
3, 0, 0, 0
4, 0, 0, 0
5, 0, 0, 0
6, 0, 0, 0
7, 0, 0, 0
8, 0, 0, 0
9, 0, 0, 0
10, 0, 0, 0
11, 0, 0, 0
12, 0, 0, 0
13, 0, 0, 0
14, 0, 0, 0
15, 0, 0, 0
16, 0, 0, 0
17, 0, 0, 0
18, 0, 0, 0
19, 0, 0, 0
20, 0, 0, 0
21, 0, 0, 0
22, 0, 0, 0
23, 0, 0, 0
24, 0, 0, 0
25, 0, 0, 0
26, 0, 0, 0.007096573244780302
27, 0, 0, 0.001478874357417226
28, 0, 0, 0
29, 0, 0, 0
30, 0, 0, 0
31, 0, 0, 0
32, 0, 0, 0
33, 0, 0, 0
34, 0, 0, 0
35, 0, 0, 0
36, 0, 0, 0
37, 0, 0, 0
38, 0, 0, 0
39, 0, 0, 0.04067730531096458
40, 0, 0, 0
41, 0, 0, 0
42, 0, 0, 0
43, 0, 0, 0
44, 0, 0, 0
45, 0, 0, 0
46, 0, 0, 0
47, 0, 0, 0
48, 0, 0, 0
49, 0, 0, 0.006433311849832535
50, 0, 0, 0.00236912164837122
51, 0, 0, 0.009000538848340511
52, 0, 0, 0
53, 0, 0, 0.002957951743155718
54, 0, 0, 0.05067702382802963
55, 0, 0, 4.817067623138428
56, 0, 0, 55.97322845458984
57, 0, 0, 255.93310546875
58, 0, 0, 812.5067138671875
59, 0, 0, 1921.601440429688
60, 0, 0, 3356.73681640625
61, 0, 0, 4547.23779296875
62, 0, 0, 5028.3837890625
63, 0, 0, 4853.52197265625
64, 0, 0, 4423.4365234375
65, 0, 0, 3806.52783203125
66, 0, 0, 3384.05078125
67, 0, 0, 3082.906982421875
68, 0, 0, 2855.552001953125
69, 0, 0, 2682.429931640625
70, 0, 0, 2541.396484375
71, 0, 0, 2422.978515625
72, 0, 0, 2320.246337890625
73, 0, 0, 2233.79248046875
74, 0, 0, 2159.467041015625
75, 0, 0, 2089.8154296875
76, 0, 0, 2026.352172851562
77, 0, 0, 1966.72216796875
78, 0, 0, 1926.182739257812
79, 0, 0, 1873.441528320312
80, 0, 0, 1830.9677734375
81, 0, 0, 1790.709106445312
82, 0, 0, 1745.876098632812
83, 0, 0, 1720.296875
84, 0, 0, 1689.158569335938
85, 0, 0, 1665.423950195312
86, 0, 0, 1620.681030273438
87, 0, 0, 1594.303833007812
88, 0, 0, 1575.124145507812
89, 0, 0, 1547.201782226562
90, 0, 0, 1528.4697265625
91, 0, 0, 1510.797607421875
92, 0, 0, 1484.5576171875
93, 0, 0, 1465.2900390625
94, 0, 0, 1441.50439453125
95, 0, 0, 1428.324096679688
96, 0, 0, 1418.922485351562
97, 0, 0, 1393.233764648438
98, 0, 0, 1381.3623046875
99, 0, 0, 1366.472290039062
100, 0, 0, 1343.430908203125
101, 0, 0, 1331.549194335938
102, 0, 0, 1323.21630859375
103, 0, 0, 1306.96630859375
104, 0, 0, 1297.542602539062
105, 0, 0, 1277.703735351562
106, 0, 0, 1272.873657226562
107, 0, 0, 1262.130004882812
108, 0, 0, 1246.206665039062
109, 0, 0, 1228.182983398438
110, 0, 0, 1230.197509765625
111, 0, 0, 1206.0478515625
112, 0, 0, 1205.353271484375
113, 0, 0, 1189.761352539062
114, 0, 0, 1186.05078125
115, 0, 0, 1181.509033203125
116, 0, 0, 1163.657592773438
117, 0, 0, 1152.292114257812
118, 0, 0, 1144.224731445312
119, 0, 0, 1148.343017578125
120, 0, 0, 1139.029541015625
121, 0, 0, 1128.14453125
122, 0, 0, 1113.761840820312
123, 0, 0, 1109.579467773438
124, 0, 0, 1099.591674804688
125, 0, 0, 1100.955932617188
126, 0, 0, 1091.508178710938
127, 0, 0, 1084.193237304688
128, 0, 0, 1076.364990234375
129, 0, 0, 1076.523315429688
130, 0, 0, 1064.361328125
131, 0, 0, 1060.198852539062
132, 0, 0, 1048.61865234375
133, 0, 0, 1048.484252929688
134, 0, 0, 1038.403564453125
135, 0, 0, 1036.255737304688
136, 0, 0, 1031.31787109375
137, 0, 0, 1024.23974609375
138, 0, 0, 1012.530456542969
139, 0, 0, 1018.889953613281
140, 0, 0, 1015.108154296875
141, 0, 0, 1005.442810058594
142, 0, 0, 1001.728393554688
143, 0, 0, 991.9464721679688
144, 0, 0, 988.8714599609375
145, 0, 0, 982.2725830078125
146, 0, 0, 972.903564453125
147, 0, 0, 968.9285888671875
148, 0, 0, 974.2615966796875
149, 0, 0, 962.5994873046875
150, 0, 0, 959.4305419921875
151, 0, 0, 954.7238159179688
152, 0, 0, 953.1741943359375
153, 0, 0, 949.8740234375
154, 0, 0, 942.0571899414062
155, 0, 0, 941.5963745117188
156, 0, 0, 942.7667236328125
157, 0, 0, 928.9537353515625
158, 0, 0, 932.2845458984375
159, 0, 0, 923.53173828125
160, 0, 0, 931.1520385742188
161, 0, 0, 920.9053955078125
162, 0, 0, 918.8042602539062
163, 0, 0, 911.56640625
164, 0, 0, 910.2750854492188
165, 0, 0, 906.7589721679688
166, 0, 0, 900.3008422851562
167, 0, 0, 898.08544921875
168, 0, 0, 899.5590209960938
169, 0, 0, 888.0364379882812
170, 0, 0, 888.6900634765625
171, 0, 0, 886.1082153320312
172, 0, 0, 884.2020263671875
173, 0, 0, 877.3607177734375
174, 0, 0, 879.5771484375
175, 0, 0, 872.5791625976562
176, 0, 0, 868.9138793945312
177, 0, 0, 867.0784912109375
178, 0, 0, 865.1430053710938
179, 0, 0, 865.802490234375
