# TOPAS Version: 3.3.p1
# Parameter File: Test.txt
# Results for scorer MLIC_Scorer
# Scored in component: MLIC
# X in 180 bins of 0.177778 cm
# Y in 1 bin  of 10 cm
# Z in 1 bin  of 10 cm
# EnergyDeposit ( MeV ) : Sum   
0, 0, 0, 0
1, 0, 0, 0
2, 0, 0, 0
3, 0, 0, 0
4, 0, 0, 0
5, 0, 0, 0
6, 0, 0, 0
7, 0, 0, 0
8, 0, 0, 0
9, 0, 0, 0
10, 0, 0, 0
11, 0, 0, 0
12, 0, 0, 0
13, 0, 0, 0
14, 0, 0, 0
15, 0, 0, 0
16, 0, 0, 0
17, 0, 0, 0
18, 0, 0, 0
19, 0, 0, 0
20, 0, 0, 0
21, 0, 0, 0
22, 0, 0, 0
23, 0, 0, 0
24, 0, 0, 0
25, 0, 0, 0
26, 0, 0, 0
27, 0, 0, 0
28, 0, 0, 0
29, 0, 0, 0
30, 0, 0, 0
31, 0, 0, 0
32, 0, 0, 0
33, 0, 0, 0
34, 0, 0, 0
35, 0, 0, 0
36, 0, 0, 0
37, 0, 0, 0
38, 0, 0, 0
39, 0, 0, 0
40, 0, 0, 0
41, 0, 0, 0
42, 0, 0, 0
43, 0, 0, 0
44, 0, 0, 0
45, 0, 0, 0
46, 0, 0, 0
47, 0, 0, 0
48, 0, 0, 0
49, 0, 0, 0
50, 0, 0, 0
51, 0, 0, 0
52, 0, 0, 0
53, 0, 0, 0
54, 0, 0, 0
55, 0, 0, 0
56, 0, 0, 0
57, 0, 0, 0
58, 0, 0, 0
59, 0, 0, 0
60, 0, 0, 0
61, 0, 0, 0
62, 0, 0, 0
63, 0, 0, 0
64, 0, 0, 0
65, 0, 0, 0
66, 0, 0, 0
67, 0, 0, 0
68, 0, 0, 0
69, 0, 0, 0
70, 0, 0, 0
71, 0, 0, 0
72, 0, 0, 0
73, 0, 0, 0
74, 0, 0, 0
75, 0, 0, 0
76, 0, 0, 0
77, 0, 0, 0
78, 0, 0, 0
79, 0, 0, 0
80, 0, 0, 0
81, 0, 0, 0
82, 0, 0, 0
83, 0, 0, 0
84, 0, 0, 0
85, 0, 0, 0
86, 0, 0, 0
87, 0, 0, 0
88, 0, 0, 0
89, 0, 0, 0
90, 0, 0, 0
91, 0, 0, 0
92, 0, 0, 0
93, 0, 0, 0.03050805255770683
94, 0, 0, 0
95, 0, 0, 0
96, 0, 0, 0
97, 0, 0, 0
98, 0, 0, 0
99, 0, 0, 0
100, 0, 0, 0
101, 0, 0, 0
102, 0, 0, 0
103, 0, 0, 0
104, 0, 0, 0
105, 0, 0, 0
106, 0, 0, 0
107, 0, 0, 0
108, 0, 0, 0
109, 0, 0, 0
110, 0, 0, 0
111, 0, 0, 0
112, 0, 0, 0
113, 0, 0, 0.001738092163577676
114, 0, 0, 67.71855163574219
115, 0, 0, 187.2845458984375
116, 0, 0, 297.5312805175781
117, 0, 0, 376.7991333007812
118, 0, 0, 436.0144348144531
119, 0, 0, 504.7889404296875
120, 0, 0, 426.9538269042969
121, 0, 0, 360.8831481933594
122, 0, 0, 315.02685546875
123, 0, 0, 286.8476257324219
124, 0, 0, 267.5657653808594
125, 0, 0, 250.3033142089844
126, 0, 0, 240.3191223144531
127, 0, 0, 227.7993927001953
128, 0, 0, 216.4201049804688
129, 0, 0, 209.1356048583984
130, 0, 0, 202.3217163085938
131, 0, 0, 194.4485626220703
132, 0, 0, 190.1148376464844
133, 0, 0, 183.9968719482422
134, 0, 0, 177.9063110351562
135, 0, 0, 175.2773590087891
136, 0, 0, 170.4198913574219
137, 0, 0, 168.3852691650391
138, 0, 0, 165.0600433349609
139, 0, 0, 163.1222381591797
140, 0, 0, 154.9104461669922
141, 0, 0, 154.4495391845703
142, 0, 0, 151.0206451416016
143, 0, 0, 149.2861328125
144, 0, 0, 146.6448822021484
145, 0, 0, 144.5618438720703
146, 0, 0, 142.8221435546875
147, 0, 0, 140.6704254150391
148, 0, 0, 138.6883087158203
149, 0, 0, 135.6898803710938
150, 0, 0, 136.7806549072266
151, 0, 0, 133.3934173583984
152, 0, 0, 129.0206298828125
153, 0, 0, 130.0044708251953
154, 0, 0, 127.4302139282227
155, 0, 0, 127.2964630126953
156, 0, 0, 124.8808670043945
157, 0, 0, 123.8581695556641
158, 0, 0, 121.9652557373047
159, 0, 0, 123.2318878173828
160, 0, 0, 119.8977432250977
161, 0, 0, 118.8639221191406
162, 0, 0, 119.9887084960938
163, 0, 0, 116.3185882568359
164, 0, 0, 115.0811767578125
165, 0, 0, 115.6310195922852
166, 0, 0, 113.2297286987305
167, 0, 0, 113.6052474975586
168, 0, 0, 112.4294204711914
169, 0, 0, 111.3676528930664
170, 0, 0, 110.5624847412109
171, 0, 0, 108.9562225341797
172, 0, 0, 107.945442199707
173, 0, 0, 107.4918823242188
174, 0, 0, 109.1869583129883
175, 0, 0, 106.303466796875
176, 0, 0, 108.3507537841797
177, 0, 0, 103.9167098999023
178, 0, 0, 105.1215591430664
179, 0, 0, 102.7405166625977
