# TOPAS Version: 3.3.p1
# Parameter File: Test.txt
# Results for scorer MLIC_Scorer
# Scored in component: MLIC
# X in 180 bins of 0.177778 cm
# Y in 1 bin  of 10 cm
# Z in 1 bin  of 10 cm
# EnergyDeposit ( MeV ) : Sum   
0, 0, 0, 0
1, 0, 0, 0
2, 0, 0, 0
3, 0, 0, 0
4, 0, 0, 0
5, 0, 0, 0
6, 0, 0, 0
7, 0, 0, 0
8, 0, 0, 0
9, 0, 0, 0
10, 0, 0, 0
11, 0, 0, 0
12, 0, 0, 0
13, 0, 0, 0
14, 0, 0, 0
15, 0, 0, 0
16, 0, 0, 0
17, 0, 0, 0
18, 0, 0, 0
19, 0, 0, 0
20, 0, 0, 0
21, 0, 0, 0
22, 0, 0, 0
23, 0, 0, 0
24, 0, 0, 0
25, 0, 0, 0
26, 0, 0, 0
27, 0, 0, 0
28, 0, 0, 0
29, 0, 0, 0
30, 0, 0, 0
31, 0, 0, 0
32, 0, 0, 0
33, 0, 0, 0
34, 0, 0, 0
35, 0, 0, 0
36, 0, 0, 0
37, 0, 0, 0
38, 0, 0, 0
39, 0, 0, 0
40, 0, 0, 0
41, 0, 0, 0
42, 0, 0, 0
43, 0, 0, 0
44, 0, 0, 0
45, 0, 0, 0
46, 0, 0, 0
47, 0, 0, 0
48, 0, 0, 0
49, 0, 0, 0
50, 0, 0, 0
51, 0, 0, 0
52, 0, 0, 0
53, 0, 0, 0
54, 0, 0, 0
55, 0, 0, 0
56, 0, 0, 0
57, 0, 0, 0
58, 0, 0, 0
59, 0, 0, 0
60, 0, 0, 0
61, 0, 0, 0
62, 0, 0, 0
63, 0, 0, 0
64, 0, 0, 0
65, 0, 0, 0
66, 0, 0, 0
67, 0, 0, 0
68, 0, 0, 0
69, 0, 0, 0
70, 0, 0, 0
71, 0, 0, 0
72, 0, 0, 0
73, 0, 0, 0
74, 0, 0, 0
75, 0, 0, 0
76, 0, 0, 0
77, 0, 0, 0
78, 0, 0, 0
79, 0, 0, 0
80, 0, 0, 0
81, 0, 0, 0
82, 0, 0, 0
83, 0, 0, 0
84, 0, 0, 0
85, 0, 0, 0
86, 0, 0, 0
87, 0, 0, 0
88, 0, 0, 0
89, 0, 0, 0
90, 0, 0, 0
91, 0, 0, 0
92, 0, 0, 0
93, 0, 0, 0
94, 0, 0, 0
95, 0, 0, 0
96, 0, 0, 0
97, 0, 0, 0
98, 0, 0, 0
99, 0, 0, 0
100, 0, 0, 0
101, 0, 0, 0
102, 0, 0, 0
103, 0, 0, 0
104, 0, 0, 0
105, 0, 0, 0
106, 0, 0, 0
107, 0, 0, 0
108, 0, 0, 0
109, 0, 0, 0
110, 0, 0, 0
111, 0, 0, 0
112, 0, 0, 0
113, 0, 0, 0
114, 0, 0, 0
115, 0, 0, 0
116, 0, 0, 0
117, 0, 0, 0
118, 0, 0, 0
119, 0, 0, 0
120, 0, 0, 0
121, 0, 0, 0
122, 0, 0, 0
123, 0, 0, 0
124, 0, 0, 0
125, 0, 0, 0
126, 0, 0, 0
127, 0, 0, 0
128, 0, 0, 0.0003740517131518573
129, 0, 0, 0
130, 0, 0, 0
131, 0, 0, 4.874274730682373
132, 0, 0, 14.7370491027832
133, 0, 0, 36.29011154174805
134, 0, 0, 142.1922607421875
135, 0, 0, 450.0921020507812
136, 0, 0, 1295.549560546875
137, 0, 0, 2665.523681640625
138, 0, 0, 3866.305419921875
139, 0, 0, 4717.40380859375
140, 0, 0, 4985.48486328125
141, 0, 0, 4739.978515625
142, 0, 0, 4110.10693359375
143, 0, 0, 3604.591552734375
144, 0, 0, 3226.80419921875
145, 0, 0, 2965.718505859375
146, 0, 0, 2777.050048828125
147, 0, 0, 2630.095703125
148, 0, 0, 2499.633056640625
149, 0, 0, 2390.266357421875
150, 0, 0, 2292.290771484375
151, 0, 0, 2204.222412109375
152, 0, 0, 2128.194580078125
153, 0, 0, 2053.087890625
154, 0, 0, 2003.31005859375
155, 0, 0, 1948.243774414062
156, 0, 0, 1898.864868164062
157, 0, 0, 1852.388427734375
158, 0, 0, 1808.662109375
159, 0, 0, 1774.067504882812
160, 0, 0, 1732.7177734375
161, 0, 0, 1705.90478515625
162, 0, 0, 1668.053955078125
163, 0, 0, 1648.968994140625
164, 0, 0, 1609.581787109375
165, 0, 0, 1587.208129882812
166, 0, 0, 1563.582763671875
167, 0, 0, 1544.332153320312
168, 0, 0, 1509.791137695312
169, 0, 0, 1495.494384765625
170, 0, 0, 1480.404541015625
171, 0, 0, 1453.299560546875
172, 0, 0, 1431.675659179688
173, 0, 0, 1425.14208984375
174, 0, 0, 1395.13916015625
175, 0, 0, 1388.758178710938
176, 0, 0, 1377.3310546875
177, 0, 0, 1357.156616210938
178, 0, 0, 1350.140380859375
179, 0, 0, 1325.555786132812
