# TOPAS Version: 3.3.p1
# Parameter File: Test.txt
# Results for scorer MLIC_Scorer
# Scored in component: MLIC
# X in 180 bins of 0.183333 cm
# Y in 1 bin  of 10 cm
# Z in 1 bin  of 10 cm
# EnergyDeposit ( MeV ) : Sum   
0, 0, 0, 0
1, 0, 0, 0
2, 0, 0, 0
3, 0, 0, 0
4, 0, 0, 0
5, 0, 0, 0
6, 0, 0, 0
7, 0, 0, 0
8, 0, 0, 0
9, 0, 0, 0
10, 0, 0, 0
11, 0, 0, 0
12, 0, 0, 0
13, 0, 0, 0
14, 0, 0, 0
15, 0, 0, 0
16, 0, 0, 0
17, 0, 0, 0
18, 0, 0, 0
19, 0, 0, 0
20, 0, 0, 0
21, 0, 0, 0
22, 0, 0, 0
23, 0, 0, 0
24, 0, 0, 0
25, 0, 0, 0
26, 0, 0, 0
27, 0, 0, 0
28, 0, 0, 0
29, 0, 0, 0
30, 0, 0, 0
31, 0, 0, 0
32, 0, 0, 0
33, 0, 0, 0.05790118873119354
34, 0, 0, 0
35, 0, 0, 0
36, 0, 0, 0
37, 0, 0, 0
38, 0, 0, 0
39, 0, 0, 0
40, 0, 0, 0
41, 0, 0, 0
42, 0, 0, 31.8131160736084
43, 0, 0, 160.6451873779297
44, 0, 0, 492.6839599609375
45, 0, 0, 1410.216186523438
46, 0, 0, 2931.711181640625
47, 0, 0, 4385.10302734375
48, 0, 0, 5283.3974609375
49, 0, 0, 5144.103515625
50, 0, 0, 4568.4404296875
51, 0, 0, 4023.1982421875
52, 0, 0, 3550.419677734375
53, 0, 0, 3199.33251953125
54, 0, 0, 2955.898193359375
55, 0, 0, 2782.911376953125
56, 0, 0, 2630.431396484375
57, 0, 0, 2498.220947265625
58, 0, 0, 2400.000732421875
59, 0, 0, 2300.77978515625
60, 0, 0, 2214.6240234375
61, 0, 0, 2144.44482421875
62, 0, 0, 2083.342529296875
63, 0, 0, 2029.076171875
64, 0, 0, 1969.692138671875
65, 0, 0, 1917.916259765625
66, 0, 0, 1881.725830078125
67, 0, 0, 1827.154052734375
68, 0, 0, 1787.79052734375
69, 0, 0, 1761.09130859375
70, 0, 0, 1727.17578125
71, 0, 0, 1698.728149414062
72, 0, 0, 1661.298950195312
73, 0, 0, 1643.477172851562
74, 0, 0, 1608.660522460938
75, 0, 0, 1590.15478515625
76, 0, 0, 1564.062622070312
77, 0, 0, 1533.163208007812
78, 0, 0, 1510.234741210938
79, 0, 0, 1498.718383789062
80, 0, 0, 1477.248657226562
81, 0, 0, 1459.641723632812
82, 0, 0, 1432.032104492188
83, 0, 0, 1415.595092773438
84, 0, 0, 1408.578002929688
85, 0, 0, 1397.666625976562
86, 0, 0, 1367.935546875
87, 0, 0, 1354.784423828125
88, 0, 0, 1345.434204101562
89, 0, 0, 1331.499267578125
90, 0, 0, 1315.351806640625
91, 0, 0, 1306.774169921875
92, 0, 0, 1297.331420898438
93, 0, 0, 1286.2529296875
94, 0, 0, 1274.20703125
95, 0, 0, 1263.555297851562
96, 0, 0, 1248.258056640625
97, 0, 0, 1237.251708984375
98, 0, 0, 1228.051025390625
99, 0, 0, 1229.397705078125
100, 0, 0, 1211.992919921875
101, 0, 0, 1199.828979492188
102, 0, 0, 1186.8408203125
103, 0, 0, 1184.592163085938
104, 0, 0, 1175.301513671875
105, 0, 0, 1165.751586914062
106, 0, 0, 1149.642333984375
107, 0, 0, 1149.192504882812
108, 0, 0, 1141.68408203125
109, 0, 0, 1137.384155273438
110, 0, 0, 1129.773315429688
111, 0, 0, 1123.164306640625
112, 0, 0, 1118.253173828125
113, 0, 0, 1107.181884765625
114, 0, 0, 1098.2265625
115, 0, 0, 1091.327270507812
116, 0, 0, 1084.919921875
117, 0, 0, 1079.59130859375
118, 0, 0, 1067.636474609375
119, 0, 0, 1065.444458007812
120, 0, 0, 1064.607055664062
121, 0, 0, 1057.843627929688
122, 0, 0, 1047.870727539062
123, 0, 0, 1045.521118164062
124, 0, 0, 1039.265502929688
125, 0, 0, 1036.369873046875
126, 0, 0, 1029.190063476562
127, 0, 0, 1026.341796875
128, 0, 0, 1019.828369140625
129, 0, 0, 1010.174743652344
130, 0, 0, 1011.072570800781
131, 0, 0, 1010.116333007812
132, 0, 0, 994.1173706054688
133, 0, 0, 988.4639892578125
134, 0, 0, 992.1796264648438
135, 0, 0, 985.1444091796875
136, 0, 0, 975.0064697265625
137, 0, 0, 974.9917602539062
138, 0, 0, 975.1300048828125
139, 0, 0, 968.8303833007812
140, 0, 0, 974.5849609375
141, 0, 0, 961.137939453125
142, 0, 0, 968.71728515625
143, 0, 0, 954.8311767578125
144, 0, 0, 953.5297241210938
145, 0, 0, 943.1410522460938
146, 0, 0, 938.4103393554688
147, 0, 0, 936.6385498046875
148, 0, 0, 930.3881225585938
149, 0, 0, 935.4884033203125
150, 0, 0, 931.029296875
151, 0, 0, 924.9671020507812
152, 0, 0, 920.8771362304688
153, 0, 0, 904.818115234375
154, 0, 0, 915.2694091796875
155, 0, 0, 900.5244140625
156, 0, 0, 905.2515258789062
157, 0, 0, 906.9305419921875
158, 0, 0, 901.126708984375
159, 0, 0, 896.4497680664062
160, 0, 0, 894.90869140625
161, 0, 0, 894.00244140625
162, 0, 0, 890.2869873046875
163, 0, 0, 885.8174438476562
164, 0, 0, 880.4920043945312
165, 0, 0, 882.1968994140625
166, 0, 0, 884.1937255859375
167, 0, 0, 869.7316284179688
168, 0, 0, 873.4035034179688
169, 0, 0, 865.642333984375
170, 0, 0, 865.8814086914062
171, 0, 0, 859.1679077148438
172, 0, 0, 851.1483154296875
173, 0, 0, 860.2017822265625
174, 0, 0, 860.4124755859375
175, 0, 0, 849.458740234375
176, 0, 0, 846.860595703125
177, 0, 0, 853.689208984375
178, 0, 0, 842.8798217773438
179, 0, 0, 839.7207641601562
