# TOPAS Version: 3.3.p1
# Parameter File: Test.txt
# Results for scorer MLIC_Scorer
# Scored in component: MLIC
# X in 180 bins of 0.183333 cm
# Y in 1 bin  of 10 cm
# Z in 1 bin  of 10 cm
# EnergyDeposit ( MeV ) : Sum   
0, 0, 0, 0
1, 0, 0, 0
2, 0, 0, 0
3, 0, 0, 0
4, 0, 0, 0
5, 0, 0, 0
6, 0, 0, 0
7, 0, 0, 0
8, 0, 0, 0
9, 0, 0, 0
10, 0, 0, 0
11, 0, 0, 0
12, 0, 0, 0
13, 0, 0, 0
14, 0, 0, 0
15, 0, 0, 0
16, 0, 0, 0
17, 0, 0, 0
18, 0, 0, 0
19, 0, 0, 0
20, 0, 0, 0
21, 0, 0, 0
22, 0, 0, 0
23, 0, 0, 0
24, 0, 0, 0
25, 0, 0, 0
26, 0, 0, 0
27, 0, 0, 0
28, 0, 0, 0
29, 0, 0, 0
30, 0, 0, 0
31, 0, 0, 0
32, 0, 0, 0
33, 0, 0, 0
34, 0, 0, 0
35, 0, 0, 0
36, 0, 0, 0
37, 0, 0, 0
38, 0, 0, 0
39, 0, 0, 0
40, 0, 0, 0
41, 0, 0, 0
42, 0, 0, 0
43, 0, 0, 0
44, 0, 0, 0
45, 0, 0, 0
46, 0, 0, 0
47, 0, 0, 0
48, 0, 0, 0
49, 0, 0, 0
50, 0, 0, 0
51, 0, 0, 0
52, 0, 0, 0
53, 0, 0, 0
54, 0, 0, 0
55, 0, 0, 0
56, 0, 0, 0
57, 0, 0, 0
58, 0, 0, 0
59, 0, 0, 0
60, 0, 0, 0
61, 0, 0, 0
62, 0, 0, 0
63, 0, 0, 0
64, 0, 0, 0
65, 0, 0, 0
66, 0, 0, 0
67, 0, 0, 0
68, 0, 0, 0
69, 0, 0, 0
70, 0, 0, 0
71, 0, 0, 0
72, 0, 0, 0.002368493238463998
73, 0, 0, 0.008275425992906094
74, 0, 0, 0
75, 0, 0, 0.008751809597015381
76, 0, 0, 0
77, 0, 0, 0
78, 0, 0, 0
79, 0, 0, 0
80, 0, 0, 0
81, 0, 0, 0
82, 0, 0, 0
83, 0, 0, 0
84, 0, 0, 0
85, 0, 0, 0
86, 0, 0, 0
87, 0, 0, 0
88, 0, 0, 66.87374114990234
89, 0, 0, 210.3509674072266
90, 0, 0, 579.6580200195312
91, 0, 0, 1528.151123046875
92, 0, 0, 3021.5859375
93, 0, 0, 4250.96240234375
94, 0, 0, 4941.314453125
95, 0, 0, 5148.34912109375
96, 0, 0, 4638.55615234375
97, 0, 0, 4045.999267578125
98, 0, 0, 3574.085693359375
99, 0, 0, 3218.511962890625
100, 0, 0, 2970.053466796875
101, 0, 0, 2781.831298828125
102, 0, 0, 2632.93505859375
103, 0, 0, 2499.0595703125
104, 0, 0, 2396.98876953125
105, 0, 0, 2299.913818359375
106, 0, 0, 2223.840576171875
107, 0, 0, 2148.82861328125
108, 0, 0, 2083.19482421875
109, 0, 0, 2017.431884765625
110, 0, 0, 1967.280883789062
111, 0, 0, 1924.819702148438
112, 0, 0, 1881.21826171875
113, 0, 0, 1831.4384765625
114, 0, 0, 1798.259521484375
115, 0, 0, 1761.51220703125
116, 0, 0, 1718.258544921875
117, 0, 0, 1696.281494140625
118, 0, 0, 1665.02783203125
119, 0, 0, 1636.149658203125
120, 0, 0, 1613.874877929688
121, 0, 0, 1582.75537109375
122, 0, 0, 1562.72265625
123, 0, 0, 1534.843994140625
124, 0, 0, 1513.3994140625
125, 0, 0, 1499.705810546875
126, 0, 0, 1476.571533203125
127, 0, 0, 1450.763916015625
128, 0, 0, 1440.532470703125
129, 0, 0, 1424.240844726562
130, 0, 0, 1410.720825195312
131, 0, 0, 1386.410766601562
132, 0, 0, 1374.583862304688
133, 0, 0, 1366.189208984375
134, 0, 0, 1346.417724609375
135, 0, 0, 1329.560668945312
136, 0, 0, 1325.897094726562
137, 0, 0, 1303.774047851562
138, 0, 0, 1297.791259765625
139, 0, 0, 1294.059936523438
140, 0, 0, 1275.303100585938
141, 0, 0, 1255.449340820312
142, 0, 0, 1260.882202148438
143, 0, 0, 1243.89111328125
144, 0, 0, 1234.658935546875
145, 0, 0, 1217.989013671875
146, 0, 0, 1205.124755859375
147, 0, 0, 1194.8662109375
148, 0, 0, 1190.753051757812
149, 0, 0, 1182.791625976562
150, 0, 0, 1171.098510742188
151, 0, 0, 1168.12890625
152, 0, 0, 1156.1708984375
153, 0, 0, 1152.070190429688
154, 0, 0, 1139.674926757812
155, 0, 0, 1127.81640625
156, 0, 0, 1125.504028320312
157, 0, 0, 1120.953735351562
158, 0, 0, 1106.614990234375
159, 0, 0, 1108.571899414062
160, 0, 0, 1093.978637695312
161, 0, 0, 1087.5205078125
162, 0, 0, 1082.081298828125
163, 0, 0, 1085.68896484375
164, 0, 0, 1079.776977539062
165, 0, 0, 1068.653198242188
166, 0, 0, 1055.086669921875
167, 0, 0, 1056.508422851562
168, 0, 0, 1049.948120117188
169, 0, 0, 1042.8056640625
170, 0, 0, 1044.19873046875
171, 0, 0, 1037.42041015625
172, 0, 0, 1019.798828125
173, 0, 0, 1016.946411132812
174, 0, 0, 1025.527465820312
175, 0, 0, 1013.677917480469
176, 0, 0, 1010.664001464844
177, 0, 0, 1008.947387695312
178, 0, 0, 1000.601745605469
179, 0, 0, 995.4163818359375
