# TOPAS Version: 3.3.p1
# Parameter File: Test.txt
# Results for scorer MLIC_Scorer
# Scored in component: MLIC
# X in 165 bins of 0.2 cm
# Y in 1 bin  of 10 cm
# Z in 1 bin  of 10 cm
# EnergyDeposit ( MeV ) : Sum   
0, 0, 0, 833.1195678710938
1, 0, 0, 832.9447021484375
2, 0, 0, 836.9308471679688
3, 0, 0, 835.2998657226562
4, 0, 0, 842.4760131835938
5, 0, 0, 838.7855834960938
6, 0, 0, 844.1427001953125
7, 0, 0, 842.9168701171875
8, 0, 0, 835.046875
9, 0, 0, 842.6202392578125
10, 0, 0, 849.0516967773438
11, 0, 0, 853.2393188476562
12, 0, 0, 861.4073486328125
13, 0, 0, 852.4677734375
14, 0, 0, 853.9300537109375
15, 0, 0, 854.1810302734375
16, 0, 0, 860.1361083984375
17, 0, 0, 860.138916015625
18, 0, 0, 869.3928833007812
19, 0, 0, 868.9466552734375
20, 0, 0, 870.8375854492188
21, 0, 0, 864.2484741210938
22, 0, 0, 865.8682250976562
23, 0, 0, 880.7371215820312
24, 0, 0, 873.9685668945312
25, 0, 0, 880.7372436523438
26, 0, 0, 880.8148803710938
27, 0, 0, 891.7164916992188
28, 0, 0, 895.728515625
29, 0, 0, 895.4058227539062
30, 0, 0, 898.9978637695312
31, 0, 0, 901.9901123046875
32, 0, 0, 891.3362426757812
33, 0, 0, 895.593505859375
34, 0, 0, 904.7108764648438
35, 0, 0, 909.4883422851562
36, 0, 0, 909.1055908203125
37, 0, 0, 912.646240234375
38, 0, 0, 929.5839233398438
39, 0, 0, 919.6182250976562
40, 0, 0, 927.0611572265625
41, 0, 0, 927.3236083984375
42, 0, 0, 932.4088134765625
43, 0, 0, 934.8610229492188
44, 0, 0, 933.3206787109375
45, 0, 0, 946.2606811523438
46, 0, 0, 940.4578247070312
47, 0, 0, 944.8984375
48, 0, 0, 948.6712036132812
49, 0, 0, 951.540771484375
50, 0, 0, 961.2871704101562
51, 0, 0, 956.038818359375
52, 0, 0, 965.62841796875
53, 0, 0, 961.5722045898438
54, 0, 0, 962.1055908203125
55, 0, 0, 972.0382080078125
56, 0, 0, 971.5604248046875
57, 0, 0, 976.4866333007812
58, 0, 0, 977.0794067382812
59, 0, 0, 992.4015502929688
60, 0, 0, 986.2373657226562
61, 0, 0, 996.67041015625
62, 0, 0, 1000.616577148438
63, 0, 0, 997.0216064453125
64, 0, 0, 1000.762939453125
65, 0, 0, 999.5198974609375
66, 0, 0, 1017.426513671875
67, 0, 0, 1022.430908203125
68, 0, 0, 1016.1962890625
69, 0, 0, 1015.947265625
70, 0, 0, 1035.52197265625
71, 0, 0, 1039.745971679688
72, 0, 0, 1049.252319335938
73, 0, 0, 1046.35205078125
74, 0, 0, 1047.169189453125
75, 0, 0, 1053.071166992188
76, 0, 0, 1051.27294921875
77, 0, 0, 1065.776733398438
78, 0, 0, 1058.364868164062
79, 0, 0, 1077.116577148438
80, 0, 0, 1078.597412109375
81, 0, 0, 1084.2744140625
82, 0, 0, 1086.177124023438
83, 0, 0, 1088.625
84, 0, 0, 1107.705200195312
85, 0, 0, 1114.8720703125
86, 0, 0, 1112.101196289062
87, 0, 0, 1113.19775390625
88, 0, 0, 1129.697143554688
89, 0, 0, 1132.07421875
90, 0, 0, 1137.799072265625
91, 0, 0, 1145.339477539062
92, 0, 0, 1147.97412109375
93, 0, 0, 1158.498901367188
94, 0, 0, 1161.722412109375
95, 0, 0, 1164.001831054688
96, 0, 0, 1179.23046875
97, 0, 0, 1187.003662109375
98, 0, 0, 1204.369873046875
99, 0, 0, 1195.861083984375
100, 0, 0, 1206.2890625
101, 0, 0, 1220.655395507812
102, 0, 0, 1222.61279296875
103, 0, 0, 1235.357299804688
104, 0, 0, 1248.00439453125
105, 0, 0, 1262.245361328125
106, 0, 0, 1263.876098632812
107, 0, 0, 1274.851806640625
108, 0, 0, 1278.633056640625
109, 0, 0, 1299.433227539062
110, 0, 0, 1296.3115234375
111, 0, 0, 1313.767211914062
112, 0, 0, 1326.913818359375
113, 0, 0, 1334.20947265625
114, 0, 0, 1349.099731445312
115, 0, 0, 1359.425903320312
116, 0, 0, 1370.384399414062
117, 0, 0, 1388.322021484375
118, 0, 0, 1405.016479492188
119, 0, 0, 1424.962768554688
120, 0, 0, 1433.682250976562
121, 0, 0, 1454.333862304688
122, 0, 0, 1459.79736328125
123, 0, 0, 1480.579467773438
124, 0, 0, 1502.669677734375
125, 0, 0, 1512.790161132812
126, 0, 0, 1526.877319335938
127, 0, 0, 1552.28857421875
128, 0, 0, 1578.715576171875
129, 0, 0, 1601.748168945312
130, 0, 0, 1615.635375976562
131, 0, 0, 1637.768188476562
132, 0, 0, 1669.2998046875
133, 0, 0, 1689.950561523438
134, 0, 0, 1716.12158203125
135, 0, 0, 1749.761474609375
136, 0, 0, 1788.41845703125
137, 0, 0, 1816.6748046875
138, 0, 0, 1838.910278320312
139, 0, 0, 1885.183959960938
140, 0, 0, 1927.720336914062
141, 0, 0, 1971.328002929688
142, 0, 0, 2015.636840820312
143, 0, 0, 2060.73779296875
144, 0, 0, 2129.913818359375
145, 0, 0, 2191.060302734375
146, 0, 0, 2247.374755859375
147, 0, 0, 2332.55126953125
148, 0, 0, 2420.111328125
149, 0, 0, 2515.427978515625
150, 0, 0, 2623.578369140625
151, 0, 0, 2770.24609375
152, 0, 0, 2930.060302734375
153, 0, 0, 3120.817138671875
154, 0, 0, 3390.5751953125
155, 0, 0, 3732.954345703125
156, 0, 0, 4265.5078125
157, 0, 0, 4876.25830078125
158, 0, 0, 5381.08740234375
159, 0, 0, 5403.15185546875
160, 0, 0, 4479.56005859375
161, 0, 0, 3104.37744140625
162, 0, 0, 1469.177856445312
163, 0, 0, 539.9364013671875
164, 0, 0, 157.0492553710938
