# TOPAS Version: 3.3.p1
# Parameter File: Test.txt
# Results for scorer MLIC_Scorer
# Scored in component: MLIC
# X in 180 bins of 0.177778 cm
# Y in 1 bin  of 10 cm
# Z in 1 bin  of 10 cm
# EnergyDeposit ( MeV ) : Sum   
0, 0, 0, 0
1, 0, 0, 0
2, 0, 0, 0
3, 0, 0, 0
4, 0, 0, 0
5, 0, 0, 0
6, 0, 0, 0
7, 0, 0, 0
8, 0, 0, 0
9, 0, 0, 0
10, 0, 0, 0
11, 0, 0, 0
12, 0, 0, 0
13, 0, 0, 0
14, 0, 0, 0
15, 0, 0, 0
16, 0, 0, 0
17, 0, 0, 0
18, 0, 0, 0
19, 0, 0, 0
20, 0, 0, 0
21, 0, 0, 0
22, 0, 0, 0
23, 0, 0, 0
24, 0, 0, 0
25, 0, 0, 0
26, 0, 0, 0
27, 0, 0, 0
28, 0, 0, 0
29, 0, 0, 0
30, 0, 0, 0
31, 0, 0, 0
32, 0, 0, 0
33, 0, 0, 0
34, 0, 0, 0
35, 0, 0, 0
36, 0, 0, 0
37, 0, 0, 0
38, 0, 0, 0
39, 0, 0, 0
40, 0, 0, 0
41, 0, 0, 0
42, 0, 0, 0
43, 0, 0, 0
44, 0, 0, 0
45, 0, 0, 0
46, 0, 0, 0
47, 0, 0, 0
48, 0, 0, 0
49, 0, 0, 0
50, 0, 0, 0
51, 0, 0, 0
52, 0, 0, 0
53, 0, 0, 0
54, 0, 0, 0
55, 0, 0, 0
56, 0, 0, 0
57, 0, 0, 0
58, 0, 0, 0
59, 0, 0, 0
60, 0, 0, 0
61, 0, 0, 0
62, 0, 0, 0
63, 0, 0, 0
64, 0, 0, 0
65, 0, 0, 0
66, 0, 0, 0
67, 0, 0, 0
68, 0, 0, 0
69, 0, 0, 0
70, 0, 0, 0
71, 0, 0, 0
72, 0, 0, 0
73, 0, 0, 0
74, 0, 0, 0
75, 0, 0, 0
76, 0, 0, 0
77, 0, 0, 0
78, 0, 0, 0
79, 0, 0, 0
80, 0, 0, 0
81, 0, 0, 0
82, 0, 0, 0
83, 0, 0, 0
84, 0, 0, 0
85, 0, 0, 0
86, 0, 0, 0
87, 0, 0, 0
88, 0, 0, 0
89, 0, 0, 0
90, 0, 0, 0
91, 0, 0, 0
92, 0, 0, 0
93, 0, 0, 0
94, 0, 0, 0
95, 0, 0, 0
96, 0, 0, 0
97, 0, 0, 0
98, 0, 0, 0
99, 0, 0, 0
100, 0, 0, 0
101, 0, 0, 0
102, 0, 0, 0
103, 0, 0, 0
104, 0, 0, 0
105, 0, 0, 0.04471900686621666
106, 0, 0, 0
107, 0, 0, 0
108, 0, 0, 0
109, 0, 0, 0
110, 0, 0, 5.575136661529541
111, 0, 0, 46.91963577270508
112, 0, 0, 233.5746612548828
113, 0, 0, 686.61669921875
114, 0, 0, 1896.734008789062
115, 0, 0, 3470.870361328125
116, 0, 0, 4455.45849609375
117, 0, 0, 4989.9794921875
118, 0, 0, 4884.5390625
119, 0, 0, 4405.20361328125
120, 0, 0, 3845.688720703125
121, 0, 0, 3381.880126953125
122, 0, 0, 3078.173828125
123, 0, 0, 2859.890380859375
124, 0, 0, 2682.480712890625
125, 0, 0, 2544.22998046875
126, 0, 0, 2426.02783203125
127, 0, 0, 2319.604736328125
128, 0, 0, 2242.035400390625
129, 0, 0, 2166.14306640625
130, 0, 0, 2090.2333984375
131, 0, 0, 2020.07666015625
132, 0, 0, 1969.686279296875
133, 0, 0, 1919.292236328125
134, 0, 0, 1881.8916015625
135, 0, 0, 1822.419189453125
136, 0, 0, 1790.594970703125
137, 0, 0, 1745.96337890625
138, 0, 0, 1719.922973632812
139, 0, 0, 1681.214477539062
140, 0, 0, 1652.603271484375
141, 0, 0, 1625.0771484375
142, 0, 0, 1596.977416992188
143, 0, 0, 1572.988647460938
144, 0, 0, 1546.537963867188
145, 0, 0, 1530.809326171875
146, 0, 0, 1499.50732421875
147, 0, 0, 1485.345703125
148, 0, 0, 1461.645141601562
149, 0, 0, 1448.069946289062
150, 0, 0, 1422.203002929688
151, 0, 0, 1414.089599609375
152, 0, 0, 1388.242553710938
153, 0, 0, 1383.384155273438
154, 0, 0, 1362.099487304688
155, 0, 0, 1340.287475585938
156, 0, 0, 1328.820190429688
157, 0, 0, 1324.647094726562
158, 0, 0, 1304.027587890625
159, 0, 0, 1290.374755859375
160, 0, 0, 1279.316772460938
161, 0, 0, 1272.677856445312
162, 0, 0, 1252.005249023438
163, 0, 0, 1247.778930664062
164, 0, 0, 1234.072875976562
165, 0, 0, 1215.465087890625
166, 0, 0, 1206.69775390625
167, 0, 0, 1206.711791992188
168, 0, 0, 1193.524291992188
169, 0, 0, 1182.415283203125
170, 0, 0, 1181.037719726562
171, 0, 0, 1166.511352539062
172, 0, 0, 1162.123779296875
173, 0, 0, 1146.192504882812
174, 0, 0, 1143.8916015625
175, 0, 0, 1137.498657226562
176, 0, 0, 1125.245971679688
177, 0, 0, 1114.749389648438
178, 0, 0, 1114.841186523438
179, 0, 0, 1100.4140625
