# TOPAS Version: 3.3.p1
# Parameter File: Test.txt
# Results for scorer MLIC_Scorer
# Scored in component: MLIC
# X in 165 bins of 0.2 cm
# Y in 1 bin  of 10 cm
# Z in 1 bin  of 10 cm
# EnergyDeposit ( MeV ) : Sum   
0, 0, 0, 0
1, 0, 0, 0
2, 0, 0, 0
3, 0, 0, 0
4, 0, 0, 0
5, 0, 0, 0
6, 0, 0, 0
7, 0, 0, 0
8, 0, 0, 0
9, 0, 0, 0
10, 0, 0, 0
11, 0, 0, 0
12, 0, 0, 0
13, 0, 0, 0
14, 0, 0, 0
15, 0, 0, 0
16, 0, 0, 0
17, 0, 0, 0
18, 0, 0, 0
19, 0, 0, 0
20, 0, 0, 0
21, 0, 0, 0
22, 0, 0, 0
23, 0, 0, 0
24, 0, 0, 0
25, 0, 0, 0
26, 0, 0, 0
27, 0, 0, 0
28, 0, 0, 0
29, 0, 0, 0
30, 0, 0, 0
31, 0, 0, 0
32, 0, 0, 0
33, 0, 0, 0
34, 0, 0, 0
35, 0, 0, 0
36, 0, 0, 0
37, 0, 0, 0
38, 0, 0, 0
39, 0, 0, 0
40, 0, 0, 0
41, 0, 0, 0
42, 0, 0, 0
43, 0, 0, 0
44, 0, 0, 0
45, 0, 0, 0
46, 0, 0, 0
47, 0, 0, 0
48, 0, 0, 0
49, 0, 0, 0
50, 0, 0, 0
51, 0, 0, 0
52, 0, 0, 0
53, 0, 0, 0
54, 0, 0, 0
55, 0, 0, 0
56, 0, 0, 0.02582946047186852
57, 0, 0, 0
58, 0, 0, 0
59, 0, 0, 0
60, 0, 0, 0
61, 0, 0, 0
62, 0, 0, 0
63, 0, 0, 0
64, 0, 0, 0
65, 0, 0, 0
66, 0, 0, 0
67, 0, 0, 0
68, 0, 0, 0.03525372967123985
69, 0, 0, 0
70, 0, 0, 0
71, 0, 0, 0
72, 0, 0, 0
73, 0, 0, 0.02149462513625622
74, 0, 0, 0.00447537936270237
75, 0, 0, 0.008148172870278358
76, 0, 0, 0.008307591080665588
77, 0, 0, 0.02051304280757904
78, 0, 0, 44.26154708862305
79, 0, 0, 100.4585647583008
80, 0, 0, 501.6299133300781
81, 0, 0, 1370.068725585938
82, 0, 0, 2951.56591796875
83, 0, 0, 4411.9619140625
84, 0, 0, 5386.55517578125
85, 0, 0, 5467.6474609375
86, 0, 0, 4842.2099609375
87, 0, 0, 4254.70556640625
88, 0, 0, 3780.398681640625
89, 0, 0, 3413.239990234375
90, 0, 0, 3140.07568359375
91, 0, 0, 2938.47705078125
92, 0, 0, 2774.816650390625
93, 0, 0, 2637.93359375
94, 0, 0, 2526.62255859375
95, 0, 0, 2423.658935546875
96, 0, 0, 2342.24951171875
97, 0, 0, 2266.272216796875
98, 0, 0, 2193.962890625
99, 0, 0, 2124.775634765625
100, 0, 0, 2069.317138671875
101, 0, 0, 2019.04833984375
102, 0, 0, 1973.867797851562
103, 0, 0, 1932.69921875
104, 0, 0, 1888.704956054688
105, 0, 0, 1851.888305664062
106, 0, 0, 1818.46484375
107, 0, 0, 1780.96435546875
108, 0, 0, 1750.557250976562
109, 0, 0, 1722.468017578125
110, 0, 0, 1692.3203125
111, 0, 0, 1668.418090820312
112, 0, 0, 1647.177124023438
113, 0, 0, 1622.587524414062
114, 0, 0, 1600.353271484375
115, 0, 0, 1575.085571289062
116, 0, 0, 1552.76953125
117, 0, 0, 1539.826904296875
118, 0, 0, 1520.63671875
119, 0, 0, 1496.408935546875
120, 0, 0, 1478.34130859375
121, 0, 0, 1461.361450195312
122, 0, 0, 1449.547485351562
123, 0, 0, 1437.970092773438
124, 0, 0, 1419.664794921875
125, 0, 0, 1407.289428710938
126, 0, 0, 1397.505737304688
127, 0, 0, 1379.32373046875
128, 0, 0, 1358.597290039062
129, 0, 0, 1351.88232421875
130, 0, 0, 1339.113525390625
131, 0, 0, 1330.148681640625
132, 0, 0, 1326.850463867188
133, 0, 0, 1310.427368164062
134, 0, 0, 1298.513427734375
135, 0, 0, 1288.958740234375
136, 0, 0, 1277.233764648438
137, 0, 0, 1255.183715820312
138, 0, 0, 1260.106079101562
139, 0, 0, 1251.129638671875
140, 0, 0, 1234.756713867188
141, 0, 0, 1237.28271484375
142, 0, 0, 1223.181518554688
143, 0, 0, 1211.808715820312
144, 0, 0, 1199.060913085938
145, 0, 0, 1188.309448242188
146, 0, 0, 1186.123291015625
147, 0, 0, 1177.678955078125
148, 0, 0, 1168.102294921875
149, 0, 0, 1169.78955078125
150, 0, 0, 1156.995361328125
151, 0, 0, 1149.661743164062
152, 0, 0, 1145.718872070312
153, 0, 0, 1139.9560546875
154, 0, 0, 1134.717041015625
155, 0, 0, 1122.865966796875
156, 0, 0, 1118.227172851562
157, 0, 0, 1116.754028320312
158, 0, 0, 1104.6220703125
159, 0, 0, 1106.289794921875
160, 0, 0, 1097.615478515625
161, 0, 0, 1090.237670898438
162, 0, 0, 1086.450439453125
163, 0, 0, 1073.07373046875
164, 0, 0, 1073.890869140625
