# TOPAS Version: 3.3.p1
# Parameter File: Test.txt
# Results for scorer MLIC_Scorer
# Scored in component: MLIC
# X in 180 bins of 0.177778 cm
# Y in 1 bin  of 10 cm
# Z in 1 bin  of 10 cm
# EnergyDeposit ( MeV ) : Sum   
0, 0, 0, 0
1, 0, 0, 0
2, 0, 0, 0
3, 0, 0, 0
4, 0, 0, 0
5, 0, 0, 0
6, 0, 0, 0
7, 0, 0, 0
8, 0, 0, 0
9, 0, 0, 0
10, 0, 0, 0
11, 0, 0, 0
12, 0, 0, 0
13, 0, 0, 0
14, 0, 0, 0
15, 0, 0, 0
16, 0, 0, 0
17, 0, 0, 0
18, 0, 0, 0
19, 0, 0, 0
20, 0, 0, 0
21, 0, 0, 0
22, 0, 0, 0
23, 0, 0, 0
24, 0, 0, 0
25, 0, 0, 0
26, 0, 0, 0
27, 0, 0, 0
28, 0, 0, 0
29, 0, 0, 0
30, 0, 0, 0
31, 0, 0, 0
32, 0, 0, 0
33, 0, 0, 0
34, 0, 0, 0
35, 0, 0, 0
36, 0, 0, 0
37, 0, 0, 0
38, 0, 0, 0
39, 0, 0, 0
40, 0, 0, 0
41, 0, 0, 0
42, 0, 0, 0
43, 0, 0, 0
44, 0, 0, 0
45, 0, 0, 0
46, 0, 0, 0
47, 0, 0, 0
48, 0, 0, 0
49, 0, 0, 0
50, 0, 0, 0
51, 0, 0, 0
52, 0, 0, 0
53, 0, 0, 0
54, 0, 0, 0
55, 0, 0, 0
56, 0, 0, 0
57, 0, 0, 0
58, 0, 0, 0
59, 0, 0, 0
60, 0, 0, 0
61, 0, 0, 0
62, 0, 0, 0
63, 0, 0, 0
64, 0, 0, 0
65, 0, 0, 0
66, 0, 0, 0
67, 0, 0, 0
68, 0, 0, 0
69, 0, 0, 0
70, 0, 0, 0
71, 0, 0, 0
72, 0, 0, 0
73, 0, 0, 0
74, 0, 0, 0
75, 0, 0, 0
76, 0, 0, 0
77, 0, 0, 0
78, 0, 0, 0
79, 0, 0, 0
80, 0, 0, 0
81, 0, 0, 0
82, 0, 0, 0
83, 0, 0, 0
84, 0, 0, 0
85, 0, 0, 0
86, 0, 0, 0
87, 0, 0, 0
88, 0, 0, 0
89, 0, 0, 0
90, 0, 0, 0
91, 0, 0, 0
92, 0, 0, 0
93, 0, 0, 0
94, 0, 0, 0
95, 0, 0, 0
96, 0, 0, 5.453787326812744
97, 0, 0, 19.53674697875977
98, 0, 0, 57.65349578857422
99, 0, 0, 156.5129699707031
100, 0, 0, 209.1944122314453
101, 0, 0, 232.8038024902344
102, 0, 0, 305.34765625
103, 0, 0, 322.9631042480469
104, 0, 0, 296.1329956054688
105, 0, 0, 267.8885803222656
106, 0, 0, 234.2391052246094
107, 0, 0, 215.068359375
108, 0, 0, 196.2183227539062
109, 0, 0, 183.7879028320312
110, 0, 0, 173.3786926269531
111, 0, 0, 165.4852142333984
112, 0, 0, 158.4193572998047
113, 0, 0, 151.014404296875
114, 0, 0, 146.1557464599609
115, 0, 0, 140.6351776123047
116, 0, 0, 137.9357452392578
117, 0, 0, 134.7298889160156
118, 0, 0, 129.4421691894531
119, 0, 0, 126.504150390625
120, 0, 0, 122.7575302124023
121, 0, 0, 120.1470031738281
122, 0, 0, 118.6114501953125
123, 0, 0, 114.8081359863281
124, 0, 0, 113.9072113037109
125, 0, 0, 112.8282623291016
126, 0, 0, 110.1496276855469
127, 0, 0, 108.244758605957
128, 0, 0, 107.4543685913086
129, 0, 0, 103.2218933105469
130, 0, 0, 105.1334533691406
131, 0, 0, 100.8450622558594
132, 0, 0, 100.2153396606445
133, 0, 0, 98.7293701171875
134, 0, 0, 97.07672119140625
135, 0, 0, 95.73648834228516
136, 0, 0, 93.50550842285156
137, 0, 0, 91.40135192871094
138, 0, 0, 91.59852600097656
139, 0, 0, 91.65876770019531
140, 0, 0, 91.61678314208984
141, 0, 0, 88.87650299072266
142, 0, 0, 90.25408172607422
143, 0, 0, 87.53848266601562
144, 0, 0, 85.35424041748047
145, 0, 0, 84.19868469238281
146, 0, 0, 83.93180084228516
147, 0, 0, 85.74605560302734
148, 0, 0, 84.05473327636719
149, 0, 0, 82.58966827392578
150, 0, 0, 82.97891998291016
151, 0, 0, 80.36985778808594
152, 0, 0, 81.23057556152344
153, 0, 0, 80.78697204589844
154, 0, 0, 82.41102600097656
155, 0, 0, 80.08272552490234
156, 0, 0, 77.85926818847656
157, 0, 0, 78.15682220458984
158, 0, 0, 76.70801544189453
159, 0, 0, 77.19683074951172
160, 0, 0, 76.12644195556641
161, 0, 0, 76.32963562011719
162, 0, 0, 75.57425689697266
163, 0, 0, 74.79895782470703
164, 0, 0, 72.24311828613281
165, 0, 0, 72.49726867675781
166, 0, 0, 75.42188262939453
167, 0, 0, 72.09912109375
168, 0, 0, 70.85035705566406
169, 0, 0, 73.27986907958984
170, 0, 0, 70.88602447509766
171, 0, 0, 69.09039306640625
172, 0, 0, 70.36212921142578
173, 0, 0, 69.97361755371094
174, 0, 0, 69.28827667236328
175, 0, 0, 68.42917633056641
176, 0, 0, 69.02777862548828
177, 0, 0, 68.78584289550781
178, 0, 0, 69.48978424072266
179, 0, 0, 68.87461090087891
