# TOPAS Version: 3.3.p1
# Parameter File: Test.txt
# Results for scorer MLIC_Scorer
# Scored in component: MLIC
# X in 180 bins of 0.177778 cm
# Y in 1 bin  of 10 cm
# Z in 1 bin  of 10 cm
# EnergyDeposit ( MeV ) : Sum   
0, 0, 0, 0
1, 0, 0, 0
2, 0, 0, 0
3, 0, 0, 0
4, 0, 0, 0
5, 0, 0, 0
6, 0, 0, 0
7, 0, 0, 0
8, 0, 0, 0
9, 0, 0, 0
10, 0, 0, 0
11, 0, 0, 0
12, 0, 0, 0
13, 0, 0, 0
14, 0, 0, 0
15, 0, 0, 0
16, 0, 0, 0
17, 0, 0, 0
18, 0, 0, 0
19, 0, 0, 0
20, 0, 0, 0
21, 0, 0, 0
22, 0, 0, 0
23, 0, 0, 0
24, 0, 0, 0
25, 0, 0, 0
26, 0, 0, 0
27, 0, 0, 0
28, 0, 0, 0
29, 0, 0, 0
30, 0, 0, 0
31, 0, 0, 0
32, 0, 0, 0
33, 0, 0, 0
34, 0, 0, 0
35, 0, 0, 0
36, 0, 0, 0
37, 0, 0, 0
38, 0, 0, 0
39, 0, 0, 0
40, 0, 0, 0
41, 0, 0, 0
42, 0, 0, 0
43, 0, 0, 0
44, 0, 0, 0
45, 0, 0, 0
46, 0, 0, 0
47, 0, 0, 0
48, 0, 0, 0
49, 0, 0, 0
50, 0, 0, 0
51, 0, 0, 0
52, 0, 0, 0
53, 0, 0, 0
54, 0, 0, 0
55, 0, 0, 0
56, 0, 0, 0
57, 0, 0, 0
58, 0, 0, 0
59, 0, 0, 0
60, 0, 0, 0
61, 0, 0, 0
62, 0, 0, 0
63, 0, 0, 0
64, 0, 0, 0
65, 0, 0, 0
66, 0, 0, 0
67, 0, 0, 0
68, 0, 0, 0
69, 0, 0, 0
70, 0, 0, 0
71, 0, 0, 0
72, 0, 0, 0
73, 0, 0, 0
74, 0, 0, 0
75, 0, 0, 0
76, 0, 0, 0
77, 0, 0, 0
78, 0, 0, 0
79, 0, 0, 0
80, 0, 0, 0
81, 0, 0, 0
82, 0, 0, 0
83, 0, 0, 0
84, 0, 0, 0
85, 0, 0, 0
86, 0, 0, 0
87, 0, 0, 0
88, 0, 0, 0
89, 0, 0, 4.914062023162842
90, 0, 0, 14.72990322113037
91, 0, 0, 96.06636810302734
92, 0, 0, 223.9676361083984
93, 0, 0, 387.312255859375
94, 0, 0, 438.7341613769531
95, 0, 0, 416.7941284179688
96, 0, 0, 356.7582092285156
97, 0, 0, 335.0418395996094
98, 0, 0, 295.9053649902344
99, 0, 0, 265.4441223144531
100, 0, 0, 244.4819641113281
101, 0, 0, 227.4528198242188
102, 0, 0, 216.6591339111328
103, 0, 0, 206.3673858642578
104, 0, 0, 195.5918121337891
105, 0, 0, 186.7428894042969
106, 0, 0, 181.9998626708984
107, 0, 0, 175.7026824951172
108, 0, 0, 172.3610534667969
109, 0, 0, 165.5123596191406
110, 0, 0, 162.4434661865234
111, 0, 0, 157.7841339111328
112, 0, 0, 153.7662506103516
113, 0, 0, 149.7273864746094
114, 0, 0, 144.8138275146484
115, 0, 0, 144.0137634277344
116, 0, 0, 142.0225372314453
117, 0, 0, 140.0334320068359
118, 0, 0, 135.7665100097656
119, 0, 0, 132.3964996337891
120, 0, 0, 131.8514251708984
121, 0, 0, 128.6402130126953
122, 0, 0, 127.408317565918
123, 0, 0, 125.6689834594727
124, 0, 0, 122.9384613037109
125, 0, 0, 121.2878799438477
126, 0, 0, 120.84521484375
127, 0, 0, 119.5903701782227
128, 0, 0, 120.3410491943359
129, 0, 0, 115.4926681518555
130, 0, 0, 114.5606536865234
131, 0, 0, 113.2239608764648
132, 0, 0, 113.1630020141602
133, 0, 0, 109.9065780639648
134, 0, 0, 110.950798034668
135, 0, 0, 109.4846649169922
136, 0, 0, 105.9228057861328
137, 0, 0, 106.020866394043
138, 0, 0, 105.2578811645508
139, 0, 0, 105.6996307373047
140, 0, 0, 102.8021621704102
141, 0, 0, 101.4113388061523
142, 0, 0, 103.5727081298828
143, 0, 0, 101.3195953369141
144, 0, 0, 101.3038177490234
145, 0, 0, 99.44768524169922
146, 0, 0, 97.54618072509766
147, 0, 0, 98.21686553955078
148, 0, 0, 95.67985534667969
149, 0, 0, 96.03456115722656
150, 0, 0, 97.38098907470703
151, 0, 0, 96.41292572021484
152, 0, 0, 97.05866241455078
153, 0, 0, 95.73007965087891
154, 0, 0, 91.20543670654297
155, 0, 0, 92.93148803710938
156, 0, 0, 91.56987762451172
157, 0, 0, 92.08271026611328
158, 0, 0, 89.59519195556641
159, 0, 0, 91.79472351074219
160, 0, 0, 91.33301544189453
161, 0, 0, 88.25657653808594
162, 0, 0, 89.6920166015625
163, 0, 0, 87.26450347900391
164, 0, 0, 88.11100006103516
165, 0, 0, 88.19229125976562
166, 0, 0, 88.38591003417969
167, 0, 0, 85.67061614990234
168, 0, 0, 83.94180297851562
169, 0, 0, 85.35926055908203
170, 0, 0, 85.26842498779297
171, 0, 0, 85.24042510986328
172, 0, 0, 84.50904846191406
173, 0, 0, 81.10513305664062
174, 0, 0, 83.37047576904297
175, 0, 0, 83.76766204833984
176, 0, 0, 84.83985900878906
177, 0, 0, 80.80977630615234
178, 0, 0, 80.13921356201172
179, 0, 0, 81.8670654296875
