# TOPAS Version: 3.3.p1
# Parameter File: Test.txt
# Results for scorer MLIC_Scorer
# Scored in component: MLIC
# X in 180 bins of 0.177778 cm
# Y in 1 bin  of 10 cm
# Z in 1 bin  of 10 cm
# EnergyDeposit ( MeV ) : Sum   
0, 0, 0, 0
1, 0, 0, 0
2, 0, 0, 0
3, 0, 0, 0
4, 0, 0, 0
5, 0, 0, 0
6, 0, 0, 0
7, 0, 0, 0
8, 0, 0, 0
9, 0, 0, 0
10, 0, 0, 0
11, 0, 0, 0
12, 0, 0, 0
13, 0, 0, 0
14, 0, 0, 0
15, 0, 0, 0
16, 0, 0, 0
17, 0, 0, 0
18, 0, 0, 0
19, 0, 0, 0
20, 0, 0, 0
21, 0, 0, 0
22, 0, 0, 0.0338880866765976
23, 0, 0, 0
24, 0, 0, 0
25, 0, 0, 0
26, 0, 0, 0
27, 0, 0, 0
28, 0, 0, 0
29, 0, 0, 0
30, 0, 0, 0
31, 0, 0, 0
32, 0, 0, 0
33, 0, 0, 0
34, 0, 0, 0
35, 0, 0, 0
36, 0, 0, 0
37, 0, 0, 0
38, 0, 0, 0
39, 0, 0, 0
40, 0, 0, 0
41, 0, 0, 0
42, 0, 0, 0
43, 0, 0, 0
44, 0, 0, 0
45, 0, 0, 0
46, 0, 0, 0
47, 0, 0, 0
48, 0, 0, 0
49, 0, 0, 0
50, 0, 0, 0
51, 0, 0, 0
52, 0, 0, 0
53, 0, 0, 0
54, 0, 0, 0
55, 0, 0, 0
56, 0, 0, 0
57, 0, 0, 0
58, 0, 0, 0
59, 0, 0, 0
60, 0, 0, 0.001677765278145671
61, 0, 0, 11.75133323669434
62, 0, 0, 57.78752899169922
63, 0, 0, 291.1614685058594
64, 0, 0, 648.080810546875
65, 0, 0, 1593.85595703125
66, 0, 0, 3036.952880859375
67, 0, 0, 4459.8310546875
68, 0, 0, 4927.640625
69, 0, 0, 5039.73583984375
70, 0, 0, 4387.80419921875
71, 0, 0, 3834.8603515625
72, 0, 0, 3444.710693359375
73, 0, 0, 3156.00927734375
74, 0, 0, 2912.185791015625
75, 0, 0, 2723.49267578125
76, 0, 0, 2572.271728515625
77, 0, 0, 2446.2451171875
78, 0, 0, 2355.992431640625
79, 0, 0, 2253.124755859375
80, 0, 0, 2173.548828125
81, 0, 0, 2099.623046875
82, 0, 0, 2039.875854492188
83, 0, 0, 1977.957153320312
84, 0, 0, 1929.060302734375
85, 0, 0, 1886.340942382812
86, 0, 0, 1834.428955078125
87, 0, 0, 1796.244018554688
88, 0, 0, 1754.845947265625
89, 0, 0, 1720.689331054688
90, 0, 0, 1696.217407226562
91, 0, 0, 1661.271850585938
92, 0, 0, 1633.17138671875
93, 0, 0, 1605.757934570312
94, 0, 0, 1577.525634765625
95, 0, 0, 1555.482666015625
96, 0, 0, 1521.585693359375
97, 0, 0, 1500.585815429688
98, 0, 0, 1487.462890625
99, 0, 0, 1464.832397460938
100, 0, 0, 1450.435180664062
101, 0, 0, 1431.001586914062
102, 0, 0, 1411.798828125
103, 0, 0, 1393.2802734375
104, 0, 0, 1375.425903320312
105, 0, 0, 1369.796508789062
106, 0, 0, 1352.101806640625
107, 0, 0, 1336.587890625
108, 0, 0, 1323.503784179688
109, 0, 0, 1306.048461914062
110, 0, 0, 1298.545043945312
111, 0, 0, 1285.44580078125
112, 0, 0, 1262.153930664062
113, 0, 0, 1263.225219726562
114, 0, 0, 1245.581787109375
115, 0, 0, 1236.30615234375
116, 0, 0, 1228.9189453125
117, 0, 0, 1227.740478515625
118, 0, 0, 1209.432983398438
119, 0, 0, 1199.958374023438
120, 0, 0, 1178.395141601562
121, 0, 0, 1178.859130859375
122, 0, 0, 1174.367065429688
123, 0, 0, 1159.36376953125
124, 0, 0, 1148.916870117188
125, 0, 0, 1145.37646484375
126, 0, 0, 1135.225708007812
127, 0, 0, 1133.583129882812
128, 0, 0, 1126.863647460938
129, 0, 0, 1108.213623046875
130, 0, 0, 1104.314086914062
131, 0, 0, 1097.758178710938
132, 0, 0, 1095.860229492188
133, 0, 0, 1089.426513671875
134, 0, 0, 1085.310668945312
135, 0, 0, 1071.928100585938
136, 0, 0, 1063.861938476562
137, 0, 0, 1058.3603515625
138, 0, 0, 1064.982543945312
139, 0, 0, 1044.389892578125
140, 0, 0, 1033.269897460938
141, 0, 0, 1037.248168945312
142, 0, 0, 1028.149658203125
143, 0, 0, 1030.929809570312
144, 0, 0, 1017.468322753906
145, 0, 0, 1013.334289550781
146, 0, 0, 1002.919616699219
147, 0, 0, 1003.919616699219
148, 0, 0, 993.7818603515625
149, 0, 0, 1000.009399414062
150, 0, 0, 984.990234375
151, 0, 0, 982.188232421875
152, 0, 0, 979.3309936523438
153, 0, 0, 974.450439453125
154, 0, 0, 970.23876953125
155, 0, 0, 957.5848388671875
156, 0, 0, 957.2052612304688
157, 0, 0, 954.5608520507812
158, 0, 0, 958.0438842773438
159, 0, 0, 951.0142211914062
160, 0, 0, 944.6046752929688
161, 0, 0, 944.296875
162, 0, 0, 940.4437255859375
163, 0, 0, 932.9890747070312
164, 0, 0, 929.5217895507812
165, 0, 0, 928.1954345703125
166, 0, 0, 921.9739379882812
167, 0, 0, 912.3229370117188
168, 0, 0, 917.53857421875
169, 0, 0, 914.3944091796875
170, 0, 0, 914.4558715820312
171, 0, 0, 905.0400390625
172, 0, 0, 900.4527587890625
173, 0, 0, 902.808837890625
174, 0, 0, 901.5985107421875
175, 0, 0, 890.1129760742188
176, 0, 0, 888.633056640625
177, 0, 0, 881.1817016601562
178, 0, 0, 881.9229125976562
179, 0, 0, 878.1304321289062
