# TOPAS Version: 3.3.p1
# Parameter File: Test.txt
# Results for scorer MLIC_Scorer
# Scored in component: MLIC
# X in 180 bins of 0.177778 cm
# Y in 1 bin  of 10 cm
# Z in 1 bin  of 10 cm
# EnergyDeposit ( MeV ) : Sum   
0, 0, 0, 0
1, 0, 0, 0
2, 0, 0, 0
3, 0, 0, 0
4, 0, 0, 0
5, 0, 0, 0
6, 0, 0, 0
7, 0, 0, 0
8, 0, 0, 0
9, 0, 0, 0
10, 0, 0, 0
11, 0, 0, 0
12, 0, 0, 0
13, 0, 0, 0
14, 0, 0, 0
15, 0, 0, 0
16, 0, 0, 0
17, 0, 0, 0
18, 0, 0, 0
19, 0, 0, 0
20, 0, 0, 0
21, 0, 0, 0
22, 0, 0, 0
23, 0, 0, 0
24, 0, 0, 0
25, 0, 0, 0
26, 0, 0, 0
27, 0, 0, 0
28, 0, 0, 0
29, 0, 0, 0
30, 0, 0, 0
31, 0, 0, 0
32, 0, 0, 0
33, 0, 0, 0
34, 0, 0, 0
35, 0, 0, 0
36, 0, 0, 0
37, 0, 0, 0
38, 0, 0, 0
39, 0, 0, 0
40, 0, 0, 0
41, 0, 0, 0
42, 0, 0, 0
43, 0, 0, 0
44, 0, 0, 0
45, 0, 0, 0
46, 0, 0, 0
47, 0, 0, 0
48, 0, 0, 0
49, 0, 0, 0
50, 0, 0, 0
51, 0, 0, 0
52, 0, 0, 0
53, 0, 0, 0
54, 0, 0, 0
55, 0, 0, 0
56, 0, 0, 0
57, 0, 0, 0
58, 0, 0, 0
59, 0, 0, 0
60, 0, 0, 0
61, 0, 0, 0
62, 0, 0, 0
63, 0, 0, 0
64, 0, 0, 0
65, 0, 0, 0
66, 0, 0, 0
67, 0, 0, 0
68, 0, 0, 0
69, 0, 0, 0
70, 0, 0, 0
71, 0, 0, 0
72, 0, 0, 0
73, 0, 0, 0
74, 0, 0, 0
75, 0, 0, 0
76, 0, 0, 0
77, 0, 0, 0
78, 0, 0, 0
79, 0, 0, 0
80, 0, 0, 0
81, 0, 0, 0
82, 0, 0, 0
83, 0, 0, 0
84, 0, 0, 0
85, 0, 0, 0
86, 0, 0, 0
87, 0, 0, 0.005971986800432205
88, 0, 0, 0
89, 0, 0, 0
90, 0, 0, 0
91, 0, 0, 0
92, 0, 0, 0
93, 0, 0, 0
94, 0, 0, 0
95, 0, 0, 0
96, 0, 0, 0.001672998303547502
97, 0, 0, 0
98, 0, 0, 4.545201778411865
99, 0, 0, 100.4003295898438
100, 0, 0, 428.8025512695312
101, 0, 0, 1172.770751953125
102, 0, 0, 2396.554443359375
103, 0, 0, 4056.408447265625
104, 0, 0, 4938.134765625
105, 0, 0, 5040.517578125
106, 0, 0, 4672.462890625
107, 0, 0, 4108.51953125
108, 0, 0, 3612.281005859375
109, 0, 0, 3234.559326171875
110, 0, 0, 2971.6572265625
111, 0, 0, 2772.275390625
112, 0, 0, 2618.953125
113, 0, 0, 2486.46435546875
114, 0, 0, 2381.0283203125
115, 0, 0, 2281.86328125
116, 0, 0, 2196.933837890625
117, 0, 0, 2129.431396484375
118, 0, 0, 2058.115478515625
119, 0, 0, 2004.494384765625
120, 0, 0, 1950.240844726562
121, 0, 0, 1898.07861328125
122, 0, 0, 1848.579833984375
123, 0, 0, 1808.790283203125
124, 0, 0, 1769.35302734375
125, 0, 0, 1737.498046875
126, 0, 0, 1706.1611328125
127, 0, 0, 1675.695434570312
128, 0, 0, 1645.117797851562
129, 0, 0, 1613.047607421875
130, 0, 0, 1592.347045898438
131, 0, 0, 1563.008422851562
132, 0, 0, 1541.414916992188
133, 0, 0, 1508.646850585938
134, 0, 0, 1493.961547851562
135, 0, 0, 1481.492919921875
136, 0, 0, 1451.230834960938
137, 0, 0, 1427.64697265625
138, 0, 0, 1418.865478515625
139, 0, 0, 1404.377075195312
140, 0, 0, 1387.935424804688
141, 0, 0, 1368.380981445312
142, 0, 0, 1350.938720703125
143, 0, 0, 1336.732666015625
144, 0, 0, 1319.11083984375
145, 0, 0, 1313.472290039062
146, 0, 0, 1307.139404296875
147, 0, 0, 1288.817993164062
148, 0, 0, 1272.43701171875
149, 0, 0, 1258.54931640625
150, 0, 0, 1246.969970703125
151, 0, 0, 1243.531005859375
152, 0, 0, 1224.436889648438
153, 0, 0, 1219.393310546875
154, 0, 0, 1213.21484375
155, 0, 0, 1206.151977539062
156, 0, 0, 1195.36328125
157, 0, 0, 1181.395263671875
158, 0, 0, 1169.277587890625
159, 0, 0, 1161.070922851562
160, 0, 0, 1155.839111328125
161, 0, 0, 1149.451293945312
162, 0, 0, 1135.80078125
163, 0, 0, 1126.617065429688
164, 0, 0, 1114.97265625
165, 0, 0, 1108.746459960938
166, 0, 0, 1107.006713867188
167, 0, 0, 1096.684692382812
168, 0, 0, 1093.013061523438
169, 0, 0, 1085.201538085938
170, 0, 0, 1076.715454101562
171, 0, 0, 1086.93212890625
172, 0, 0, 1068.739868164062
173, 0, 0, 1069.487426757812
174, 0, 0, 1060.728881835938
175, 0, 0, 1055.317626953125
176, 0, 0, 1051.88232421875
177, 0, 0, 1043.934326171875
178, 0, 0, 1033.521484375
179, 0, 0, 1026.27099609375
