# TOPAS Version: 3.3.p1
# Parameter File: Test.txt
# Results for scorer MLIC_Scorer
# Scored in component: MLIC
# X in 180 bins of 0.177778 cm
# Y in 1 bin  of 10 cm
# Z in 1 bin  of 10 cm
# EnergyDeposit ( MeV ) : Sum   
0, 0, 0, 0
1, 0, 0, 0
2, 0, 0, 0
3, 0, 0, 0
4, 0, 0, 0
5, 0, 0, 0
6, 0, 0, 0
7, 0, 0, 0
8, 0, 0, 0
9, 0, 0, 0
10, 0, 0, 0
11, 0, 0, 0
12, 0, 0, 0
13, 0, 0, 0
14, 0, 0, 0
15, 0, 0, 0
16, 0, 0, 0
17, 0, 0, 0
18, 0, 0, 0
19, 0, 0, 0
20, 0, 0, 0
21, 0, 0, 0
22, 0, 0, 0
23, 0, 0, 0
24, 0, 0, 0
25, 0, 0, 0
26, 0, 0, 0
27, 0, 0, 0
28, 0, 0, 0
29, 0, 0, 0
30, 0, 0, 0
31, 0, 0, 0
32, 0, 0, 0
33, 0, 0, 0
34, 0, 0, 0
35, 0, 0, 0
36, 0, 0, 0
37, 0, 0, 0
38, 0, 0, 0
39, 0, 0, 0
40, 0, 0, 0
41, 0, 0, 0
42, 0, 0, 0
43, 0, 0, 0
44, 0, 0, 0
45, 0, 0, 0
46, 0, 0, 0
47, 0, 0, 0
48, 0, 0, 0
49, 0, 0, 0
50, 0, 0, 0
51, 0, 0, 0
52, 0, 0, 0
53, 0, 0, 0
54, 0, 0, 0
55, 0, 0, 0
56, 0, 0, 0
57, 0, 0, 0
58, 0, 0, 0
59, 0, 0, 0
60, 0, 0, 0
61, 0, 0, 0
62, 0, 0, 0
63, 0, 0, 0
64, 0, 0, 0
65, 0, 0, 0
66, 0, 0, 0
67, 0, 0, 0
68, 0, 0, 0
69, 0, 0, 0
70, 0, 0, 0
71, 0, 0, 0
72, 0, 0, 0
73, 0, 0, 0
74, 0, 0, 0
75, 0, 0, 0
76, 0, 0, 0
77, 0, 0, 0
78, 0, 0, 0
79, 0, 0, 0
80, 0, 0, 0
81, 0, 0, 0
82, 0, 0, 0
83, 0, 0, 0
84, 0, 0, 0
85, 0, 0, 0
86, 0, 0, 0
87, 0, 0, 0
88, 0, 0, 0
89, 0, 0, 0
90, 0, 0, 0
91, 0, 0, 0
92, 0, 0, 0
93, 0, 0, 0
94, 0, 0, 0
95, 0, 0, 0
96, 0, 0, 0
97, 0, 0, 0
98, 0, 0, 0
99, 0, 0, 0
100, 0, 0, 0
101, 0, 0, 0
102, 0, 0, 0
103, 0, 0, 0
104, 0, 0, 0
105, 0, 0, 0
106, 0, 0, 0
107, 0, 0, 0
108, 0, 0, 0
109, 0, 0, 0
110, 0, 0, 0
111, 0, 0, 0
112, 0, 0, 0
113, 0, 0, 0
114, 0, 0, 0
115, 0, 0, 0
116, 0, 0, 0
117, 0, 0, 0
118, 0, 0, 0
119, 0, 0, 0
120, 0, 0, 0.004969378001987934
121, 0, 0, 0
122, 0, 0, 0.03809509426355362
123, 0, 0, 0
124, 0, 0, 0
125, 0, 0, 0
126, 0, 0, 0
127, 0, 0, 0
128, 0, 0, 0
129, 0, 0, 0
130, 0, 0, 0.02757229655981064
131, 0, 0, 0
132, 0, 0, 11.70578384399414
133, 0, 0, 25.23856163024902
134, 0, 0, 113.040641784668
135, 0, 0, 374.20263671875
136, 0, 0, 1281.21728515625
137, 0, 0, 2500.457763671875
138, 0, 0, 4006.216552734375
139, 0, 0, 4919.66796875
140, 0, 0, 4922.85302734375
141, 0, 0, 4625.8330078125
142, 0, 0, 4125.2060546875
143, 0, 0, 3627.822021484375
144, 0, 0, 3255.731689453125
145, 0, 0, 2986.326904296875
146, 0, 0, 2779.705810546875
147, 0, 0, 2623.71484375
148, 0, 0, 2491.0927734375
149, 0, 0, 2384.682373046875
150, 0, 0, 2286.594482421875
151, 0, 0, 2205.892333984375
152, 0, 0, 2130.859619140625
153, 0, 0, 2064.1728515625
154, 0, 0, 2003.976196289062
155, 0, 0, 1950.979858398438
156, 0, 0, 1901.690185546875
157, 0, 0, 1851.995849609375
158, 0, 0, 1813.553466796875
159, 0, 0, 1773.40380859375
160, 0, 0, 1743.280395507812
161, 0, 0, 1703.544555664062
162, 0, 0, 1682.904907226562
163, 0, 0, 1649.51611328125
164, 0, 0, 1613.294311523438
165, 0, 0, 1585.8740234375
166, 0, 0, 1568.597900390625
167, 0, 0, 1535.052490234375
168, 0, 0, 1521.88427734375
169, 0, 0, 1501.961669921875
170, 0, 0, 1478.8193359375
171, 0, 0, 1457.451416015625
172, 0, 0, 1431.9189453125
173, 0, 0, 1418.03955078125
174, 0, 0, 1399.162963867188
175, 0, 0, 1387.344848632812
176, 0, 0, 1367.853271484375
177, 0, 0, 1355.362548828125
178, 0, 0, 1339.658325195312
179, 0, 0, 1321.540649414062
