# TOPAS Version: 3.3.p1
# Parameter File: Test.txt
# Results for scorer MLIC_Scorer
# Scored in component: MLIC
# X in 180 bins of 0.177778 cm
# Y in 1 bin  of 10 cm
# Z in 1 bin  of 10 cm
# EnergyDeposit ( MeV ) : Sum   
0, 0, 0, 0
1, 0, 0, 0
2, 0, 0, 0
3, 0, 0, 0
4, 0, 0, 0
5, 0, 0, 0
6, 0, 0, 0
7, 0, 0, 0
8, 0, 0, 0
9, 0, 0, 0
10, 0, 0, 0
11, 0, 0, 0
12, 0, 0, 0
13, 0, 0, 0.003524236381053925
14, 0, 0, 0
15, 0, 0, 0
16, 0, 0, 0
17, 0, 0, 0.0009190114215016365
18, 0, 0, 0
19, 0, 0, 0
20, 0, 0, 0
21, 0, 0, 0
22, 0, 0, 0
23, 0, 0, 0
24, 0, 0, 0
25, 0, 0, 0
26, 0, 0, 0
27, 0, 0, 0
28, 0, 0, 0
29, 0, 0, 0
30, 0, 0, 0
31, 0, 0, 0
32, 0, 0, 0
33, 0, 0, 0
34, 0, 0, 0
35, 0, 0, 0
36, 0, 0, 0
37, 0, 0, 0
38, 0, 0, 0
39, 0, 0, 0
40, 0, 0, 0
41, 0, 0, 0
42, 0, 0, 0
43, 0, 0, 0.0376526303589344
44, 0, 0, 0
45, 0, 0, 0
46, 0, 0, 0
47, 0, 0, 0
48, 0, 0, 0
49, 0, 0, 0
50, 0, 0, 0
51, 0, 0, 0
52, 0, 0, 0
53, 0, 0, 0
54, 0, 0, 0
55, 0, 0, 0
56, 0, 0, 0.0001427704410161823
57, 0, 0, 0
58, 0, 0, 0
59, 0, 0, 0
60, 0, 0, 0
61, 0, 0, 0
62, 0, 0, 0
63, 0, 0, 0
64, 0, 0, 0
65, 0, 0, 0
66, 0, 0, 0
67, 0, 0, 0
68, 0, 0, 0
69, 0, 0, 0
70, 0, 0, 0
71, 0, 0, 0
72, 0, 0, 0
73, 0, 0, 0
74, 0, 0, 0
75, 0, 0, 0
76, 0, 0, 0
77, 0, 0, 0
78, 0, 0, 0
79, 0, 0, 0
80, 0, 0, 0
81, 0, 0, 0
82, 0, 0, 0
83, 0, 0, 0
84, 0, 0, 0
85, 0, 0, 0
86, 0, 0, 0
87, 0, 0, 0
88, 0, 0, 0
89, 0, 0, 0
90, 0, 0, 0
91, 0, 0, 0
92, 0, 0, 0
93, 0, 0, 0
94, 0, 0, 0
95, 0, 0, 0
96, 0, 0, 0
97, 0, 0, 0
98, 0, 0, 0
99, 0, 0, 0
100, 0, 0, 0
101, 0, 0, 0
102, 0, 0, 0
103, 0, 0, 0
104, 0, 0, 0
105, 0, 0, 6.284476757049561
106, 0, 0, 23.25811195373535
107, 0, 0, 98.90284729003906
108, 0, 0, 242.0646820068359
109, 0, 0, 667.3422241210938
110, 0, 0, 1702.982177734375
111, 0, 0, 2908.736572265625
112, 0, 0, 4042.682861328125
113, 0, 0, 4905.9443359375
114, 0, 0, 5007.2314453125
115, 0, 0, 4464.99169921875
116, 0, 0, 3960.59033203125
117, 0, 0, 3511.770263671875
118, 0, 0, 3159.90087890625
119, 0, 0, 2917.3994140625
120, 0, 0, 2728.423828125
121, 0, 0, 2584.94091796875
122, 0, 0, 2453.833984375
123, 0, 0, 2345.907958984375
124, 0, 0, 2255.37548828125
125, 0, 0, 2184.09033203125
126, 0, 0, 2105.612548828125
127, 0, 0, 2048.497802734375
128, 0, 0, 1978.229614257812
129, 0, 0, 1939.641967773438
130, 0, 0, 1885.384643554688
131, 0, 0, 1842.60546875
132, 0, 0, 1801.649658203125
133, 0, 0, 1758.536254882812
134, 0, 0, 1721.004760742188
135, 0, 0, 1687.264282226562
136, 0, 0, 1665.910400390625
137, 0, 0, 1627.907470703125
138, 0, 0, 1606.36962890625
139, 0, 0, 1583.571655273438
140, 0, 0, 1551.875
141, 0, 0, 1535.541748046875
142, 0, 0, 1516.175048828125
143, 0, 0, 1491.96728515625
144, 0, 0, 1469.572875976562
145, 0, 0, 1450.864135742188
146, 0, 0, 1429.897705078125
147, 0, 0, 1408.72265625
148, 0, 0, 1396.613891601562
149, 0, 0, 1379.981323242188
150, 0, 0, 1362.497802734375
151, 0, 0, 1348.1015625
152, 0, 0, 1336.297485351562
153, 0, 0, 1323.763305664062
154, 0, 0, 1308.165771484375
155, 0, 0, 1296.849731445312
156, 0, 0, 1281.2802734375
157, 0, 0, 1269.900268554688
158, 0, 0, 1263.58837890625
159, 0, 0, 1250.296142578125
160, 0, 0, 1241.14404296875
161, 0, 0, 1227.95654296875
162, 0, 0, 1215.665405273438
163, 0, 0, 1210.995239257812
164, 0, 0, 1202.336547851562
165, 0, 0, 1184.494995117188
166, 0, 0, 1180.928466796875
167, 0, 0, 1167.07373046875
168, 0, 0, 1163.260009765625
169, 0, 0, 1150.494750976562
170, 0, 0, 1147.822143554688
171, 0, 0, 1130.8740234375
172, 0, 0, 1124.268920898438
173, 0, 0, 1120.565551757812
174, 0, 0, 1118.433715820312
175, 0, 0, 1115.231079101562
176, 0, 0, 1101.628051757812
177, 0, 0, 1090.716918945312
178, 0, 0, 1086.813598632812
179, 0, 0, 1076.52392578125
