# TOPAS Version: 3.3.p1
# Parameter File: Test.txt
# Results for scorer MLIC_Scorer
# Scored in component: MLIC
# X in 180 bins of 0.177778 cm
# Y in 1 bin  of 10 cm
# Z in 1 bin  of 10 cm
# EnergyDeposit ( MeV ) : Sum   
0, 0, 0, 0
1, 0, 0, 0
2, 0, 0, 0
3, 0, 0, 0
4, 0, 0, 0
5, 0, 0, 0
6, 0, 0, 0
7, 0, 0, 0
8, 0, 0, 0
9, 0, 0, 0
10, 0, 0, 0
11, 0, 0, 0
12, 0, 0, 0
13, 0, 0, 0
14, 0, 0, 0
15, 0, 0, 0
16, 0, 0, 0
17, 0, 0, 0
18, 0, 0, 0
19, 0, 0, 0
20, 0, 0, 0
21, 0, 0, 0
22, 0, 0, 0
23, 0, 0, 0
24, 0, 0, 0
25, 0, 0, 0
26, 0, 0, 0
27, 0, 0, 0
28, 0, 0, 0
29, 0, 0, 0
30, 0, 0, 0
31, 0, 0, 0
32, 0, 0, 0
33, 0, 0, 0
34, 0, 0, 0
35, 0, 0, 0
36, 0, 0, 0
37, 0, 0, 0
38, 0, 0, 0
39, 0, 0, 0.04969567805528641
40, 0, 0, 0
41, 0, 0, 0
42, 0, 0, 0
43, 0, 0, 0
44, 0, 0, 0
45, 0, 0, 0
46, 0, 0, 0
47, 0, 0, 0
48, 0, 0, 0
49, 0, 0, 0
50, 0, 0, 0
51, 0, 0, 0
52, 0, 0, 0
53, 0, 0, 0
54, 0, 0, 0
55, 0, 0, 0
56, 0, 0, 0
57, 0, 0, 0
58, 0, 0, 0
59, 0, 0, 0
60, 0, 0, 0
61, 0, 0, 0
62, 0, 0, 0
63, 0, 0, 0
64, 0, 0, 0.005146372597664595
65, 0, 0, 0
66, 0, 0, 0
67, 0, 0, 0
68, 0, 0, 0
69, 0, 0, 0
70, 0, 0, 0
71, 0, 0, 0
72, 0, 0, 0
73, 0, 0, 0
74, 0, 0, 0
75, 0, 0, 0
76, 0, 0, 0
77, 0, 0, 0
78, 0, 0, 0
79, 0, 0, 0
80, 0, 0, 0
81, 0, 0, 0
82, 0, 0, 0
83, 0, 0, 0
84, 0, 0, 0
85, 0, 0, 0
86, 0, 0, 0
87, 0, 0, 0
88, 0, 0, 0.02411718294024467
89, 0, 0, 8.893866470316425e-05
90, 0, 0, 0
91, 0, 0, 0.03158465027809143
92, 0, 0, 0
93, 0, 0, 0
94, 0, 0, 0
95, 0, 0, 3.3542160987854
96, 0, 0, 50.28692626953125
97, 0, 0, 241.1435394287109
98, 0, 0, 919.8389282226562
99, 0, 0, 2122.714111328125
100, 0, 0, 3300.998779296875
101, 0, 0, 4539.080078125
102, 0, 0, 5067.74951171875
103, 0, 0, 4810.8828125
104, 0, 0, 4395.05517578125
105, 0, 0, 3806.530517578125
106, 0, 0, 3367.682861328125
107, 0, 0, 3072.88330078125
108, 0, 0, 2843.2099609375
109, 0, 0, 2676.924072265625
110, 0, 0, 2536.517822265625
111, 0, 0, 2418.61181640625
112, 0, 0, 2318.092529296875
113, 0, 0, 2228.4716796875
114, 0, 0, 2152.774169921875
115, 0, 0, 2093.513916015625
116, 0, 0, 2027.24169921875
117, 0, 0, 1974.466186523438
118, 0, 0, 1921.291870117188
119, 0, 0, 1873.214233398438
120, 0, 0, 1829.2890625
121, 0, 0, 1795.773071289062
122, 0, 0, 1752.370727539062
123, 0, 0, 1711.848266601562
124, 0, 0, 1687.04052734375
125, 0, 0, 1654.311401367188
126, 0, 0, 1623.11962890625
127, 0, 0, 1598.1640625
128, 0, 0, 1574.315551757812
129, 0, 0, 1545.7021484375
130, 0, 0, 1519.674926757812
131, 0, 0, 1502.0234375
132, 0, 0, 1484.398315429688
133, 0, 0, 1456.551513671875
134, 0, 0, 1443.811645507812
135, 0, 0, 1423.52099609375
136, 0, 0, 1405.164672851562
137, 0, 0, 1388.7001953125
138, 0, 0, 1370.203857421875
139, 0, 0, 1356.628784179688
140, 0, 0, 1346.450317382812
141, 0, 0, 1330.526489257812
142, 0, 0, 1312.156005859375
143, 0, 0, 1303.287353515625
144, 0, 0, 1292.957397460938
145, 0, 0, 1280.099731445312
146, 0, 0, 1262.62548828125
147, 0, 0, 1256.49072265625
148, 0, 0, 1246.406494140625
149, 0, 0, 1235.1376953125
150, 0, 0, 1210.287475585938
151, 0, 0, 1214.302734375
152, 0, 0, 1204.1123046875
153, 0, 0, 1188.535888671875
154, 0, 0, 1178.922607421875
155, 0, 0, 1176.05224609375
156, 0, 0, 1172.568481445312
157, 0, 0, 1157.422119140625
158, 0, 0, 1150.216552734375
159, 0, 0, 1145.5107421875
160, 0, 0, 1123.288940429688
161, 0, 0, 1126.347900390625
162, 0, 0, 1113.323852539062
163, 0, 0, 1106.70166015625
164, 0, 0, 1103.489990234375
165, 0, 0, 1099.288818359375
166, 0, 0, 1090.982421875
167, 0, 0, 1083.652954101562
168, 0, 0, 1076.783935546875
169, 0, 0, 1069.201293945312
170, 0, 0, 1066.510986328125
171, 0, 0, 1050.212890625
172, 0, 0, 1050.8857421875
173, 0, 0, 1052.3916015625
174, 0, 0, 1038.669677734375
175, 0, 0, 1037.620361328125
176, 0, 0, 1027.27880859375
177, 0, 0, 1013.09521484375
178, 0, 0, 1016.837585449219
179, 0, 0, 1011.974975585938
