# TOPAS Version: 3.3.p1
# Parameter File: Test.txt
# Results for scorer MLIC_Scorer
# Scored in component: MLIC
# X in 180 bins of 0.177778 cm
# Y in 1 bin  of 10 cm
# Z in 1 bin  of 10 cm
# EnergyDeposit ( MeV ) : Sum   
0, 0, 0, 0
1, 0, 0, 0
2, 0, 0, 0
3, 0, 0, 0
4, 0, 0, 0
5, 0, 0, 0
6, 0, 0, 0
7, 0, 0, 0
8, 0, 0, 0
9, 0, 0, 0
10, 0, 0, 0
11, 0, 0, 0
12, 0, 0, 0
13, 0, 0, 0
14, 0, 0, 0.005674307700246572
15, 0, 0, 0
16, 0, 0, 0
17, 0, 0, 0
18, 0, 0, 0
19, 0, 0, 0
20, 0, 0, 0
21, 0, 0, 0
22, 0, 0, 0
23, 0, 0, 0
24, 0, 0, 0
25, 0, 0, 0
26, 0, 0, 0
27, 0, 0, 24.59810447692871
28, 0, 0, 200.1977844238281
29, 0, 0, 704.0008544921875
30, 0, 0, 1556.779052734375
31, 0, 0, 3069.852783203125
32, 0, 0, 4407.880859375
33, 0, 0, 5003.46044921875
34, 0, 0, 4919.57568359375
35, 0, 0, 4414.6748046875
36, 0, 0, 3909.97412109375
37, 0, 0, 3487.96728515625
38, 0, 0, 3139.52783203125
39, 0, 0, 2904.44189453125
40, 0, 0, 2725.852783203125
41, 0, 0, 2574.92041015625
42, 0, 0, 2454.85546875
43, 0, 0, 2348.89453125
44, 0, 0, 2257.890625
45, 0, 0, 2172.45068359375
46, 0, 0, 2113.04931640625
47, 0, 0, 2041.595703125
48, 0, 0, 1988.616577148438
49, 0, 0, 1935.488525390625
50, 0, 0, 1883.991577148438
51, 0, 0, 1836.451538085938
52, 0, 0, 1798.325073242188
53, 0, 0, 1763.621215820312
54, 0, 0, 1718.433227539062
55, 0, 0, 1696.6171875
56, 0, 0, 1660.715087890625
57, 0, 0, 1629.6669921875
58, 0, 0, 1599.905395507812
59, 0, 0, 1583.616577148438
60, 0, 0, 1556.96630859375
61, 0, 0, 1530.6416015625
62, 0, 0, 1510.576416015625
63, 0, 0, 1487.387939453125
64, 0, 0, 1468.21923828125
65, 0, 0, 1445.185791015625
66, 0, 0, 1427.806518554688
67, 0, 0, 1406.606689453125
68, 0, 0, 1398.64306640625
69, 0, 0, 1382.776733398438
70, 0, 0, 1371.456420898438
71, 0, 0, 1346.798461914062
72, 0, 0, 1333.81884765625
73, 0, 0, 1320.07080078125
74, 0, 0, 1310.963989257812
75, 0, 0, 1298.623657226562
76, 0, 0, 1286.08837890625
77, 0, 0, 1274.645385742188
78, 0, 0, 1257.5234375
79, 0, 0, 1246.388671875
80, 0, 0, 1241.425048828125
81, 0, 0, 1221.923217773438
82, 0, 0, 1221.161987304688
83, 0, 0, 1204.944213867188
84, 0, 0, 1199.763305664062
85, 0, 0, 1180.8359375
86, 0, 0, 1181.930053710938
87, 0, 0, 1170.025146484375
88, 0, 0, 1165.633422851562
89, 0, 0, 1150.563232421875
90, 0, 0, 1144.083618164062
91, 0, 0, 1131.345825195312
92, 0, 0, 1126.827270507812
93, 0, 0, 1126.331909179688
94, 0, 0, 1121.171875
95, 0, 0, 1103.536865234375
96, 0, 0, 1097.001342773438
97, 0, 0, 1093.623779296875
98, 0, 0, 1083.5498046875
99, 0, 0, 1073.576904296875
100, 0, 0, 1072.822875976562
101, 0, 0, 1066.375854492188
102, 0, 0, 1062.504638671875
103, 0, 0, 1045.732666015625
104, 0, 0, 1061.5732421875
105, 0, 0, 1045.55810546875
106, 0, 0, 1040.741943359375
107, 0, 0, 1029.194091796875
108, 0, 0, 1022.378845214844
109, 0, 0, 1008.000366210938
110, 0, 0, 1012.714965820312
111, 0, 0, 1006.402893066406
112, 0, 0, 999.4619750976562
113, 0, 0, 1004.458129882812
114, 0, 0, 987.8040161132812
115, 0, 0, 995.9171142578125
116, 0, 0, 984.0869140625
117, 0, 0, 986.0523071289062
118, 0, 0, 969.024169921875
119, 0, 0, 972.0799560546875
120, 0, 0, 968.1485595703125
121, 0, 0, 960.609130859375
122, 0, 0, 950.672607421875
123, 0, 0, 954.4119873046875
124, 0, 0, 946.7554931640625
125, 0, 0, 944.665283203125
126, 0, 0, 939.6154174804688
127, 0, 0, 940.5491943359375
128, 0, 0, 937.5956420898438
129, 0, 0, 926.246337890625
130, 0, 0, 923.51904296875
131, 0, 0, 923.5496826171875
132, 0, 0, 913.0511474609375
133, 0, 0, 917.1097412109375
134, 0, 0, 906.8473510742188
135, 0, 0, 909.8438720703125
136, 0, 0, 906.2588500976562
137, 0, 0, 902.7940673828125
138, 0, 0, 903.2396240234375
139, 0, 0, 891.4336547851562
140, 0, 0, 890.3665771484375
141, 0, 0, 885.39208984375
142, 0, 0, 884.7046508789062
143, 0, 0, 882.187255859375
144, 0, 0, 878.178955078125
145, 0, 0, 881.1860961914062
146, 0, 0, 869.0369873046875
147, 0, 0, 872.1361694335938
148, 0, 0, 868.2154541015625
149, 0, 0, 865.1885375976562
150, 0, 0, 859.6906127929688
151, 0, 0, 864.2975463867188
152, 0, 0, 857.2659301757812
153, 0, 0, 862.6526489257812
154, 0, 0, 851.8025512695312
155, 0, 0, 853.0963134765625
156, 0, 0, 845.6176147460938
157, 0, 0, 838.7098388671875
158, 0, 0, 839.2422485351562
159, 0, 0, 835.1055297851562
160, 0, 0, 838.5588989257812
161, 0, 0, 835.6174926757812
162, 0, 0, 837.4413452148438
163, 0, 0, 819.4819946289062
164, 0, 0, 827.2754516601562
165, 0, 0, 826.2540283203125
166, 0, 0, 823.1809692382812
167, 0, 0, 823.3562622070312
168, 0, 0, 808.3760986328125
169, 0, 0, 819.4735107421875
170, 0, 0, 813.0399169921875
171, 0, 0, 808.340576171875
172, 0, 0, 809.444091796875
173, 0, 0, 802.4019775390625
174, 0, 0, 802.9560546875
175, 0, 0, 797.607666015625
176, 0, 0, 805.429443359375
177, 0, 0, 792.8037719726562
178, 0, 0, 798.634033203125
179, 0, 0, 796.1011352539062
