# TOPAS Version: 3.3.p1
# Parameter File: Test.txt
# Results for scorer MLIC_Scorer
# Scored in component: MLIC
# X in 180 bins of 0.183333 cm
# Y in 1 bin  of 10 cm
# Z in 1 bin  of 10 cm
# EnergyDeposit ( MeV ) : Sum   
0, 0, 0, 0
1, 0, 0, 0
2, 0, 0, 0
3, 0, 0, 0
4, 0, 0, 0
5, 0, 0, 0
6, 0, 0, 0
7, 0, 0, 0
8, 0, 0, 0
9, 0, 0, 0
10, 0, 0, 0
11, 0, 0, 0
12, 0, 0, 0
13, 0, 0, 0
14, 0, 0, 0
15, 0, 0, 0
16, 0, 0, 0
17, 0, 0, 0
18, 0, 0, 0
19, 0, 0, 0
20, 0, 0, 0
21, 0, 0, 0
22, 0, 0, 0
23, 0, 0, 0
24, 0, 0, 0
25, 0, 0, 0
26, 0, 0, 0
27, 0, 0, 0
28, 0, 0, 0
29, 0, 0, 0
30, 0, 0, 0
31, 0, 0, 0
32, 0, 0, 0
33, 0, 0, 18.49335479736328
34, 0, 0, 93.51445770263672
35, 0, 0, 349.4394226074219
36, 0, 0, 1029.257080078125
37, 0, 0, 2111.099609375
38, 0, 0, 3680.184326171875
39, 0, 0, 4887.00244140625
40, 0, 0, 5278.27685546875
41, 0, 0, 4871.97021484375
42, 0, 0, 4306.51708984375
43, 0, 0, 3752.486328125
44, 0, 0, 3351.15966796875
45, 0, 0, 3063.070068359375
46, 0, 0, 2850.302001953125
47, 0, 0, 2689.586181640625
48, 0, 0, 2553.8232421875
49, 0, 0, 2444.082275390625
50, 0, 0, 2338.30712890625
51, 0, 0, 2254.081787109375
52, 0, 0, 2173.024169921875
53, 0, 0, 2112.1826171875
54, 0, 0, 2051.41748046875
55, 0, 0, 1989.075927734375
56, 0, 0, 1948.716918945312
57, 0, 0, 1891.467163085938
58, 0, 0, 1843.280883789062
59, 0, 0, 1816.036376953125
60, 0, 0, 1778.949462890625
61, 0, 0, 1744.521362304688
62, 0, 0, 1703.7919921875
63, 0, 0, 1673.871948242188
64, 0, 0, 1655.754028320312
65, 0, 0, 1617.775146484375
66, 0, 0, 1592.424194335938
67, 0, 0, 1568.679565429688
68, 0, 0, 1541.461547851562
69, 0, 0, 1522.415161132812
70, 0, 0, 1504.352905273438
71, 0, 0, 1489.72802734375
72, 0, 0, 1466.843383789062
73, 0, 0, 1446.900756835938
74, 0, 0, 1433.129028320312
75, 0, 0, 1415.54248046875
76, 0, 0, 1402.096801757812
77, 0, 0, 1387.1572265625
78, 0, 0, 1373.425048828125
79, 0, 0, 1351.60986328125
80, 0, 0, 1337.576171875
81, 0, 0, 1320.031616210938
82, 0, 0, 1312.69287109375
83, 0, 0, 1294.729614257812
84, 0, 0, 1295.163940429688
85, 0, 0, 1278.83203125
86, 0, 0, 1267.30419921875
87, 0, 0, 1256.922119140625
88, 0, 0, 1242.538208007812
89, 0, 0, 1231.463134765625
90, 0, 0, 1229.051147460938
91, 0, 0, 1208.604736328125
92, 0, 0, 1203.188232421875
93, 0, 0, 1195.751953125
94, 0, 0, 1184.428466796875
95, 0, 0, 1183.776977539062
96, 0, 0, 1171.833129882812
97, 0, 0, 1162.78173828125
98, 0, 0, 1152.975219726562
99, 0, 0, 1150.103149414062
100, 0, 0, 1156.64990234375
101, 0, 0, 1124.689697265625
102, 0, 0, 1126.656372070312
103, 0, 0, 1114.11865234375
104, 0, 0, 1104.552368164062
105, 0, 0, 1107.535766601562
106, 0, 0, 1097.840454101562
107, 0, 0, 1086.693603515625
108, 0, 0, 1080.260986328125
109, 0, 0, 1072.111938476562
110, 0, 0, 1074.75146484375
111, 0, 0, 1061.441162109375
112, 0, 0, 1060.52099609375
113, 0, 0, 1053.906372070312
114, 0, 0, 1048.415405273438
115, 0, 0, 1045.155517578125
116, 0, 0, 1041.12109375
117, 0, 0, 1030.346923828125
118, 0, 0, 1032.7578125
119, 0, 0, 1021.352783203125
120, 0, 0, 1020.432434082031
121, 0, 0, 1019.277404785156
122, 0, 0, 1003.649963378906
123, 0, 0, 990.2825927734375
124, 0, 0, 994.9632568359375
125, 0, 0, 990.4144287109375
126, 0, 0, 985.102294921875
127, 0, 0, 982.1133422851562
128, 0, 0, 970.46923828125
129, 0, 0, 981.40283203125
130, 0, 0, 966.3161010742188
131, 0, 0, 968.549072265625
132, 0, 0, 963.5125732421875
133, 0, 0, 956.4137573242188
134, 0, 0, 956.9033813476562
135, 0, 0, 945.1964111328125
136, 0, 0, 947.460693359375
137, 0, 0, 944.4415893554688
138, 0, 0, 945.2815551757812
139, 0, 0, 936.1006469726562
140, 0, 0, 935.1536865234375
141, 0, 0, 922.731689453125
142, 0, 0, 927.5408935546875
143, 0, 0, 926.794677734375
144, 0, 0, 917.9746704101562
145, 0, 0, 914.2081298828125
146, 0, 0, 913.635498046875
147, 0, 0, 912.5900268554688
148, 0, 0, 906.3610229492188
149, 0, 0, 912.6561889648438
150, 0, 0, 898.4442138671875
151, 0, 0, 893.7308349609375
152, 0, 0, 895.3547973632812
153, 0, 0, 896.4575805664062
154, 0, 0, 890.3707275390625
155, 0, 0, 890.3995361328125
156, 0, 0, 887.28466796875
157, 0, 0, 879.0576171875
158, 0, 0, 882.47607421875
159, 0, 0, 868.7368774414062
160, 0, 0, 869.3277587890625
161, 0, 0, 873.0982666015625
162, 0, 0, 866.6904907226562
163, 0, 0, 858.2327270507812
164, 0, 0, 861.442626953125
165, 0, 0, 856.1943359375
166, 0, 0, 848.4194946289062
167, 0, 0, 847.3853149414062
168, 0, 0, 847.98291015625
169, 0, 0, 856.0635375976562
170, 0, 0, 840.13232421875
171, 0, 0, 837.3948364257812
172, 0, 0, 842.25
173, 0, 0, 832.9404296875
174, 0, 0, 838.3203125
175, 0, 0, 836.60107421875
176, 0, 0, 828.6815185546875
177, 0, 0, 834.358154296875
178, 0, 0, 827.2186889648438
179, 0, 0, 822.4849243164062
