# TOPAS Version: 3.3.p1
# Parameter File: Test.txt
# Results for scorer MLIC_Scorer
# Scored in component: MLIC
# X in 180 bins of 0.177778 cm
# Y in 1 bin  of 10 cm
# Z in 1 bin  of 10 cm
# EnergyDeposit ( MeV ) : Sum   
0, 0, 0, 0
1, 0, 0, 0
2, 0, 0, 0
3, 0, 0, 3.649681806564331
4, 0, 0, 32.03271102905273
5, 0, 0, 118.4313278198242
6, 0, 0, 405.5962829589844
7, 0, 0, 1001.907104492188
8, 0, 0, 2233.875244140625
9, 0, 0, 3738.204833984375
10, 0, 0, 4656.31640625
11, 0, 0, 5004.775390625
12, 0, 0, 4681.2275390625
13, 0, 0, 4230.51171875
14, 0, 0, 3697.9111328125
15, 0, 0, 3341.79345703125
16, 0, 0, 3041.2568359375
17, 0, 0, 2824.47265625
18, 0, 0, 2658.601318359375
19, 0, 0, 2515.201171875
20, 0, 0, 2401.635986328125
21, 0, 0, 2297.46826171875
22, 0, 0, 2215.0556640625
23, 0, 0, 2145.82568359375
24, 0, 0, 2063.0087890625
25, 0, 0, 2015.887084960938
26, 0, 0, 1963.027465820312
27, 0, 0, 1907.341796875
28, 0, 0, 1864.877197265625
29, 0, 0, 1825.029296875
30, 0, 0, 1784.380004882812
31, 0, 0, 1745.124755859375
32, 0, 0, 1708.903442382812
33, 0, 0, 1679.533081054688
34, 0, 0, 1643.765991210938
35, 0, 0, 1622.365356445312
36, 0, 0, 1598.78125
37, 0, 0, 1563.284301757812
38, 0, 0, 1540.9716796875
39, 0, 0, 1518.290283203125
40, 0, 0, 1499.418212890625
41, 0, 0, 1479.011108398438
42, 0, 0, 1456.597778320312
43, 0, 0, 1447.580444335938
44, 0, 0, 1420.425170898438
45, 0, 0, 1405.7880859375
46, 0, 0, 1394.351196289062
47, 0, 0, 1369.70947265625
48, 0, 0, 1358.873413085938
49, 0, 0, 1336.899536132812
50, 0, 0, 1331.03466796875
51, 0, 0, 1314.574340820312
52, 0, 0, 1298.6533203125
53, 0, 0, 1298.394409179688
54, 0, 0, 1278.13134765625
55, 0, 0, 1261.136962890625
56, 0, 0, 1247.404418945312
57, 0, 0, 1248.115356445312
58, 0, 0, 1234.77880859375
59, 0, 0, 1224.862548828125
60, 0, 0, 1218.287841796875
61, 0, 0, 1202.000732421875
62, 0, 0, 1186.290405273438
63, 0, 0, 1181.904418945312
64, 0, 0, 1177.79833984375
65, 0, 0, 1166.173950195312
66, 0, 0, 1153.60400390625
67, 0, 0, 1150.525268554688
68, 0, 0, 1142.305419921875
69, 0, 0, 1134.753295898438
70, 0, 0, 1128.16357421875
71, 0, 0, 1117.740234375
72, 0, 0, 1106.127319335938
73, 0, 0, 1100.492309570312
74, 0, 0, 1085.143188476562
75, 0, 0, 1093.5302734375
76, 0, 0, 1082.213134765625
77, 0, 0, 1077.37255859375
78, 0, 0, 1071.576171875
79, 0, 0, 1062.594848632812
80, 0, 0, 1057.32373046875
81, 0, 0, 1045.663208007812
82, 0, 0, 1043.021850585938
83, 0, 0, 1044.218017578125
84, 0, 0, 1038.21728515625
85, 0, 0, 1031.603271484375
86, 0, 0, 1023.246826171875
87, 0, 0, 1011.774597167969
88, 0, 0, 1008.029663085938
89, 0, 0, 1009.058288574219
90, 0, 0, 1006.265991210938
91, 0, 0, 1000.131713867188
92, 0, 0, 995.6201171875
93, 0, 0, 994.3359985351562
94, 0, 0, 984.5220947265625
95, 0, 0, 975.6113891601562
96, 0, 0, 976.8411254882812
97, 0, 0, 969.2047729492188
98, 0, 0, 966.247314453125
99, 0, 0, 957.4111938476562
100, 0, 0, 954.9201049804688
101, 0, 0, 946.432861328125
102, 0, 0, 951.5679321289062
103, 0, 0, 944.9530029296875
104, 0, 0, 937.9219360351562
105, 0, 0, 935.8692626953125
106, 0, 0, 930.7597045898438
107, 0, 0, 931.2764282226562
108, 0, 0, 925.1954345703125
109, 0, 0, 920.5986938476562
110, 0, 0, 914.6551513671875
111, 0, 0, 915.8352661132812
112, 0, 0, 922.1478881835938
113, 0, 0, 912.944091796875
114, 0, 0, 906.2021484375
115, 0, 0, 896.8342895507812
116, 0, 0, 894.2069091796875
117, 0, 0, 895.177978515625
118, 0, 0, 889.1144409179688
119, 0, 0, 887.748291015625
120, 0, 0, 881.3814697265625
121, 0, 0, 873.7548828125
122, 0, 0, 877.2644653320312
123, 0, 0, 870.6209716796875
124, 0, 0, 877.9171752929688
125, 0, 0, 863.9108276367188
126, 0, 0, 873.0234985351562
127, 0, 0, 865.3063354492188
128, 0, 0, 867.7276000976562
129, 0, 0, 868.1174926757812
130, 0, 0, 857.0596923828125
131, 0, 0, 862.3079223632812
132, 0, 0, 854.3795776367188
133, 0, 0, 851.0159301757812
134, 0, 0, 848.430908203125
135, 0, 0, 841.2483520507812
136, 0, 0, 843.7498168945312
137, 0, 0, 845.1825561523438
138, 0, 0, 832.9998779296875
139, 0, 0, 831.6640625
140, 0, 0, 830.9232177734375
141, 0, 0, 825.1373901367188
142, 0, 0, 828.7538452148438
143, 0, 0, 819.8915405273438
144, 0, 0, 823.19384765625
145, 0, 0, 824.9924926757812
146, 0, 0, 814.2276000976562
147, 0, 0, 817.597412109375
148, 0, 0, 810.5218505859375
149, 0, 0, 808.7382202148438
150, 0, 0, 807.938720703125
151, 0, 0, 811.365234375
152, 0, 0, 801.1873168945312
153, 0, 0, 795.7251586914062
154, 0, 0, 798.8060302734375
155, 0, 0, 795.8776245117188
156, 0, 0, 800.8826904296875
157, 0, 0, 790.2635498046875
158, 0, 0, 785.87353515625
159, 0, 0, 787.6181640625
160, 0, 0, 779.1165771484375
161, 0, 0, 783.5661010742188
162, 0, 0, 778.58642578125
163, 0, 0, 773.6862182617188
164, 0, 0, 776.218017578125
165, 0, 0, 778.639892578125
166, 0, 0, 779.7290649414062
167, 0, 0, 772.3484497070312
168, 0, 0, 771.4420776367188
169, 0, 0, 764.9649047851562
170, 0, 0, 770.8342895507812
171, 0, 0, 766.1292114257812
172, 0, 0, 767.4254150390625
173, 0, 0, 758.7178955078125
174, 0, 0, 761.9304809570312
175, 0, 0, 761.5617065429688
176, 0, 0, 760.231201171875
177, 0, 0, 760.28564453125
178, 0, 0, 756.5617065429688
179, 0, 0, 753.3460693359375
