# TOPAS Version: 3.3.p1
# Parameter File: Test.txt
# Results for scorer MLIC_Scorer
# Scored in component: MLIC
# X in 180 bins of 0.177778 cm
# Y in 1 bin  of 10 cm
# Z in 1 bin  of 10 cm
# EnergyDeposit ( MeV ) : Sum   
0, 0, 0, 0
1, 0, 0, 0
2, 0, 0, 0
3, 0, 0, 0
4, 0, 0, 0
5, 0, 0, 0
6, 0, 0, 0
7, 0, 0, 0
8, 0, 0, 0
9, 0, 0, 0
10, 0, 0, 0
11, 0, 0, 0
12, 0, 0, 0
13, 0, 0, 0
14, 0, 0, 0
15, 0, 0, 0
16, 0, 0, 0
17, 0, 0, 0
18, 0, 0, 0
19, 0, 0, 0
20, 0, 0, 0
21, 0, 0, 0
22, 0, 0, 0
23, 0, 0, 0
24, 0, 0, 0
25, 0, 0, 0
26, 0, 0, 0
27, 0, 0, 0
28, 0, 0, 0
29, 0, 0, 0
30, 0, 0, 0
31, 0, 0, 0
32, 0, 0, 6.222611904144287
33, 0, 0, 48.25570678710938
34, 0, 0, 170.4086761474609
35, 0, 0, 517.8013916015625
36, 0, 0, 1395.671752929688
37, 0, 0, 2579.80712890625
38, 0, 0, 3823.17236328125
39, 0, 0, 4841.033203125
40, 0, 0, 4857.87353515625
41, 0, 0, 4641.390625
42, 0, 0, 4128.283203125
43, 0, 0, 3607.28515625
44, 0, 0, 3247.02978515625
45, 0, 0, 2986.6044921875
46, 0, 0, 2771.687255859375
47, 0, 0, 2622.712890625
48, 0, 0, 2489.012939453125
49, 0, 0, 2383.959228515625
50, 0, 0, 2293.468505859375
51, 0, 0, 2202.716552734375
52, 0, 0, 2129.509521484375
53, 0, 0, 2065.912841796875
54, 0, 0, 1999.757568359375
55, 0, 0, 1955.3955078125
56, 0, 0, 1899.002563476562
57, 0, 0, 1847.063110351562
58, 0, 0, 1807.972290039062
59, 0, 0, 1767.718383789062
60, 0, 0, 1732.266845703125
61, 0, 0, 1695.9580078125
62, 0, 0, 1666.818481445312
63, 0, 0, 1645.80224609375
64, 0, 0, 1613.468994140625
65, 0, 0, 1586.840698242188
66, 0, 0, 1560.970581054688
67, 0, 0, 1541.244995117188
68, 0, 0, 1520.041381835938
69, 0, 0, 1494.698120117188
70, 0, 0, 1468.943969726562
71, 0, 0, 1463.288330078125
72, 0, 0, 1438.939086914062
73, 0, 0, 1410.832885742188
74, 0, 0, 1396.412719726562
75, 0, 0, 1382.700439453125
76, 0, 0, 1368.362182617188
77, 0, 0, 1359.797119140625
78, 0, 0, 1337.254028320312
79, 0, 0, 1328.367797851562
80, 0, 0, 1311.726196289062
81, 0, 0, 1299.739135742188
82, 0, 0, 1290.100341796875
83, 0, 0, 1282.886596679688
84, 0, 0, 1261.427856445312
85, 0, 0, 1254.266723632812
86, 0, 0, 1237.324462890625
87, 0, 0, 1235.306640625
88, 0, 0, 1218.543701171875
89, 0, 0, 1213.982666015625
90, 0, 0, 1204.215087890625
91, 0, 0, 1188.336547851562
92, 0, 0, 1181.3681640625
93, 0, 0, 1169.134033203125
94, 0, 0, 1162.712890625
95, 0, 0, 1156.251831054688
96, 0, 0, 1143.436645507812
97, 0, 0, 1140.343383789062
98, 0, 0, 1129.400512695312
99, 0, 0, 1122.169311523438
100, 0, 0, 1112.517333984375
101, 0, 0, 1114.95068359375
102, 0, 0, 1096.270874023438
103, 0, 0, 1088.04833984375
104, 0, 0, 1089.716552734375
105, 0, 0, 1079.92236328125
106, 0, 0, 1077.379150390625
107, 0, 0, 1059.087524414062
108, 0, 0, 1064.453125
109, 0, 0, 1055.674438476562
110, 0, 0, 1044.658447265625
111, 0, 0, 1045.01513671875
112, 0, 0, 1036.482177734375
113, 0, 0, 1024.663452148438
114, 0, 0, 1025.75146484375
115, 0, 0, 1023.652160644531
116, 0, 0, 1017.570068359375
117, 0, 0, 1006.774230957031
118, 0, 0, 1000.523193359375
119, 0, 0, 1003.988037109375
120, 0, 0, 993.5993041992188
121, 0, 0, 993.3243408203125
122, 0, 0, 990.2059326171875
123, 0, 0, 986.6901245117188
124, 0, 0, 976.4319458007812
125, 0, 0, 982.3933715820312
126, 0, 0, 966.7589111328125
127, 0, 0, 956.9669799804688
128, 0, 0, 965.7442016601562
129, 0, 0, 956.2701416015625
130, 0, 0, 946.2470092773438
131, 0, 0, 952.93408203125
132, 0, 0, 952.4705200195312
133, 0, 0, 933.657958984375
134, 0, 0, 938.9794921875
135, 0, 0, 927.9391479492188
136, 0, 0, 934.011474609375
137, 0, 0, 930.631591796875
138, 0, 0, 921.2676391601562
139, 0, 0, 916.5501098632812
140, 0, 0, 917.8626098632812
141, 0, 0, 912.99560546875
142, 0, 0, 913.5170288085938
143, 0, 0, 902.087158203125
144, 0, 0, 902.61083984375
145, 0, 0, 891.5997924804688
146, 0, 0, 900.9229736328125
147, 0, 0, 887.0440673828125
148, 0, 0, 889.5260620117188
149, 0, 0, 882.5498046875
150, 0, 0, 879.2084350585938
151, 0, 0, 879.8442993164062
152, 0, 0, 880.4746704101562
153, 0, 0, 872.203369140625
154, 0, 0, 875.5858154296875
155, 0, 0, 866.5020141601562
156, 0, 0, 863.5030517578125
157, 0, 0, 860.8121337890625
158, 0, 0, 857.6870727539062
159, 0, 0, 855.5712280273438
160, 0, 0, 849.6659545898438
161, 0, 0, 856.4409790039062
162, 0, 0, 847.923095703125
163, 0, 0, 836.94384765625
164, 0, 0, 854.2948608398438
165, 0, 0, 841.3739624023438
166, 0, 0, 836.707763671875
167, 0, 0, 831.4834594726562
168, 0, 0, 840.106689453125
169, 0, 0, 824.834716796875
170, 0, 0, 833.3597412109375
171, 0, 0, 824.2337646484375
172, 0, 0, 826.9953002929688
173, 0, 0, 817.2418823242188
174, 0, 0, 819.9102783203125
175, 0, 0, 811.725830078125
176, 0, 0, 811.6817016601562
177, 0, 0, 814.3258666992188
178, 0, 0, 810.5150146484375
179, 0, 0, 806.3895874023438
