# TOPAS Version: 3.3.p1
# Parameter File: Test.txt
# Results for scorer MLIC_Scorer
# Scored in component: MLIC
# X in 180 bins of 0.177778 cm
# Y in 1 bin  of 10 cm
# Z in 1 bin  of 10 cm
# EnergyDeposit ( MeV ) : Sum   
0, 0, 0, 0
1, 0, 0, 0
2, 0, 0, 0
3, 0, 0, 0
4, 0, 0, 0
5, 0, 0, 0
6, 0, 0, 0
7, 0, 0, 0
8, 0, 0, 0
9, 0, 0, 0
10, 0, 0, 0
11, 0, 0, 0
12, 0, 0, 0
13, 0, 0, 0
14, 0, 0, 0
15, 0, 0, 0
16, 0, 0, 0
17, 0, 0, 0
18, 0, 0, 0
19, 0, 0, 0
20, 0, 0, 0
21, 0, 0, 0
22, 0, 0, 0
23, 0, 0, 0
24, 0, 0, 0
25, 0, 0, 0
26, 0, 0, 0
27, 0, 0, 0
28, 0, 0, 0
29, 0, 0, 0
30, 0, 0, 0
31, 0, 0, 0
32, 0, 0, 0
33, 0, 0, 0
34, 0, 0, 0
35, 0, 0, 0
36, 0, 0, 0
37, 0, 0, 0
38, 0, 0, 0
39, 0, 0, 0
40, 0, 0, 0
41, 0, 0, 0
42, 0, 0, 0
43, 0, 0, 0
44, 0, 0, 0
45, 0, 0, 0
46, 0, 0, 0
47, 0, 0, 0
48, 0, 0, 0
49, 0, 0, 0
50, 0, 0, 0
51, 0, 0, 0
52, 0, 0, 0
53, 0, 0, 0
54, 0, 0, 0
55, 0, 0, 0
56, 0, 0, 0
57, 0, 0, 0
58, 0, 0, 0
59, 0, 0, 0
60, 0, 0, 0
61, 0, 0, 0
62, 0, 0, 0
63, 0, 0, 0
64, 0, 0, 0
65, 0, 0, 0
66, 0, 0, 0
67, 0, 0, 0
68, 0, 0, 0
69, 0, 0, 0
70, 0, 0, 0
71, 0, 0, 0
72, 0, 0, 0
73, 0, 0, 0
74, 0, 0, 24.36979484558105
75, 0, 0, 72.21266174316406
76, 0, 0, 158.4458770751953
77, 0, 0, 299.1824951171875
78, 0, 0, 360.5625915527344
79, 0, 0, 346.0957336425781
80, 0, 0, 305.6314086914062
81, 0, 0, 251.8770904541016
82, 0, 0, 222.7724914550781
83, 0, 0, 205.4729766845703
84, 0, 0, 199.215576171875
85, 0, 0, 182.1203308105469
86, 0, 0, 172.2692565917969
87, 0, 0, 164.7362365722656
88, 0, 0, 156.4260864257812
89, 0, 0, 150.1240081787109
90, 0, 0, 145.3365936279297
91, 0, 0, 139.3155212402344
92, 0, 0, 134.4234313964844
93, 0, 0, 131.1809997558594
94, 0, 0, 128.958740234375
95, 0, 0, 125.8670654296875
96, 0, 0, 121.0386962890625
97, 0, 0, 118.1530303955078
98, 0, 0, 116.7254257202148
99, 0, 0, 115.8688888549805
100, 0, 0, 112.5558547973633
101, 0, 0, 111.8975601196289
102, 0, 0, 109.4694671630859
103, 0, 0, 106.9991073608398
104, 0, 0, 104.5872802734375
105, 0, 0, 103.9602584838867
106, 0, 0, 102.127197265625
107, 0, 0, 99.99873352050781
108, 0, 0, 98.30593109130859
109, 0, 0, 99.36923980712891
110, 0, 0, 95.56663513183594
111, 0, 0, 95.70719146728516
112, 0, 0, 94.41039276123047
113, 0, 0, 91.59666442871094
114, 0, 0, 89.59535980224609
115, 0, 0, 89.23722839355469
116, 0, 0, 88.83157348632812
117, 0, 0, 88.08913421630859
118, 0, 0, 87.04070281982422
119, 0, 0, 86.37456512451172
120, 0, 0, 86.13124847412109
121, 0, 0, 84.93881988525391
122, 0, 0, 83.40564727783203
123, 0, 0, 83.48940277099609
124, 0, 0, 81.71082305908203
125, 0, 0, 81.51004791259766
126, 0, 0, 80.20379638671875
127, 0, 0, 80.23776245117188
128, 0, 0, 80.36533355712891
129, 0, 0, 78.71211242675781
130, 0, 0, 77.7451171875
131, 0, 0, 79.66338348388672
132, 0, 0, 77.08651733398438
133, 0, 0, 77.95242309570312
134, 0, 0, 75.45596313476562
135, 0, 0, 75.70096588134766
136, 0, 0, 74.60008239746094
137, 0, 0, 74.78507232666016
138, 0, 0, 74.89820098876953
139, 0, 0, 71.95641326904297
140, 0, 0, 71.12500762939453
141, 0, 0, 75.03370666503906
142, 0, 0, 71.71280670166016
143, 0, 0, 70.79520416259766
144, 0, 0, 72.61418914794922
145, 0, 0, 69.739501953125
146, 0, 0, 69.13858032226562
147, 0, 0, 69.69870758056641
148, 0, 0, 68.95272827148438
149, 0, 0, 67.98777008056641
150, 0, 0, 68.66910552978516
151, 0, 0, 67.76768493652344
152, 0, 0, 67.88822937011719
153, 0, 0, 69.28253936767578
154, 0, 0, 66.45994567871094
155, 0, 0, 67.34078216552734
156, 0, 0, 64.31358337402344
157, 0, 0, 65.00682830810547
158, 0, 0, 67.43382263183594
159, 0, 0, 65.22890472412109
160, 0, 0, 64.11579895019531
161, 0, 0, 65.02738952636719
162, 0, 0, 64.94859313964844
163, 0, 0, 66.73961639404297
164, 0, 0, 64.39598083496094
165, 0, 0, 66.88101959228516
166, 0, 0, 63.33381271362305
167, 0, 0, 64.18693542480469
168, 0, 0, 64.06065368652344
169, 0, 0, 62.25093841552734
170, 0, 0, 63.34680938720703
171, 0, 0, 62.04258346557617
172, 0, 0, 63.74198913574219
173, 0, 0, 60.59677124023438
174, 0, 0, 62.94360733032227
175, 0, 0, 61.02543640136719
176, 0, 0, 61.56189346313477
177, 0, 0, 62.14019775390625
178, 0, 0, 60.60103988647461
179, 0, 0, 60.02913665771484
