# TOPAS Version: 3.3.p1
# Parameter File: Test.txt
# Results for scorer MLIC_Scorer
# Scored in component: MLIC
# X in 180 bins of 0.177778 cm
# Y in 1 bin  of 10 cm
# Z in 1 bin  of 10 cm
# EnergyDeposit ( MeV ) : Sum   
0, 0, 0, 0
1, 0, 0, 0
2, 0, 0, 0
3, 0, 0, 0.001083206734620035
4, 0, 0, 0
5, 0, 0, 0
6, 0, 0, 0
7, 0, 0, 0
8, 0, 0, 0
9, 0, 0, 0
10, 0, 0, 0.001828450476750731
11, 0, 0, 0
12, 0, 0, 12.82795143127441
13, 0, 0, 45.3288688659668
14, 0, 0, 158.8013610839844
15, 0, 0, 520.4708251953125
16, 0, 0, 1152.511596679688
17, 0, 0, 2659.769287109375
18, 0, 0, 3927.633056640625
19, 0, 0, 4960.650390625
20, 0, 0, 5046.90087890625
21, 0, 0, 4614.61962890625
22, 0, 0, 4033.066162109375
23, 0, 0, 3595.9501953125
24, 0, 0, 3238.58544921875
25, 0, 0, 2973.248291015625
26, 0, 0, 2773.417724609375
27, 0, 0, 2612.55810546875
28, 0, 0, 2485.135498046875
29, 0, 0, 2378.17626953125
30, 0, 0, 2277.260498046875
31, 0, 0, 2201.3193359375
32, 0, 0, 2124.90185546875
33, 0, 0, 2055.775390625
34, 0, 0, 1997.727905273438
35, 0, 0, 1938.572875976562
36, 0, 0, 1893.9912109375
37, 0, 0, 1850.033203125
38, 0, 0, 1814.065673828125
39, 0, 0, 1781.184326171875
40, 0, 0, 1741.03955078125
41, 0, 0, 1704.314575195312
42, 0, 0, 1669.900634765625
43, 0, 0, 1639.424194335938
44, 0, 0, 1615.356689453125
45, 0, 0, 1585.2294921875
46, 0, 0, 1567.168090820312
47, 0, 0, 1540.133056640625
48, 0, 0, 1521.171630859375
49, 0, 0, 1500.691162109375
50, 0, 0, 1476.076171875
51, 0, 0, 1458.404418945312
52, 0, 0, 1437.586791992188
53, 0, 0, 1418.740356445312
54, 0, 0, 1399.612915039062
55, 0, 0, 1387.972290039062
56, 0, 0, 1364.204956054688
57, 0, 0, 1355.612060546875
58, 0, 0, 1337.67822265625
59, 0, 0, 1322.090698242188
60, 0, 0, 1310.230712890625
61, 0, 0, 1296.979858398438
62, 0, 0, 1285.488037109375
63, 0, 0, 1268.934204101562
64, 0, 0, 1259.794799804688
65, 0, 0, 1254.1357421875
66, 0, 0, 1238.208862304688
67, 0, 0, 1231.791625976562
68, 0, 0, 1222.340942382812
69, 0, 0, 1209.98193359375
70, 0, 0, 1193.840576171875
71, 0, 0, 1195.811157226562
72, 0, 0, 1173.749145507812
73, 0, 0, 1168.076293945312
74, 0, 0, 1161.3603515625
75, 0, 0, 1149.56396484375
76, 0, 0, 1144.396850585938
77, 0, 0, 1143.719482421875
78, 0, 0, 1130.401611328125
79, 0, 0, 1127.396850585938
80, 0, 0, 1114.398315429688
81, 0, 0, 1100.63330078125
82, 0, 0, 1107.70166015625
83, 0, 0, 1096.305908203125
84, 0, 0, 1087.159790039062
85, 0, 0, 1083.648559570312
86, 0, 0, 1075.041381835938
87, 0, 0, 1064.701171875
88, 0, 0, 1061.0048828125
89, 0, 0, 1056.197509765625
90, 0, 0, 1044.747802734375
91, 0, 0, 1046.923217773438
92, 0, 0, 1040.480102539062
93, 0, 0, 1025.06689453125
94, 0, 0, 1025.359497070312
95, 0, 0, 1022.889099121094
96, 0, 0, 1011.811401367188
97, 0, 0, 1010.304016113281
98, 0, 0, 999.7191162109375
99, 0, 0, 1002.600036621094
100, 0, 0, 1001.036682128906
101, 0, 0, 983.8851928710938
102, 0, 0, 989.4903564453125
103, 0, 0, 973.9049072265625
104, 0, 0, 978.0111083984375
105, 0, 0, 975.5708618164062
106, 0, 0, 967.6925659179688
107, 0, 0, 967.8272705078125
108, 0, 0, 964.5866088867188
109, 0, 0, 955.0967407226562
110, 0, 0, 943.31787109375
111, 0, 0, 950.6270141601562
112, 0, 0, 942.88720703125
113, 0, 0, 942.5714111328125
114, 0, 0, 938.5134887695312
115, 0, 0, 934.3630981445312
116, 0, 0, 924.9202880859375
117, 0, 0, 927.4721069335938
118, 0, 0, 918.6937866210938
119, 0, 0, 915.666259765625
120, 0, 0, 920.2559814453125
121, 0, 0, 912.6438598632812
122, 0, 0, 916.1685791015625
123, 0, 0, 900.5018920898438
124, 0, 0, 898.5955200195312
125, 0, 0, 896.373291015625
126, 0, 0, 896.3883666992188
127, 0, 0, 889.1906127929688
128, 0, 0, 886.9937744140625
129, 0, 0, 886.4276123046875
130, 0, 0, 886.6068115234375
131, 0, 0, 879.0326538085938
132, 0, 0, 871.8463134765625
133, 0, 0, 875.4984130859375
134, 0, 0, 864.559326171875
135, 0, 0, 870.1797485351562
136, 0, 0, 874.7448120117188
137, 0, 0, 861.3529663085938
138, 0, 0, 853.8330078125
139, 0, 0, 858.7536010742188
140, 0, 0, 856.01123046875
141, 0, 0, 848.7313842773438
142, 0, 0, 853.7418212890625
143, 0, 0, 843.5881958007812
144, 0, 0, 836.6414794921875
145, 0, 0, 837.3643188476562
146, 0, 0, 841.2106323242188
147, 0, 0, 835.8524780273438
148, 0, 0, 838.7880859375
149, 0, 0, 829.3684692382812
150, 0, 0, 825.9784545898438
151, 0, 0, 829.0385131835938
152, 0, 0, 821.5280151367188
153, 0, 0, 817.6118774414062
154, 0, 0, 818.0619506835938
155, 0, 0, 818.2409057617188
156, 0, 0, 807.9383544921875
157, 0, 0, 803.8776245117188
158, 0, 0, 803.7774658203125
159, 0, 0, 815.9425048828125
160, 0, 0, 806.4525756835938
161, 0, 0, 801.8346557617188
162, 0, 0, 798.0079956054688
163, 0, 0, 790.9168701171875
164, 0, 0, 791.7001342773438
165, 0, 0, 795.626953125
166, 0, 0, 784.6566772460938
167, 0, 0, 789.1126708984375
168, 0, 0, 785.851806640625
169, 0, 0, 789.81787109375
170, 0, 0, 784.7171020507812
171, 0, 0, 788.6465454101562
172, 0, 0, 779.0230102539062
173, 0, 0, 769.3878784179688
174, 0, 0, 774.4264526367188
175, 0, 0, 774.2410888671875
176, 0, 0, 775.05615234375
177, 0, 0, 755.3984375
178, 0, 0, 769.7295532226562
179, 0, 0, 771.1448364257812
