# TOPAS Version: 3.3.p1
# Parameter File: Test.txt
# Results for scorer MLIC_Scorer
# Scored in component: MLIC
# X in 180 bins of 0.183333 cm
# Y in 1 bin  of 10 cm
# Z in 1 bin  of 10 cm
# EnergyDeposit ( MeV ) : Sum   
0, 0, 0, 0
1, 0, 0, 0
2, 0, 0, 0
3, 0, 0, 0
4, 0, 0, 0
5, 0, 0, 0
6, 0, 0, 0
7, 0, 0, 0
8, 0, 0, 0
9, 0, 0, 0
10, 0, 0, 0
11, 0, 0, 0
12, 0, 0, 0
13, 0, 0, 0
14, 0, 0, 0
15, 0, 0, 0
16, 0, 0, 0
17, 0, 0, 0
18, 0, 0, 0
19, 0, 0, 0
20, 0, 0, 0
21, 0, 0, 0
22, 0, 0, 0
23, 0, 0, 0
24, 0, 0, 0
25, 0, 0, 0
26, 0, 0, 0
27, 0, 0, 0
28, 0, 0, 0
29, 0, 0, 0
30, 0, 0, 0
31, 0, 0, 0
32, 0, 0, 0
33, 0, 0, 0
34, 0, 0, 0.0003059001173824072
35, 0, 0, 0
36, 0, 0, 0
37, 0, 0, 0
38, 0, 0, 0.001069882069714367
39, 0, 0, 0.001493738847784698
40, 0, 0, 0
41, 0, 0, 0
42, 0, 0, 0
43, 0, 0, 0
44, 0, 0, 0
45, 0, 0, 0
46, 0, 0, 0
47, 0, 0, 0
48, 0, 0, 0
49, 0, 0, 0
50, 0, 0, 0
51, 0, 0, 0
52, 0, 0, 0
53, 0, 0, 0
54, 0, 0, 0
55, 0, 0, 0
56, 0, 0, 0
57, 0, 0, 0
58, 0, 0, 0
59, 0, 0, 0
60, 0, 0, 0
61, 0, 0, 0
62, 0, 0, 0
63, 0, 0, 0
64, 0, 0, 0
65, 0, 0, 0
66, 0, 0, 0
67, 0, 0, 0
68, 0, 0, 0
69, 0, 0, 0
70, 0, 0, 0
71, 0, 0, 0
72, 0, 0, 0
73, 0, 0, 0
74, 0, 0, 0
75, 0, 0, 0
76, 0, 0, 0
77, 0, 0, 0
78, 0, 0, 0
79, 0, 0, 0
80, 0, 0, 0
81, 0, 0, 0
82, 0, 0, 0
83, 0, 0, 0
84, 0, 0, 0
85, 0, 0, 0.0002603123721200973
86, 0, 0, 0
87, 0, 0, 0
88, 0, 0, 0
89, 0, 0, 0
90, 0, 0, 0
91, 0, 0, 0
92, 0, 0, 0
93, 0, 0, 0
94, 0, 0, 0
95, 0, 0, 0
96, 0, 0, 0
97, 0, 0, 0
98, 0, 0, 0
99, 0, 0, 0
100, 0, 0, 0
101, 0, 0, 0
102, 0, 0, 0
103, 0, 0, 0
104, 0, 0, 0
105, 0, 0, 0
106, 0, 0, 0
107, 0, 0, 0
108, 0, 0, 0
109, 0, 0, 0
110, 0, 0, 0
111, 0, 0, 0
112, 0, 0, 0
113, 0, 0, 0
114, 0, 0, 0
115, 0, 0, 0
116, 0, 0, 0
117, 0, 0, 0.005625525023788214
118, 0, 0, 0.03488931804895401
119, 0, 0, 0
120, 0, 0, 0
121, 0, 0, 0
122, 0, 0, 0
123, 0, 0, 0
124, 0, 0, 0
125, 0, 0, 0
126, 0, 0, 1.596536159515381
127, 0, 0, 19.29439163208008
128, 0, 0, 88.90373992919922
129, 0, 0, 396.51708984375
130, 0, 0, 1239.730102539062
131, 0, 0, 2582.12841796875
132, 0, 0, 4009.926513671875
133, 0, 0, 5145.82421875
134, 0, 0, 5183.03076171875
135, 0, 0, 4708.072265625
136, 0, 0, 4120.84423828125
137, 0, 0, 3655.37939453125
138, 0, 0, 3285.389404296875
139, 0, 0, 3029.794677734375
140, 0, 0, 2821.89697265625
141, 0, 0, 2669.0263671875
142, 0, 0, 2525.0068359375
143, 0, 0, 2423.135498046875
144, 0, 0, 2323.703857421875
145, 0, 0, 2240.86328125
146, 0, 0, 2165.93994140625
147, 0, 0, 2095.36865234375
148, 0, 0, 2035.084594726562
149, 0, 0, 1976.94091796875
150, 0, 0, 1933.438720703125
151, 0, 0, 1886.521240234375
152, 0, 0, 1840.367797851562
153, 0, 0, 1800.864624023438
154, 0, 0, 1771.852416992188
155, 0, 0, 1734.12841796875
156, 0, 0, 1703.574096679688
157, 0, 0, 1662.14404296875
158, 0, 0, 1644.845092773438
159, 0, 0, 1607.546997070312
160, 0, 0, 1585.955444335938
161, 0, 0, 1563.470092773438
162, 0, 0, 1539.983154296875
163, 0, 0, 1519.137084960938
164, 0, 0, 1498.993774414062
165, 0, 0, 1488.793701171875
166, 0, 0, 1459.852783203125
167, 0, 0, 1448.2421875
168, 0, 0, 1429.767578125
169, 0, 0, 1405.06591796875
170, 0, 0, 1394.130981445312
171, 0, 0, 1383.31103515625
172, 0, 0, 1371.565063476562
173, 0, 0, 1348.142944335938
174, 0, 0, 1333.524047851562
175, 0, 0, 1326.792724609375
176, 0, 0, 1306.989379882812
177, 0, 0, 1298.696533203125
178, 0, 0, 1295.653442382812
179, 0, 0, 1272.176025390625
