# TOPAS Version: 3.3.p1
# Parameter File: Test.txt
# Results for scorer MLIC_Scorer
# Scored in component: MLIC
# X in 165 bins of 0.2 cm
# Y in 1 bin  of 10 cm
# Z in 1 bin  of 10 cm
# EnergyDeposit ( MeV ) : Sum   
0, 0, 0, 0
1, 0, 0, 0
2, 0, 0, 0
3, 0, 0, 0
4, 0, 0, 0
5, 0, 0, 0
6, 0, 0, 0
7, 0, 0, 0
8, 0, 0, 0
9, 0, 0, 0
10, 0, 0, 0
11, 0, 0, 0
12, 0, 0, 0
13, 0, 0, 0
14, 0, 0, 0
15, 0, 0, 0
16, 0, 0, 0
17, 0, 0, 0
18, 0, 0, 0
19, 0, 0, 0
20, 0, 0, 0.03639226406812668
21, 0, 0, 0
22, 0, 0, 0
23, 0, 0, 0
24, 0, 0, 0
25, 0, 0, 0
26, 0, 0, 0
27, 0, 0, 0
28, 0, 0, 0
29, 0, 0, 0
30, 0, 0, 0
31, 0, 0, 0
32, 0, 0, 0
33, 0, 0, 0
34, 0, 0, 0
35, 0, 0, 0
36, 0, 0, 0
37, 0, 0, 0
38, 0, 0, 0
39, 0, 0, 0
40, 0, 0, 0
41, 0, 0, 0
42, 0, 0, 0
43, 0, 0, 3.624809503555298
44, 0, 0, 10.1390495300293
45, 0, 0, 26.62690162658691
46, 0, 0, 177.7378234863281
47, 0, 0, 549.5213012695312
48, 0, 0, 1453.09130859375
49, 0, 0, 3087.8837890625
50, 0, 0, 4568.92626953125
51, 0, 0, 5290.43359375
52, 0, 0, 5468.92822265625
53, 0, 0, 4869.13818359375
54, 0, 0, 4232.95849609375
55, 0, 0, 3716.47607421875
56, 0, 0, 3373.295166015625
57, 0, 0, 3107.725341796875
58, 0, 0, 2916.851806640625
59, 0, 0, 2748.595947265625
60, 0, 0, 2629.02880859375
61, 0, 0, 2515.292724609375
62, 0, 0, 2414.49072265625
63, 0, 0, 2322.58544921875
64, 0, 0, 2248.23583984375
65, 0, 0, 2184.683349609375
66, 0, 0, 2129.581298828125
67, 0, 0, 2066.1748046875
68, 0, 0, 2018.383911132812
69, 0, 0, 1975.809936523438
70, 0, 0, 1926.288452148438
71, 0, 0, 1878.771118164062
72, 0, 0, 1845.512939453125
73, 0, 0, 1810.318237304688
74, 0, 0, 1786.690185546875
75, 0, 0, 1741.517944335938
76, 0, 0, 1719.9912109375
77, 0, 0, 1709.831298828125
78, 0, 0, 1675.23583984375
79, 0, 0, 1640.63818359375
80, 0, 0, 1618.32763671875
81, 0, 0, 1586.656127929688
82, 0, 0, 1573.63525390625
83, 0, 0, 1553.039428710938
84, 0, 0, 1526.201782226562
85, 0, 0, 1515.5849609375
86, 0, 0, 1499.45849609375
87, 0, 0, 1478.0068359375
88, 0, 0, 1458.020141601562
89, 0, 0, 1442.657592773438
90, 0, 0, 1427.135498046875
91, 0, 0, 1421.977661132812
92, 0, 0, 1401.37646484375
93, 0, 0, 1396.276489257812
94, 0, 0, 1368.976806640625
95, 0, 0, 1365.086181640625
96, 0, 0, 1355.236450195312
97, 0, 0, 1336.083984375
98, 0, 0, 1329.353759765625
99, 0, 0, 1323.296752929688
100, 0, 0, 1303.073486328125
101, 0, 0, 1287.336059570312
102, 0, 0, 1287.166015625
103, 0, 0, 1278.946411132812
104, 0, 0, 1260.822143554688
105, 0, 0, 1257.938598632812
106, 0, 0, 1246.2861328125
107, 0, 0, 1234.9609375
108, 0, 0, 1218.819946289062
109, 0, 0, 1218.00048828125
110, 0, 0, 1206.757202148438
111, 0, 0, 1202.238037109375
112, 0, 0, 1195.6357421875
113, 0, 0, 1185.237182617188
114, 0, 0, 1175.410888671875
115, 0, 0, 1170.73876953125
116, 0, 0, 1160.519287109375
117, 0, 0, 1166.41455078125
118, 0, 0, 1144.559692382812
119, 0, 0, 1141.897583007812
120, 0, 0, 1136.396606445312
121, 0, 0, 1136.0205078125
122, 0, 0, 1123.259521484375
123, 0, 0, 1114.097534179688
124, 0, 0, 1102.540405273438
125, 0, 0, 1104.901977539062
126, 0, 0, 1102.458251953125
127, 0, 0, 1095.789672851562
128, 0, 0, 1084.562377929688
129, 0, 0, 1087.28515625
130, 0, 0, 1073.882934570312
131, 0, 0, 1077.623901367188
132, 0, 0, 1063.735107421875
133, 0, 0, 1064.7099609375
134, 0, 0, 1061.809326171875
135, 0, 0, 1055.3818359375
136, 0, 0, 1040.140380859375
137, 0, 0, 1051.38330078125
138, 0, 0, 1044.88818359375
139, 0, 0, 1039.107543945312
140, 0, 0, 1034.121337890625
141, 0, 0, 1024.678833007812
142, 0, 0, 1027.03271484375
143, 0, 0, 1023.206481933594
144, 0, 0, 1014.342102050781
145, 0, 0, 1008.263610839844
146, 0, 0, 1004.492858886719
147, 0, 0, 1004.470520019531
148, 0, 0, 998.4678955078125
149, 0, 0, 995.5138549804688
150, 0, 0, 989.6411743164062
151, 0, 0, 973.9171142578125
152, 0, 0, 977.6651000976562
153, 0, 0, 978.5765991210938
154, 0, 0, 972.9992065429688
155, 0, 0, 974.4786987304688
156, 0, 0, 970.7002563476562
157, 0, 0, 967.4932250976562
158, 0, 0, 956.9686889648438
159, 0, 0, 955.8446655273438
160, 0, 0, 952.7320556640625
161, 0, 0, 950.3128051757812
162, 0, 0, 946.8356323242188
163, 0, 0, 938.1843872070312
164, 0, 0, 946.6405639648438
