# TOPAS Version: 3.3.p1
# Parameter File: Test.txt
# Results for scorer MLIC_Scorer
# Scored in component: MLIC
# X in 180 bins of 0.183333 cm
# Y in 1 bin  of 10 cm
# Z in 1 bin  of 10 cm
# EnergyDeposit ( MeV ) : Sum   
0, 0, 0, 0
1, 0, 0, 0
2, 0, 0, 0
3, 0, 0, 0
4, 0, 0, 0
5, 0, 0, 0
6, 0, 0, 0
7, 0, 0, 0
8, 0, 0, 0
9, 0, 0, 0
10, 0, 0, 0
11, 0, 0, 0
12, 0, 0, 0
13, 0, 0, 0
14, 0, 0, 0
15, 0, 0, 0
16, 0, 0, 0
17, 0, 0, 0
18, 0, 0, 0
19, 0, 0, 0
20, 0, 0, 0
21, 0, 0, 0
22, 0, 0, 0
23, 0, 0, 0
24, 0, 0, 0
25, 0, 0, 0
26, 0, 0, 0
27, 0, 0, 0
28, 0, 0, 0
29, 0, 0, 0
30, 0, 0, 0
31, 0, 0, 0
32, 0, 0, 0
33, 0, 0, 0
34, 0, 0, 0
35, 0, 0, 0
36, 0, 0, 0
37, 0, 0, 0
38, 0, 0, 0
39, 0, 0, 0
40, 0, 0, 0
41, 0, 0, 0
42, 0, 0, 0
43, 0, 0, 0
44, 0, 0, 0
45, 0, 0, 0
46, 0, 0, 0
47, 0, 0, 0
48, 0, 0, 0
49, 0, 0, 0
50, 0, 0, 0
51, 0, 0, 0
52, 0, 0, 0
53, 0, 0, 0
54, 0, 0, 0
55, 0, 0, 0
56, 0, 0, 0
57, 0, 0, 0
58, 0, 0, 0
59, 0, 0, 0
60, 0, 0, 0
61, 0, 0, 0
62, 0, 0, 0
63, 0, 0, 0
64, 0, 0, 0
65, 0, 0, 0
66, 0, 0, 0.002726243110373616
67, 0, 0, 0
68, 0, 0, 0
69, 0, 0, 0.001971714198589325
70, 0, 0, 0
71, 0, 0, 0
72, 0, 0, 0
73, 0, 0, 0
74, 0, 0, 0
75, 0, 0, 0.02795330435037613
76, 0, 0, 0
77, 0, 0, 0.006966711021959782
78, 0, 0, 0.003795176278799772
79, 0, 0, 0
80, 0, 0, 0
81, 0, 0, 0
82, 0, 0, 0
83, 0, 0, 0
84, 0, 0, 0
85, 0, 0, 0
86, 0, 0, 0
87, 0, 0, 0
88, 0, 0, 0
89, 0, 0, 0
90, 0, 0, 0
91, 0, 0, 0
92, 0, 0, 0
93, 0, 0, 0
94, 0, 0, 0
95, 0, 0, 0
96, 0, 0, 0
97, 0, 0, 0
98, 0, 0, 0
99, 0, 0, 0
100, 0, 0, 0
101, 0, 0, 0.001641968148760498
102, 0, 0, 0
103, 0, 0, 0
104, 0, 0, 0.002394593087956309
105, 0, 0, 0
106, 0, 0, 0
107, 0, 0, 0
108, 0, 0, 0
109, 0, 0, 0
110, 0, 0, 0
111, 0, 0, 0
112, 0, 0, 0
113, 0, 0, 0
114, 0, 0, 0.0001051845028996468
115, 0, 0, 0
116, 0, 0, 4.455774307250977
117, 0, 0, 95.4962158203125
118, 0, 0, 468.574462890625
119, 0, 0, 1202.119018554688
120, 0, 0, 2448.029052734375
121, 0, 0, 3833.868408203125
122, 0, 0, 4973.37890625
123, 0, 0, 5187.5078125
124, 0, 0, 4835.53466796875
125, 0, 0, 4168.26123046875
126, 0, 0, 3687.033203125
127, 0, 0, 3305.447998046875
128, 0, 0, 3034.486572265625
129, 0, 0, 2828.619873046875
130, 0, 0, 2664.86669921875
131, 0, 0, 2531.94970703125
132, 0, 0, 2416.337646484375
133, 0, 0, 2327.68896484375
134, 0, 0, 2242.389404296875
135, 0, 0, 2165.47705078125
136, 0, 0, 2095.178955078125
137, 0, 0, 2034.7255859375
138, 0, 0, 1983.255493164062
139, 0, 0, 1939.296508789062
140, 0, 0, 1888.91162109375
141, 0, 0, 1841.840942382812
142, 0, 0, 1802.933715820312
143, 0, 0, 1768.5126953125
144, 0, 0, 1732.027954101562
145, 0, 0, 1700.318481445312
146, 0, 0, 1668.877563476562
147, 0, 0, 1642.17041015625
148, 0, 0, 1614.666625976562
149, 0, 0, 1589.884399414062
150, 0, 0, 1571.496704101562
151, 0, 0, 1548.260498046875
152, 0, 0, 1527.482543945312
153, 0, 0, 1505.847778320312
154, 0, 0, 1483.955322265625
155, 0, 0, 1467.106567382812
156, 0, 0, 1439.85205078125
157, 0, 0, 1430.395751953125
158, 0, 0, 1416.688842773438
159, 0, 0, 1387.1015625
160, 0, 0, 1386.163696289062
161, 0, 0, 1366.724975585938
162, 0, 0, 1352.783813476562
163, 0, 0, 1335.816162109375
164, 0, 0, 1317.380737304688
165, 0, 0, 1308.94580078125
166, 0, 0, 1298.965209960938
167, 0, 0, 1282.670043945312
168, 0, 0, 1280.472534179688
169, 0, 0, 1269.032470703125
170, 0, 0, 1251.78857421875
171, 0, 0, 1241.684326171875
172, 0, 0, 1231.28369140625
173, 0, 0, 1220.316772460938
174, 0, 0, 1207.901489257812
175, 0, 0, 1203.764404296875
176, 0, 0, 1186.991333007812
177, 0, 0, 1189.776733398438
178, 0, 0, 1175.952270507812
179, 0, 0, 1166.275756835938
