# TOPAS Version: 3.3.p1
# Parameter File: Test.txt
# Results for scorer MLIC_Scorer
# Scored in component: MLIC
# X in 165 bins of 0.2 cm
# Y in 1 bin  of 10 cm
# Z in 1 bin  of 10 cm
# EnergyDeposit ( MeV ) : Sum   
0, 0, 0, 0
1, 0, 0, 0
2, 0, 0, 0
3, 0, 0, 0
4, 0, 0, 0
5, 0, 0, 0
6, 0, 0, 0
7, 0, 0, 0
8, 0, 0, 0
9, 0, 0, 0
10, 0, 0, 0
11, 0, 0, 0
12, 0, 0, 0
13, 0, 0, 0
14, 0, 0, 0
15, 0, 0, 0
16, 0, 0, 0
17, 0, 0, 0
18, 0, 0, 0
19, 0, 0, 0
20, 0, 0, 0
21, 0, 0, 0
22, 0, 0, 0
23, 0, 0, 0
24, 0, 0, 0
25, 0, 0, 0
26, 0, 0, 0
27, 0, 0, 0
28, 0, 0, 0
29, 0, 0, 0
30, 0, 0, 0
31, 0, 0, 0
32, 0, 0, 0
33, 0, 0, 0
34, 0, 0, 0
35, 0, 0, 0
36, 0, 0, 0
37, 0, 0, 0
38, 0, 0, 0
39, 0, 0, 0
40, 0, 0, 0
41, 0, 0, 0
42, 0, 0, 0
43, 0, 0, 0
44, 0, 0, 0
45, 0, 0, 0
46, 0, 0, 0
47, 0, 0, 0
48, 0, 0, 0
49, 0, 0, 0
50, 0, 0, 0
51, 0, 0, 0
52, 0, 0, 0.001260674907825887
53, 0, 0, 0
54, 0, 0, 0
55, 0, 0, 0.002956936368718743
56, 0, 0, 0
57, 0, 0, 0
58, 0, 0, 0
59, 0, 0, 0
60, 0, 0, 0
61, 0, 0, 0.03074841946363449
62, 0, 0, 0
63, 0, 0, 0
64, 0, 0, 0
65, 0, 0, 0.0007230115588754416
66, 0, 0, 0
67, 0, 0, 0.01319828908890486
68, 0, 0, 0
69, 0, 0, 0.007477030623704195
70, 0, 0, 0
71, 0, 0, 0.03295328468084335
72, 0, 0, 18.46810531616211
73, 0, 0, 102.2177352905273
74, 0, 0, 524.0319213867188
75, 0, 0, 1361.754150390625
76, 0, 0, 3051.0419921875
77, 0, 0, 4479.22509765625
78, 0, 0, 5393.39697265625
79, 0, 0, 5506.2021484375
80, 0, 0, 4830.5556640625
81, 0, 0, 4220.28173828125
82, 0, 0, 3772.24365234375
83, 0, 0, 3400.149169921875
84, 0, 0, 3126.90185546875
85, 0, 0, 2934.93505859375
86, 0, 0, 2774.290771484375
87, 0, 0, 2629.224609375
88, 0, 0, 2520.19384765625
89, 0, 0, 2415.111328125
90, 0, 0, 2338.322021484375
91, 0, 0, 2265.887451171875
92, 0, 0, 2197.12548828125
93, 0, 0, 2127.030517578125
94, 0, 0, 2072.1513671875
95, 0, 0, 2021.396240234375
96, 0, 0, 1965.79296875
97, 0, 0, 1927.695678710938
98, 0, 0, 1897.555908203125
99, 0, 0, 1860.270629882812
100, 0, 0, 1816.046752929688
101, 0, 0, 1775.116088867188
102, 0, 0, 1751.025512695312
103, 0, 0, 1724.606323242188
104, 0, 0, 1689.453125
105, 0, 0, 1680.496948242188
106, 0, 0, 1644.157348632812
107, 0, 0, 1619.044067382812
108, 0, 0, 1588.0029296875
109, 0, 0, 1568.365966796875
110, 0, 0, 1560.414306640625
111, 0, 0, 1534.94384765625
112, 0, 0, 1517.723022460938
113, 0, 0, 1494.3701171875
114, 0, 0, 1474.8671875
115, 0, 0, 1463.536010742188
116, 0, 0, 1442.66455078125
117, 0, 0, 1427.3115234375
118, 0, 0, 1422.103393554688
119, 0, 0, 1405.70947265625
120, 0, 0, 1390.894409179688
121, 0, 0, 1377.023559570312
122, 0, 0, 1368.852783203125
123, 0, 0, 1352.048217773438
124, 0, 0, 1341.83447265625
125, 0, 0, 1328.2255859375
126, 0, 0, 1314.85595703125
127, 0, 0, 1299.773315429688
128, 0, 0, 1291.885986328125
129, 0, 0, 1279.959106445312
130, 0, 0, 1275.566162109375
131, 0, 0, 1273.514770507812
132, 0, 0, 1253.005493164062
133, 0, 0, 1249.228881835938
134, 0, 0, 1235.374389648438
135, 0, 0, 1226.999877929688
136, 0, 0, 1209.832885742188
137, 0, 0, 1207.784301757812
138, 0, 0, 1201.693725585938
139, 0, 0, 1198.288696289062
140, 0, 0, 1194.156127929688
141, 0, 0, 1184.406982421875
142, 0, 0, 1170.007934570312
143, 0, 0, 1158.849975585938
144, 0, 0, 1156.141479492188
145, 0, 0, 1150.469482421875
146, 0, 0, 1153.010864257812
147, 0, 0, 1133.066650390625
148, 0, 0, 1130.206665039062
149, 0, 0, 1130.434326171875
150, 0, 0, 1115.93603515625
151, 0, 0, 1110.67333984375
152, 0, 0, 1108.7236328125
153, 0, 0, 1104.327758789062
154, 0, 0, 1098.718994140625
155, 0, 0, 1093.828369140625
156, 0, 0, 1081.229614257812
157, 0, 0, 1069.841064453125
158, 0, 0, 1078.676635742188
159, 0, 0, 1073.453125
160, 0, 0, 1066.5966796875
161, 0, 0, 1060.089599609375
162, 0, 0, 1050.332275390625
163, 0, 0, 1053.64501953125
164, 0, 0, 1044.507568359375
