# TOPAS Version: 3.3.p1
# Parameter File: Test.txt
# Results for scorer MLIC_Scorer
# Scored in component: MLIC
# X in 180 bins of 0.177778 cm
# Y in 1 bin  of 10 cm
# Z in 1 bin  of 10 cm
# EnergyDeposit ( MeV ) : Sum   
0, 0, 0, 0
1, 0, 0, 0
2, 0, 0, 0
3, 0, 0, 0
4, 0, 0, 0
5, 0, 0, 0
6, 0, 0, 0
7, 0, 0, 0
8, 0, 0, 0
9, 0, 0, 0
10, 0, 0, 0
11, 0, 0, 0
12, 0, 0, 0
13, 0, 0, 0
14, 0, 0, 0
15, 0, 0, 0
16, 0, 0, 0
17, 0, 0, 0
18, 0, 0, 0
19, 0, 0, 0
20, 0, 0, 0
21, 0, 0, 0
22, 0, 0, 0
23, 0, 0, 0
24, 0, 0, 0
25, 0, 0, 0
26, 0, 0, 0
27, 0, 0, 0
28, 0, 0, 0
29, 0, 0, 0
30, 0, 0, 0
31, 0, 0, 0
32, 0, 0, 0
33, 0, 0, 0
34, 0, 0, 0
35, 0, 0, 0
36, 0, 0, 0
37, 0, 0, 0
38, 0, 0, 0
39, 0, 0, 0
40, 0, 0, 0
41, 0, 0, 0
42, 0, 0, 0
43, 0, 0, 0
44, 0, 0, 0
45, 0, 0, 0
46, 0, 0, 0
47, 0, 0, 0
48, 0, 0, 0
49, 0, 0, 0
50, 0, 0, 0
51, 0, 0, 0
52, 0, 0, 0
53, 0, 0, 0
54, 0, 0, 0
55, 0, 0, 0
56, 0, 0, 0
57, 0, 0, 0
58, 0, 0, 0
59, 0, 0, 0
60, 0, 0, 0
61, 0, 0, 0
62, 0, 0, 0
63, 0, 0, 0
64, 0, 0, 0
65, 0, 0, 0
66, 0, 0, 0
67, 0, 0, 0
68, 0, 0, 0
69, 0, 0, 0
70, 0, 0, 0
71, 0, 0, 0
72, 0, 0, 0
73, 0, 0, 0
74, 0, 0, 0
75, 0, 0, 0
76, 0, 0, 0
77, 0, 0, 0
78, 0, 0, 0
79, 0, 0, 0
80, 0, 0, 0
81, 0, 0, 0
82, 0, 0, 0
83, 0, 0, 0
84, 0, 0, 0
85, 0, 0, 0
86, 0, 0, 0
87, 0, 0, 0
88, 0, 0, 0
89, 0, 0, 0
90, 0, 0, 0
91, 0, 0, 0
92, 0, 0, 0
93, 0, 0, 0
94, 0, 0, 0
95, 0, 0, 0
96, 0, 0, 0
97, 0, 0, 0
98, 0, 0, 0
99, 0, 0, 0
100, 0, 0, 0
101, 0, 0, 0
102, 0, 0, 0
103, 0, 0, 0
104, 0, 0, 0
105, 0, 0, 0
106, 0, 0, 0
107, 0, 0, 0
108, 0, 0, 0
109, 0, 0, 0
110, 0, 0, 0
111, 0, 0, 0
112, 0, 0, 0
113, 0, 0, 0
114, 0, 0, 0
115, 0, 0, 0
116, 0, 0, 0
117, 0, 0, 0
118, 0, 0, 0
119, 0, 0, 0
120, 0, 0, 0
121, 0, 0, 0
122, 0, 0, 0
123, 0, 0, 0
124, 0, 0, 0
125, 0, 0, 0
126, 0, 0, 0
127, 0, 0, 0
128, 0, 0, 0
129, 0, 0, 0
130, 0, 0, 62.81975936889648
131, 0, 0, 339.9205932617188
132, 0, 0, 1047.285522460938
133, 0, 0, 2317.324951171875
134, 0, 0, 3665.224609375
135, 0, 0, 4884.68408203125
136, 0, 0, 5064.25048828125
137, 0, 0, 4699.8779296875
138, 0, 0, 4193.572265625
139, 0, 0, 3683.33642578125
140, 0, 0, 3298.76953125
141, 0, 0, 3024.498779296875
142, 0, 0, 2811.2470703125
143, 0, 0, 2638.740478515625
144, 0, 0, 2514.6650390625
145, 0, 0, 2394.200439453125
146, 0, 0, 2302.554931640625
147, 0, 0, 2219.77099609375
148, 0, 0, 2143.13427734375
149, 0, 0, 2075.689453125
150, 0, 0, 2016.481079101562
151, 0, 0, 1957.262573242188
152, 0, 0, 1909.732055664062
153, 0, 0, 1867.086547851562
154, 0, 0, 1822.79345703125
155, 0, 0, 1778.242553710938
156, 0, 0, 1738.359375
157, 0, 0, 1703.800415039062
158, 0, 0, 1677.246826171875
159, 0, 0, 1653.176513671875
160, 0, 0, 1613.05224609375
161, 0, 0, 1589.841552734375
162, 0, 0, 1562.607299804688
163, 0, 0, 1541.619384765625
164, 0, 0, 1519.994750976562
165, 0, 0, 1500.32861328125
166, 0, 0, 1470.750610351562
167, 0, 0, 1457.213134765625
168, 0, 0, 1444.25927734375
169, 0, 0, 1425.98828125
170, 0, 0, 1403.38427734375
171, 0, 0, 1391.672241210938
172, 0, 0, 1368.852172851562
173, 0, 0, 1357.772583007812
174, 0, 0, 1347.028564453125
175, 0, 0, 1330.121337890625
176, 0, 0, 1308.405029296875
177, 0, 0, 1301.92578125
178, 0, 0, 1287.393310546875
179, 0, 0, 1278.371337890625
