# TOPAS Version: 3.3.p1
# Parameter File: Test.txt
# Results for scorer MLIC_Scorer
# Scored in component: MLIC
# X in 180 bins of 0.177778 cm
# Y in 1 bin  of 10 cm
# Z in 1 bin  of 10 cm
# EnergyDeposit ( MeV ) : Sum   
0, 0, 0, 0
1, 0, 0, 0
2, 0, 0, 0
3, 0, 0, 0
4, 0, 0, 0
5, 0, 0, 0
6, 0, 0, 0
7, 0, 0, 0
8, 0, 0, 0
9, 0, 0, 0
10, 0, 0, 0
11, 0, 0, 0
12, 0, 0, 0
13, 0, 0, 0
14, 0, 0, 0
15, 0, 0, 0
16, 0, 0, 0
17, 0, 0, 0
18, 0, 0, 0
19, 0, 0, 0
20, 0, 0, 0
21, 0, 0, 0
22, 0, 0, 0
23, 0, 0, 0
24, 0, 0, 0
25, 0, 0, 0.03239098936319351
26, 0, 0, 0
27, 0, 0, 0
28, 0, 0, 0.03030666895210743
29, 0, 0, 0
30, 0, 0, 0.001095473766326904
31, 0, 0, 0
32, 0, 0, 0
33, 0, 0, 0.0004748535866383463
34, 0, 0, 0
35, 0, 0, 0
36, 0, 0, 0
37, 0, 0, 0
38, 0, 0, 0.001048776903189719
39, 0, 0, 0
40, 0, 0, 0
41, 0, 0, 0.002805531723424792
42, 0, 0, 0
43, 0, 0, 0
44, 0, 0, 22.91366386413574
45, 0, 0, 63.97633743286133
46, 0, 0, 309.093505859375
47, 0, 0, 1076.562377929688
48, 0, 0, 2438.175537109375
49, 0, 0, 3808.4765625
50, 0, 0, 4765.99267578125
51, 0, 0, 5104.99853515625
52, 0, 0, 4727.45166015625
53, 0, 0, 4170.7978515625
54, 0, 0, 3643.5419921875
55, 0, 0, 3263.153076171875
56, 0, 0, 3009.952392578125
57, 0, 0, 2802.646484375
58, 0, 0, 2640.54248046875
59, 0, 0, 2506.34228515625
60, 0, 0, 2395.610107421875
61, 0, 0, 2296.768310546875
62, 0, 0, 2204.812744140625
63, 0, 0, 2139.74853515625
64, 0, 0, 2074.9326171875
65, 0, 0, 2007.952514648438
66, 0, 0, 1958.4990234375
67, 0, 0, 1898.323120117188
68, 0, 0, 1866.568237304688
69, 0, 0, 1814.410522460938
70, 0, 0, 1770.742431640625
71, 0, 0, 1740.525268554688
72, 0, 0, 1702.870361328125
73, 0, 0, 1669.175170898438
74, 0, 0, 1644.634887695312
75, 0, 0, 1623.301391601562
76, 0, 0, 1594.009033203125
77, 0, 0, 1568.140869140625
78, 0, 0, 1545.162841796875
79, 0, 0, 1517.936279296875
80, 0, 0, 1506.151489257812
81, 0, 0, 1480.739624023438
82, 0, 0, 1462.621459960938
83, 0, 0, 1438.310668945312
84, 0, 0, 1423.239624023438
85, 0, 0, 1400.822875976562
86, 0, 0, 1385.14990234375
87, 0, 0, 1373.522705078125
88, 0, 0, 1356.013793945312
89, 0, 0, 1341.403564453125
90, 0, 0, 1328.12109375
91, 0, 0, 1311.205932617188
92, 0, 0, 1302.787719726562
93, 0, 0, 1288.238525390625
94, 0, 0, 1268.431274414062
95, 0, 0, 1270.821166992188
96, 0, 0, 1251.087280273438
97, 0, 0, 1239.630004882812
98, 0, 0, 1239.115966796875
99, 0, 0, 1218.938598632812
100, 0, 0, 1213.73583984375
101, 0, 0, 1201.747314453125
102, 0, 0, 1193.557861328125
103, 0, 0, 1174.431884765625
104, 0, 0, 1169.492065429688
105, 0, 0, 1167.247680664062
106, 0, 0, 1156.208740234375
107, 0, 0, 1151.651245117188
108, 0, 0, 1146.076904296875
109, 0, 0, 1138.559814453125
110, 0, 0, 1122.197998046875
111, 0, 0, 1120.47412109375
112, 0, 0, 1108.891967773438
113, 0, 0, 1096.085693359375
114, 0, 0, 1092.799560546875
115, 0, 0, 1093.720947265625
116, 0, 0, 1084.053466796875
117, 0, 0, 1075.1337890625
118, 0, 0, 1067.751098632812
119, 0, 0, 1058.414794921875
120, 0, 0, 1058.028686523438
121, 0, 0, 1045.969482421875
122, 0, 0, 1049.836547851562
123, 0, 0, 1033.390258789062
124, 0, 0, 1032.041748046875
125, 0, 0, 1032.28173828125
126, 0, 0, 1016.518859863281
127, 0, 0, 1010.972534179688
128, 0, 0, 1011.001342773438
129, 0, 0, 1010.108276367188
130, 0, 0, 1000.097778320312
131, 0, 0, 994.2130126953125
132, 0, 0, 990.7880249023438
133, 0, 0, 983.6724243164062
134, 0, 0, 982.8583984375
135, 0, 0, 984.73486328125
136, 0, 0, 969.5399169921875
137, 0, 0, 969.8978271484375
138, 0, 0, 964.2483520507812
139, 0, 0, 958.131103515625
140, 0, 0, 959.8257446289062
141, 0, 0, 948.1312866210938
142, 0, 0, 951.3690185546875
143, 0, 0, 939.9262084960938
144, 0, 0, 933.8003540039062
145, 0, 0, 939.0653076171875
146, 0, 0, 936.98876953125
147, 0, 0, 937.6085205078125
148, 0, 0, 924.8369750976562
149, 0, 0, 925.8719482421875
150, 0, 0, 917.308837890625
151, 0, 0, 918.6317138671875
152, 0, 0, 910.4049682617188
153, 0, 0, 904.7260131835938
154, 0, 0, 904.1259765625
155, 0, 0, 900.6384887695312
156, 0, 0, 898.3943481445312
157, 0, 0, 891.3284301757812
158, 0, 0, 895.2904663085938
159, 0, 0, 887.5678100585938
160, 0, 0, 886.2742919921875
161, 0, 0, 880.2471923828125
162, 0, 0, 879.080810546875
163, 0, 0, 868.0411376953125
164, 0, 0, 867.154052734375
165, 0, 0, 872.5001220703125
166, 0, 0, 867.233154296875
167, 0, 0, 866.177734375
168, 0, 0, 858.0662841796875
169, 0, 0, 850.1859130859375
170, 0, 0, 854.1105346679688
171, 0, 0, 859.4666137695312
172, 0, 0, 852.6217651367188
173, 0, 0, 842.2337646484375
174, 0, 0, 842.3005981445312
175, 0, 0, 840.8422241210938
176, 0, 0, 835.7023315429688
177, 0, 0, 831.164794921875
178, 0, 0, 844.7638549804688
179, 0, 0, 840.4058837890625
