# TOPAS Version: 3.3.p1
# Parameter File: Test.txt
# Results for scorer MLIC_Scorer
# Scored in component: MLIC
# X in 180 bins of 0.177778 cm
# Y in 1 bin  of 10 cm
# Z in 1 bin  of 10 cm
# EnergyDeposit ( MeV ) : Sum   
0, 0, 0, 0
1, 0, 0, 0
2, 0, 0, 0
3, 0, 0, 0
4, 0, 0, 0
5, 0, 0, 0
6, 0, 0, 0
7, 0, 0, 0
8, 0, 0, 0
9, 0, 0, 0
10, 0, 0, 0
11, 0, 0, 0
12, 0, 0, 0
13, 0, 0, 0
14, 0, 0, 0
15, 0, 0, 0
16, 0, 0, 0
17, 0, 0, 0
18, 0, 0, 0
19, 0, 0, 0
20, 0, 0, 0
21, 0, 0, 0
22, 0, 0, 0
23, 0, 0, 0
24, 0, 0, 0
25, 0, 0, 0
26, 0, 0, 0
27, 0, 0, 0
28, 0, 0, 0
29, 0, 0, 0
30, 0, 0, 0
31, 0, 0, 0
32, 0, 0, 0
33, 0, 0, 0
34, 0, 0, 0
35, 0, 0, 0
36, 0, 0, 0
37, 0, 0, 0
38, 0, 0, 0
39, 0, 0, 0
40, 0, 0, 0
41, 0, 0, 0
42, 0, 0, 0
43, 0, 0, 0
44, 0, 0, 0
45, 0, 0, 0
46, 0, 0, 0
47, 0, 0, 0
48, 0, 0, 0
49, 0, 0, 0
50, 0, 0, 0
51, 0, 0, 0
52, 0, 0, 0
53, 0, 0, 0
54, 0, 0, 0
55, 0, 0, 0
56, 0, 0, 0
57, 0, 0, 0
58, 0, 0, 0
59, 0, 0, 0
60, 0, 0, 0
61, 0, 0, 0
62, 0, 0, 0
63, 0, 0, 0
64, 0, 0, 0
65, 0, 0, 0
66, 0, 0, 0
67, 0, 0, 0
68, 0, 0, 0
69, 0, 0, 0
70, 0, 0, 0
71, 0, 0, 0
72, 0, 0, 0
73, 0, 0, 0
74, 0, 0, 0.01955701410770416
75, 0, 0, 0.003598813433200121
76, 0, 0, 1.967870354652405
77, 0, 0, 80.24535369873047
78, 0, 0, 158.7582702636719
79, 0, 0, 572.15625
80, 0, 0, 1763.1875
81, 0, 0, 3280.32421875
82, 0, 0, 4346.3740234375
83, 0, 0, 4782.0419921875
84, 0, 0, 4938.0751953125
85, 0, 0, 4514.259765625
86, 0, 0, 3925.864013671875
87, 0, 0, 3458.497314453125
88, 0, 0, 3123.26904296875
89, 0, 0, 2902.986328125
90, 0, 0, 2719.04541015625
91, 0, 0, 2569.578369140625
92, 0, 0, 2442.626220703125
93, 0, 0, 2343.24658203125
94, 0, 0, 2247.198486328125
95, 0, 0, 2177.230712890625
96, 0, 0, 2103.619873046875
97, 0, 0, 2036.52197265625
98, 0, 0, 1985.585205078125
99, 0, 0, 1926.037353515625
100, 0, 0, 1880.747802734375
101, 0, 0, 1840.166015625
102, 0, 0, 1805.533935546875
103, 0, 0, 1761.126342773438
104, 0, 0, 1724.475219726562
105, 0, 0, 1691.514282226562
106, 0, 0, 1662.793334960938
107, 0, 0, 1628.326416015625
108, 0, 0, 1608.177978515625
109, 0, 0, 1579.228515625
110, 0, 0, 1556.355834960938
111, 0, 0, 1531.06640625
112, 0, 0, 1505.762451171875
113, 0, 0, 1488.841674804688
114, 0, 0, 1463.28564453125
115, 0, 0, 1450.315307617188
116, 0, 0, 1426.2138671875
117, 0, 0, 1417.788940429688
118, 0, 0, 1397.642944335938
119, 0, 0, 1376.233154296875
120, 0, 0, 1366.748657226562
121, 0, 0, 1350.812133789062
122, 0, 0, 1328.799682617188
123, 0, 0, 1317.133911132812
124, 0, 0, 1312.2919921875
125, 0, 0, 1299.130249023438
126, 0, 0, 1281.571411132812
127, 0, 0, 1268.061889648438
128, 0, 0, 1259.090698242188
129, 0, 0, 1244.830932617188
130, 0, 0, 1239.561279296875
131, 0, 0, 1231.552001953125
132, 0, 0, 1219.869873046875
133, 0, 0, 1205.6513671875
134, 0, 0, 1197.505859375
135, 0, 0, 1189.323364257812
136, 0, 0, 1176.14404296875
137, 0, 0, 1168.456298828125
138, 0, 0, 1161.881958007812
139, 0, 0, 1149.546630859375
140, 0, 0, 1145.09765625
141, 0, 0, 1140.244506835938
142, 0, 0, 1126.650634765625
143, 0, 0, 1122.35693359375
144, 0, 0, 1115.011962890625
145, 0, 0, 1106.561645507812
146, 0, 0, 1096.1748046875
147, 0, 0, 1089.378173828125
148, 0, 0, 1084.70947265625
149, 0, 0, 1079.146606445312
150, 0, 0, 1064.4462890625
151, 0, 0, 1065.398559570312
152, 0, 0, 1050.050048828125
153, 0, 0, 1054.442260742188
154, 0, 0, 1046.7958984375
155, 0, 0, 1045.723754882812
156, 0, 0, 1037.784545898438
157, 0, 0, 1033.136840820312
158, 0, 0, 1031.174194335938
159, 0, 0, 1013.4296875
160, 0, 0, 1014.236328125
161, 0, 0, 1005.687316894531
162, 0, 0, 1006.793701171875
163, 0, 0, 997.7833862304688
164, 0, 0, 989.6162719726562
165, 0, 0, 989.3135375976562
166, 0, 0, 980.40234375
167, 0, 0, 986.21142578125
168, 0, 0, 978.7518920898438
169, 0, 0, 977.4236450195312
170, 0, 0, 976.089111328125
171, 0, 0, 969.0130004882812
172, 0, 0, 962.2696533203125
173, 0, 0, 951.108642578125
174, 0, 0, 946.5432739257812
175, 0, 0, 948.3268432617188
176, 0, 0, 939.7232666015625
177, 0, 0, 926.5401611328125
178, 0, 0, 935.059326171875
179, 0, 0, 921.5745239257812
