# TOPAS Version: 3.3.p1
# Parameter File: Test.txt
# Results for scorer MLIC_Scorer
# Scored in component: MLIC
# X in 180 bins of 0.177778 cm
# Y in 1 bin  of 10 cm
# Z in 1 bin  of 10 cm
# EnergyDeposit ( MeV ) : Sum   
0, 0, 0, 0
1, 0, 0, 0.00038148756721057
2, 0, 0, 0
3, 0, 0, 0
4, 0, 0, 0
5, 0, 0, 0
6, 0, 0, 0
7, 0, 0, 0
8, 0, 0, 0
9, 0, 0, 0
10, 0, 0, 0
11, 0, 0, 0
12, 0, 0, 0
13, 0, 0, 0
14, 0, 0, 0
15, 0, 0, 0
16, 0, 0, 0
17, 0, 0, 0.0009242520318366587
18, 0, 0, 0
19, 0, 0, 0
20, 0, 0, 0
21, 0, 0, 0
22, 0, 0, 0
23, 0, 0, 0
24, 0, 0, 0.03868460655212402
25, 0, 0, 0
26, 0, 0, 0
27, 0, 0, 0
28, 0, 0, 0
29, 0, 0, 0
30, 0, 0, 0
31, 0, 0, 40.62271499633789
32, 0, 0, 285.3993835449219
33, 0, 0, 833.4568481445312
34, 0, 0, 1874.350708007812
35, 0, 0, 3459.1806640625
36, 0, 0, 4337.8798828125
37, 0, 0, 4941.06005859375
38, 0, 0, 4983.83544921875
39, 0, 0, 4295.2021484375
40, 0, 0, 3826.698486328125
41, 0, 0, 3425.763916015625
42, 0, 0, 3099.5126953125
43, 0, 0, 2872.7763671875
44, 0, 0, 2698.631103515625
45, 0, 0, 2551.17919921875
46, 0, 0, 2427.774658203125
47, 0, 0, 2333.552978515625
48, 0, 0, 2241.858642578125
49, 0, 0, 2166.52099609375
50, 0, 0, 2098.0419921875
51, 0, 0, 2025.24365234375
52, 0, 0, 1974.388793945312
53, 0, 0, 1931.925415039062
54, 0, 0, 1874.6318359375
55, 0, 0, 1832.752807617188
56, 0, 0, 1785.813232421875
57, 0, 0, 1753.592163085938
58, 0, 0, 1716.552368164062
59, 0, 0, 1682.853393554688
60, 0, 0, 1658.6005859375
61, 0, 0, 1627.0029296875
62, 0, 0, 1593.953857421875
63, 0, 0, 1571.027221679688
64, 0, 0, 1548.369506835938
65, 0, 0, 1527.697021484375
66, 0, 0, 1508.369262695312
67, 0, 0, 1484.210205078125
68, 0, 0, 1464.38525390625
69, 0, 0, 1448.738037109375
70, 0, 0, 1429.524536132812
71, 0, 0, 1414.697998046875
72, 0, 0, 1390.133911132812
73, 0, 0, 1376.7724609375
74, 0, 0, 1364.743408203125
75, 0, 0, 1342.734252929688
76, 0, 0, 1327.238525390625
77, 0, 0, 1318.546142578125
78, 0, 0, 1306.32861328125
79, 0, 0, 1297.126953125
80, 0, 0, 1284.669799804688
81, 0, 0, 1274.747436523438
82, 0, 0, 1260.873413085938
83, 0, 0, 1248.064086914062
84, 0, 0, 1237.705078125
85, 0, 0, 1227.712036132812
86, 0, 0, 1219.803588867188
87, 0, 0, 1207.497314453125
88, 0, 0, 1193.451538085938
89, 0, 0, 1182.630004882812
90, 0, 0, 1170.156372070312
91, 0, 0, 1166.930908203125
92, 0, 0, 1159.098022460938
93, 0, 0, 1153.934936523438
94, 0, 0, 1139.218139648438
95, 0, 0, 1141.256713867188
96, 0, 0, 1121.259643554688
97, 0, 0, 1113.742431640625
98, 0, 0, 1111.602661132812
99, 0, 0, 1105.941162109375
100, 0, 0, 1102.397216796875
101, 0, 0, 1089.56884765625
102, 0, 0, 1084.604248046875
103, 0, 0, 1072.697021484375
104, 0, 0, 1066.886474609375
105, 0, 0, 1059.313842773438
106, 0, 0, 1056.338134765625
107, 0, 0, 1045.361450195312
108, 0, 0, 1047.593872070312
109, 0, 0, 1038.60498046875
110, 0, 0, 1030.8134765625
111, 0, 0, 1024.1875
112, 0, 0, 1025.858642578125
113, 0, 0, 1022.431762695312
114, 0, 0, 1020.678344726562
115, 0, 0, 1008.248779296875
116, 0, 0, 1005.464111328125
117, 0, 0, 998.5338134765625
118, 0, 0, 991.77197265625
119, 0, 0, 990.2284545898438
120, 0, 0, 983.15625
121, 0, 0, 976.6461791992188
122, 0, 0, 981.0115966796875
123, 0, 0, 966.3016967773438
124, 0, 0, 964.7211303710938
125, 0, 0, 964.168212890625
126, 0, 0, 955.7239379882812
127, 0, 0, 952.3680419921875
128, 0, 0, 952.3259887695312
129, 0, 0, 945.4703369140625
130, 0, 0, 952.3345947265625
131, 0, 0, 943.7736206054688
132, 0, 0, 935.2454223632812
133, 0, 0, 937.6057739257812
134, 0, 0, 926.9083251953125
135, 0, 0, 919.540771484375
136, 0, 0, 920.7744140625
137, 0, 0, 908.3313598632812
138, 0, 0, 906.1279907226562
139, 0, 0, 897.0648193359375
140, 0, 0, 901.7879638671875
141, 0, 0, 892.3573608398438
142, 0, 0, 894.2576904296875
143, 0, 0, 891.0745849609375
144, 0, 0, 900.6679077148438
145, 0, 0, 892.1307373046875
146, 0, 0, 889.4609375
147, 0, 0, 877.7495727539062
148, 0, 0, 881.54052734375
149, 0, 0, 879.7494506835938
150, 0, 0, 878.126953125
151, 0, 0, 873.709228515625
152, 0, 0, 865.9356079101562
153, 0, 0, 866.5966186523438
154, 0, 0, 865.488037109375
155, 0, 0, 860.54638671875
156, 0, 0, 867.002197265625
157, 0, 0, 860.0606079101562
158, 0, 0, 852.9027709960938
159, 0, 0, 848.3914184570312
160, 0, 0, 844.9735717773438
161, 0, 0, 841.3198852539062
162, 0, 0, 840.4616088867188
163, 0, 0, 834.8571166992188
164, 0, 0, 830.14013671875
165, 0, 0, 829.8309936523438
166, 0, 0, 827.9346313476562
167, 0, 0, 828.815673828125
168, 0, 0, 837.7993774414062
169, 0, 0, 827.7380981445312
170, 0, 0, 824.7920532226562
171, 0, 0, 819.4564208984375
172, 0, 0, 815.4430541992188
173, 0, 0, 816.340576171875
174, 0, 0, 809.1212768554688
175, 0, 0, 807.8541259765625
176, 0, 0, 801.86962890625
177, 0, 0, 813.1257934570312
178, 0, 0, 804.0315551757812
179, 0, 0, 794.9213256835938
