# TOPAS Version: 3.3.p1
# Parameter File: Test.txt
# Results for scorer MLIC_Scorer
# Scored in component: MLIC
# X in 180 bins of 0.177778 cm
# Y in 1 bin  of 10 cm
# Z in 1 bin  of 10 cm
# EnergyDeposit ( MeV ) : Sum   
0, 0, 0, 0
1, 0, 0, 0
2, 0, 0, 0
3, 0, 0, 0
4, 0, 0, 0
5, 0, 0, 0
6, 0, 0, 0
7, 0, 0, 0
8, 0, 0, 0
9, 0, 0, 0
10, 0, 0, 0
11, 0, 0, 0
12, 0, 0, 0
13, 0, 0, 0
14, 0, 0, 0
15, 0, 0, 0
16, 0, 0, 0
17, 0, 0, 0
18, 0, 0, 0
19, 0, 0, 0
20, 0, 0, 0
21, 0, 0, 0
22, 0, 0, 0
23, 0, 0, 0
24, 0, 0, 0
25, 0, 0, 0
26, 0, 0, 0
27, 0, 0, 0
28, 0, 0, 0
29, 0, 0, 0
30, 0, 0, 0
31, 0, 0, 0
32, 0, 0, 0
33, 0, 0, 0
34, 0, 0, 0
35, 0, 0, 0
36, 0, 0, 0
37, 0, 0, 0
38, 0, 0, 0
39, 0, 0, 0
40, 0, 0, 0
41, 0, 0, 0
42, 0, 0, 0
43, 0, 0, 0
44, 0, 0, 0
45, 0, 0, 0
46, 0, 0, 0
47, 0, 0, 0
48, 0, 0, 0
49, 0, 0, 0
50, 0, 0, 0
51, 0, 0, 0
52, 0, 0, 0
53, 0, 0, 0
54, 0, 0, 0
55, 0, 0, 0
56, 0, 0, 0
57, 0, 0, 0
58, 0, 0, 0
59, 0, 0, 0
60, 0, 0, 0
61, 0, 0, 0
62, 0, 0, 0
63, 0, 0, 0
64, 0, 0, 0
65, 0, 0, 0
66, 0, 0, 0
67, 0, 0, 0
68, 0, 0, 0
69, 0, 0, 0
70, 0, 0, 0
71, 0, 0, 0
72, 0, 0, 0
73, 0, 0, 0
74, 0, 0, 0
75, 0, 0, 0
76, 0, 0, 0
77, 0, 0, 0
78, 0, 0, 0
79, 0, 0, 0
80, 0, 0, 0
81, 0, 0, 0
82, 0, 0, 0
83, 0, 0, 0
84, 0, 0, 0
85, 0, 0, 0
86, 0, 0, 0
87, 0, 0, 0
88, 0, 0, 0
89, 0, 0, 0
90, 0, 0, 0
91, 0, 0, 0
92, 0, 0, 0
93, 0, 0, 0
94, 0, 0, 0
95, 0, 0, 0
96, 0, 0, 0
97, 0, 0, 0
98, 0, 0, 0
99, 0, 0, 0
100, 0, 0, 0
101, 0, 0, 0
102, 0, 0, 0
103, 0, 0, 0
104, 0, 0, 13.13611507415771
105, 0, 0, 18.34894752502441
106, 0, 0, 63.18220901489258
107, 0, 0, 160.1269073486328
108, 0, 0, 279.9879455566406
109, 0, 0, 285.1581115722656
110, 0, 0, 283.9903564453125
111, 0, 0, 284.3901672363281
112, 0, 0, 251.3717651367188
113, 0, 0, 224.1464233398438
114, 0, 0, 197.0766754150391
115, 0, 0, 182.2648620605469
116, 0, 0, 169.2786254882812
117, 0, 0, 159.1450805664062
118, 0, 0, 152.9438018798828
119, 0, 0, 147.1491394042969
120, 0, 0, 140.7796630859375
121, 0, 0, 134.5496978759766
122, 0, 0, 130.2918395996094
123, 0, 0, 124.3405914306641
124, 0, 0, 122.5170211791992
125, 0, 0, 118.1572952270508
126, 0, 0, 117.2681121826172
127, 0, 0, 111.490364074707
128, 0, 0, 110.1100769042969
129, 0, 0, 108.4188613891602
130, 0, 0, 108.1020126342773
131, 0, 0, 104.6901092529297
132, 0, 0, 101.4829406738281
133, 0, 0, 101.8895797729492
134, 0, 0, 99.37213897705078
135, 0, 0, 96.04047393798828
136, 0, 0, 96.01222991943359
137, 0, 0, 95.46540832519531
138, 0, 0, 93.09516906738281
139, 0, 0, 90.82830047607422
140, 0, 0, 89.74987030029297
141, 0, 0, 88.94960784912109
142, 0, 0, 88.10327911376953
143, 0, 0, 86.44859313964844
144, 0, 0, 86.10890960693359
145, 0, 0, 84.26734161376953
146, 0, 0, 83.41803741455078
147, 0, 0, 83.91663360595703
148, 0, 0, 84.25222778320312
149, 0, 0, 79.13145446777344
150, 0, 0, 81.35755157470703
151, 0, 0, 78.27576446533203
152, 0, 0, 77.66764831542969
153, 0, 0, 77.66128540039062
154, 0, 0, 77.29924011230469
155, 0, 0, 76.05703735351562
156, 0, 0, 77.26763916015625
157, 0, 0, 74.74594116210938
158, 0, 0, 74.89451599121094
159, 0, 0, 74.31120300292969
160, 0, 0, 75.99291229248047
161, 0, 0, 72.22688293457031
162, 0, 0, 72.85804748535156
163, 0, 0, 71.52877807617188
164, 0, 0, 69.88010406494141
165, 0, 0, 70.40974426269531
166, 0, 0, 69.99057769775391
167, 0, 0, 68.80680847167969
168, 0, 0, 69.24474334716797
169, 0, 0, 69.05316162109375
170, 0, 0, 67.78925323486328
171, 0, 0, 66.86349487304688
172, 0, 0, 66.76250457763672
173, 0, 0, 67.07125854492188
174, 0, 0, 67.18820953369141
175, 0, 0, 65.70285797119141
176, 0, 0, 66.33080291748047
177, 0, 0, 63.57973861694336
178, 0, 0, 63.68975448608398
179, 0, 0, 63.9056510925293
