# TOPAS Version: 3.3.p1
# Parameter File: Test.txt
# Results for scorer MLIC_Scorer
# Scored in component: MLIC
# X in 180 bins of 0.183333 cm
# Y in 1 bin  of 10 cm
# Z in 1 bin  of 10 cm
# EnergyDeposit ( MeV ) : Sum   
0, 0, 0, 0
1, 0, 0, 0
2, 0, 0, 0
3, 0, 0, 0
4, 0, 0, 0
5, 0, 0, 0
6, 0, 0, 0
7, 0, 0, 0
8, 0, 0, 0
9, 0, 0, 0
10, 0, 0, 0
11, 0, 0, 0
12, 0, 0, 0
13, 0, 0, 0
14, 0, 0, 0
15, 0, 0, 0
16, 0, 0, 0
17, 0, 0, 0
18, 0, 0, 0
19, 0, 0, 0
20, 0, 0, 0
21, 0, 0, 0
22, 0, 0, 0
23, 0, 0, 0
24, 0, 0, 0
25, 0, 0, 0
26, 0, 0, 0
27, 0, 0, 0
28, 0, 0, 0
29, 0, 0, 0
30, 0, 0, 0
31, 0, 0, 0
32, 0, 0, 0
33, 0, 0, 0
34, 0, 0, 0
35, 0, 0, 0
36, 0, 0, 0
37, 0, 0, 0
38, 0, 0, 0
39, 0, 0, 0
40, 0, 0, 0
41, 0, 0, 0
42, 0, 0, 0
43, 0, 0, 0
44, 0, 0, 0
45, 0, 0, 0
46, 0, 0, 0
47, 0, 0, 0
48, 0, 0, 0
49, 0, 0, 0
50, 0, 0, 0
51, 0, 0, 0
52, 0, 0, 0
53, 0, 0, 0
54, 0, 0, 0
55, 0, 0, 0
56, 0, 0, 0
57, 0, 0, 0
58, 0, 0, 0
59, 0, 0, 0
60, 0, 0, 0
61, 0, 0, 0
62, 0, 0, 0
63, 0, 0, 0
64, 0, 0, 0
65, 0, 0, 0
66, 0, 0, 0
67, 0, 0, 0
68, 0, 0, 0
69, 0, 0, 0
70, 0, 0, 0
71, 0, 0, 0
72, 0, 0, 0
73, 0, 0, 0
74, 0, 0, 0
75, 0, 0, 0
76, 0, 0, 0
77, 0, 0, 0
78, 0, 0, 0
79, 0, 0, 0
80, 0, 0, 0
81, 0, 0, 0
82, 0, 0, 0
83, 0, 0, 0
84, 0, 0, 0
85, 0, 0, 0
86, 0, 0, 0
87, 0, 0, 0
88, 0, 0, 0
89, 0, 0, 0
90, 0, 0, 0
91, 0, 0, 0
92, 0, 0, 0
93, 0, 0, 0
94, 0, 0, 0
95, 0, 0, 0
96, 0, 0, 0
97, 0, 0, 0
98, 0, 0, 0
99, 0, 0, 0
100, 0, 0, 0
101, 0, 0, 0
102, 0, 0, 16.21624946594238
103, 0, 0, 92.194580078125
104, 0, 0, 467.7772216796875
105, 0, 0, 1373.244750976562
106, 0, 0, 2891.127197265625
107, 0, 0, 4337.60791015625
108, 0, 0, 5007.0107421875
109, 0, 0, 5115.81787109375
110, 0, 0, 4682.09326171875
111, 0, 0, 4070.194580078125
112, 0, 0, 3590.03173828125
113, 0, 0, 3243.446533203125
114, 0, 0, 2991.87060546875
115, 0, 0, 2799.531982421875
116, 0, 0, 2648.726318359375
117, 0, 0, 2506.69189453125
118, 0, 0, 2399.943115234375
119, 0, 0, 2301.469970703125
120, 0, 0, 2226.954345703125
121, 0, 0, 2153.6640625
122, 0, 0, 2082.39794921875
123, 0, 0, 2023.480224609375
124, 0, 0, 1978.418701171875
125, 0, 0, 1920.088745117188
126, 0, 0, 1878.853515625
127, 0, 0, 1837.561767578125
128, 0, 0, 1792.05078125
129, 0, 0, 1760.394409179688
130, 0, 0, 1728.150634765625
131, 0, 0, 1696.694091796875
132, 0, 0, 1664.513305664062
133, 0, 0, 1639.117919921875
134, 0, 0, 1610.094482421875
135, 0, 0, 1580.678344726562
136, 0, 0, 1560.049682617188
137, 0, 0, 1529.086669921875
138, 0, 0, 1515.749267578125
139, 0, 0, 1493.642822265625
140, 0, 0, 1479.618041992188
141, 0, 0, 1461.730712890625
142, 0, 0, 1444.874877929688
143, 0, 0, 1421.753784179688
144, 0, 0, 1406.388061523438
145, 0, 0, 1393.058959960938
146, 0, 0, 1372.949951171875
147, 0, 0, 1354.357421875
148, 0, 0, 1342.826416015625
149, 0, 0, 1328.491455078125
150, 0, 0, 1312.832763671875
151, 0, 0, 1307.773803710938
152, 0, 0, 1287.0625
153, 0, 0, 1282.337036132812
154, 0, 0, 1277.828125
155, 0, 0, 1255.829467773438
156, 0, 0, 1245.910522460938
157, 0, 0, 1237.640869140625
158, 0, 0, 1230.87890625
159, 0, 0, 1219.567626953125
160, 0, 0, 1206.561767578125
161, 0, 0, 1199.65185546875
162, 0, 0, 1183.474731445312
163, 0, 0, 1188.784912109375
164, 0, 0, 1161.85693359375
165, 0, 0, 1161.959716796875
166, 0, 0, 1155.8505859375
167, 0, 0, 1143.15673828125
168, 0, 0, 1146.248046875
169, 0, 0, 1137.401611328125
170, 0, 0, 1128.106811523438
171, 0, 0, 1122.036865234375
172, 0, 0, 1105.463256835938
173, 0, 0, 1102.547729492188
174, 0, 0, 1097.0224609375
175, 0, 0, 1092.325927734375
176, 0, 0, 1086.3837890625
177, 0, 0, 1081.92919921875
178, 0, 0, 1072.066040039062
179, 0, 0, 1070.530883789062
