# TOPAS Version: 3.3.p1
# Parameter File: Test.txt
# Results for scorer MLIC_Scorer
# Scored in component: MLIC
# X in 180 bins of 0.177778 cm
# Y in 1 bin  of 10 cm
# Z in 1 bin  of 10 cm
# EnergyDeposit ( MeV ) : Sum   
0, 0, 0, 0
1, 0, 0, 0
2, 0, 0, 0
3, 0, 0, 0
4, 0, 0, 0
5, 0, 0, 0
6, 0, 0, 0
7, 0, 0, 0
8, 0, 0, 0
9, 0, 0, 0
10, 0, 0, 0
11, 0, 0, 0
12, 0, 0, 0
13, 0, 0, 0
14, 0, 0, 0
15, 0, 0, 0
16, 0, 0, 0
17, 0, 0, 0
18, 0, 0, 0
19, 0, 0, 0
20, 0, 0, 0
21, 0, 0, 0
22, 0, 0, 0
23, 0, 0, 0
24, 0, 0, 0
25, 0, 0, 0
26, 0, 0, 0
27, 0, 0, 0
28, 0, 0, 0
29, 0, 0, 0
30, 0, 0, 0
31, 0, 0, 0
32, 0, 0, 0
33, 0, 0, 0
34, 0, 0, 0
35, 0, 0, 0
36, 0, 0, 0
37, 0, 0, 0
38, 0, 0, 0
39, 0, 0, 0
40, 0, 0, 0
41, 0, 0, 0
42, 0, 0, 0
43, 0, 0, 0
44, 0, 0, 0
45, 0, 0, 0
46, 0, 0, 0
47, 0, 0, 0
48, 0, 0, 0
49, 0, 0, 0
50, 0, 0, 0
51, 0, 0, 0
52, 0, 0, 0
53, 0, 0, 0
54, 0, 0, 0
55, 0, 0, 0
56, 0, 0, 0
57, 0, 0, 0
58, 0, 0, 0.05766105651855469
59, 0, 0, 0
60, 0, 0, 0
61, 0, 0, 0.01447346340864897
62, 0, 0, 0
63, 0, 0, 0
64, 0, 0, 0
65, 0, 0, 0
66, 0, 0, 0
67, 0, 0, 0
68, 0, 0, 0
69, 0, 0, 0
70, 0, 0, 0
71, 0, 0, 0
72, 0, 0, 0
73, 0, 0, 0
74, 0, 0, 0
75, 0, 0, 0
76, 0, 0, 0
77, 0, 0, 0
78, 0, 0, 0
79, 0, 0, 0
80, 0, 0, 0
81, 0, 0, 0
82, 0, 0, 0
83, 0, 0, 0
84, 0, 0, 0.04021323844790459
85, 0, 0, 0.02288071811199188
86, 0, 0, 0
87, 0, 0, 0
88, 0, 0, 0
89, 0, 0, 0
90, 0, 0, 0
91, 0, 0, 0
92, 0, 0, 0
93, 0, 0, 0.02770642563700676
94, 0, 0, 0
95, 0, 0, 0
96, 0, 0, 0
97, 0, 0, 24.56776237487793
98, 0, 0, 199.9905090332031
99, 0, 0, 632.1903076171875
100, 0, 0, 1576.68017578125
101, 0, 0, 3046.941162109375
102, 0, 0, 4310.85302734375
103, 0, 0, 4948.48583984375
104, 0, 0, 4932.92626953125
105, 0, 0, 4480.5205078125
106, 0, 0, 3917.523681640625
107, 0, 0, 3501.43408203125
108, 0, 0, 3151.7109375
109, 0, 0, 2910.999755859375
110, 0, 0, 2726.707275390625
111, 0, 0, 2589.950439453125
112, 0, 0, 2458.129150390625
113, 0, 0, 2358.1318359375
114, 0, 0, 2258.5810546875
115, 0, 0, 2180.53955078125
116, 0, 0, 2109.360107421875
117, 0, 0, 2046.215942382812
118, 0, 0, 1989.873779296875
119, 0, 0, 1936.75146484375
120, 0, 0, 1887.675659179688
121, 0, 0, 1836.57958984375
122, 0, 0, 1795.091918945312
123, 0, 0, 1759.534301757812
124, 0, 0, 1726.50927734375
125, 0, 0, 1688.535400390625
126, 0, 0, 1664.56494140625
127, 0, 0, 1633.300415039062
128, 0, 0, 1599.24609375
129, 0, 0, 1580.70458984375
130, 0, 0, 1556.5166015625
131, 0, 0, 1534.191528320312
132, 0, 0, 1510.053955078125
133, 0, 0, 1491.68310546875
134, 0, 0, 1469.234375
135, 0, 0, 1454.107055664062
136, 0, 0, 1430.47802734375
137, 0, 0, 1413.6162109375
138, 0, 0, 1404.432373046875
139, 0, 0, 1380.94921875
140, 0, 0, 1364.578735351562
141, 0, 0, 1352.302490234375
142, 0, 0, 1337.587158203125
143, 0, 0, 1317.225341796875
144, 0, 0, 1314.436767578125
145, 0, 0, 1297.328002929688
146, 0, 0, 1284.851684570312
147, 0, 0, 1269.2099609375
148, 0, 0, 1264.3876953125
149, 0, 0, 1248.906616210938
150, 0, 0, 1235.933471679688
151, 0, 0, 1226.52783203125
152, 0, 0, 1219.872802734375
153, 0, 0, 1215.17041015625
154, 0, 0, 1190.718017578125
155, 0, 0, 1180.739990234375
156, 0, 0, 1170.400268554688
157, 0, 0, 1169.037841796875
158, 0, 0, 1155.188232421875
159, 0, 0, 1147.729248046875
160, 0, 0, 1140.050903320312
161, 0, 0, 1137.775390625
162, 0, 0, 1127.073486328125
163, 0, 0, 1121.926147460938
164, 0, 0, 1119.1357421875
165, 0, 0, 1103.818359375
166, 0, 0, 1101.492431640625
167, 0, 0, 1094.065551757812
168, 0, 0, 1084.440185546875
169, 0, 0, 1078.326049804688
170, 0, 0, 1075.977172851562
171, 0, 0, 1055.116943359375
172, 0, 0, 1054.91650390625
173, 0, 0, 1054.112915039062
174, 0, 0, 1058.055786132812
175, 0, 0, 1040.075439453125
176, 0, 0, 1032.166259765625
177, 0, 0, 1028.110473632812
178, 0, 0, 1032.257446289062
179, 0, 0, 1016.521362304688
