# TOPAS Version: 3.3.p1
# Parameter File: Test.txt
# Results for scorer MLIC_Scorer
# Scored in component: MLIC
# X in 180 bins of 0.177778 cm
# Y in 1 bin  of 10 cm
# Z in 1 bin  of 10 cm
# EnergyDeposit ( MeV ) : Sum   
0, 0, 0, 0
1, 0, 0, 0
2, 0, 0, 0
3, 0, 0, 0
4, 0, 0, 0
5, 0, 0, 0
6, 0, 0, 0
7, 0, 0, 0
8, 0, 0, 0
9, 0, 0, 0
10, 0, 0, 0
11, 0, 0, 0
12, 0, 0, 0
13, 0, 0, 0
14, 0, 0, 0
15, 0, 0, 0
16, 0, 0, 0
17, 0, 0, 0
18, 0, 0, 0
19, 0, 0, 0
20, 0, 0, 0
21, 0, 0, 0
22, 0, 0, 0
23, 0, 0, 0
24, 0, 0, 0
25, 0, 0, 0
26, 0, 0, 0
27, 0, 0, 0
28, 0, 0, 0
29, 0, 0, 0
30, 0, 0, 0
31, 0, 0, 0
32, 0, 0, 0
33, 0, 0, 0
34, 0, 0, 0
35, 0, 0, 0
36, 0, 0, 0
37, 0, 0, 0
38, 0, 0, 0
39, 0, 0, 0
40, 0, 0, 0
41, 0, 0, 0
42, 0, 0, 0
43, 0, 0, 0
44, 0, 0, 0
45, 0, 0, 0
46, 0, 0, 0
47, 0, 0, 0
48, 0, 0, 0
49, 0, 0, 0
50, 0, 0, 0
51, 0, 0, 0
52, 0, 0, 0
53, 0, 0, 0
54, 0, 0, 0
55, 0, 0, 0
56, 0, 0, 0
57, 0, 0, 0
58, 0, 0, 0
59, 0, 0, 0
60, 0, 0, 0
61, 0, 0, 0
62, 0, 0, 0
63, 0, 0, 0
64, 0, 0, 0
65, 0, 0, 0
66, 0, 0, 0
67, 0, 0, 0
68, 0, 0, 0
69, 0, 0, 0
70, 0, 0, 0
71, 0, 0, 0
72, 0, 0, 0
73, 0, 0, 0
74, 0, 0, 0
75, 0, 0, 0
76, 0, 0, 0
77, 0, 0, 0
78, 0, 0, 0
79, 0, 0, 0
80, 0, 0, 0
81, 0, 0, 0
82, 0, 0, 0
83, 0, 0, 0
84, 0, 0, 0
85, 0, 0, 0.002900025341659784
86, 0, 0, 0.005297609604895115
87, 0, 0, 0
88, 0, 0, 0
89, 0, 0, 0
90, 0, 0, 0
91, 0, 0, 0.04074738547205925
92, 0, 0, 0
93, 0, 0, 0
94, 0, 0, 0
95, 0, 0, 0
96, 0, 0, 0
97, 0, 0, 0
98, 0, 0, 0.04544679448008537
99, 0, 0, 0
100, 0, 0, 0
101, 0, 0, 0
102, 0, 0, 0
103, 0, 0, 14.57626533508301
104, 0, 0, 151.2132110595703
105, 0, 0, 396.6944274902344
106, 0, 0, 1227.049072265625
107, 0, 0, 2581.0859375
108, 0, 0, 4049.21728515625
109, 0, 0, 4777.28369140625
110, 0, 0, 5138.3798828125
111, 0, 0, 4647.39208984375
112, 0, 0, 4119.1787109375
113, 0, 0, 3567.1689453125
114, 0, 0, 3221.113037109375
115, 0, 0, 2974.37890625
116, 0, 0, 2767.42822265625
117, 0, 0, 2614.33935546875
118, 0, 0, 2486.556640625
119, 0, 0, 2381.279541015625
120, 0, 0, 2282.769287109375
121, 0, 0, 2200.166015625
122, 0, 0, 2126.7880859375
123, 0, 0, 2056.756591796875
124, 0, 0, 1996.992919921875
125, 0, 0, 1944.86279296875
126, 0, 0, 1901.613647460938
127, 0, 0, 1854.780639648438
128, 0, 0, 1811.910034179688
129, 0, 0, 1777.918823242188
130, 0, 0, 1734.669799804688
131, 0, 0, 1701.594848632812
132, 0, 0, 1671.898681640625
133, 0, 0, 1647.056640625
134, 0, 0, 1614.790771484375
135, 0, 0, 1591.101318359375
136, 0, 0, 1562.142456054688
137, 0, 0, 1537.58984375
138, 0, 0, 1518.245361328125
139, 0, 0, 1501.34326171875
140, 0, 0, 1471.168090820312
141, 0, 0, 1458.064453125
142, 0, 0, 1436.133666992188
143, 0, 0, 1415.956298828125
144, 0, 0, 1400.97998046875
145, 0, 0, 1388.74951171875
146, 0, 0, 1373.087524414062
147, 0, 0, 1355.947998046875
148, 0, 0, 1337.287109375
149, 0, 0, 1322.809814453125
150, 0, 0, 1303.758666992188
151, 0, 0, 1298.057250976562
152, 0, 0, 1284.122802734375
153, 0, 0, 1281.00537109375
154, 0, 0, 1264.0126953125
155, 0, 0, 1251.171508789062
156, 0, 0, 1239.936157226562
157, 0, 0, 1229.573608398438
158, 0, 0, 1222.254760742188
159, 0, 0, 1211.004272460938
160, 0, 0, 1201.626342773438
161, 0, 0, 1192.156005859375
162, 0, 0, 1185.328247070312
163, 0, 0, 1172.683837890625
164, 0, 0, 1160.634155273438
165, 0, 0, 1153.154052734375
166, 0, 0, 1140.739379882812
167, 0, 0, 1133.183837890625
168, 0, 0, 1124.035034179688
169, 0, 0, 1126.173461914062
170, 0, 0, 1116.063354492188
171, 0, 0, 1106.216918945312
172, 0, 0, 1098.653930664062
173, 0, 0, 1095.745727539062
174, 0, 0, 1077.251342773438
175, 0, 0, 1081.347412109375
176, 0, 0, 1070.311279296875
177, 0, 0, 1072.599487304688
178, 0, 0, 1061.729370117188
179, 0, 0, 1059.708129882812
