# TOPAS Version: 3.3.p1
# Parameter File: Test.txt
# Results for scorer MLIC_Scorer
# Scored in component: MLIC
# X in 180 bins of 0.222222 cm
# Y in 1 bin  of 10 cm
# Z in 1 bin  of 10 cm
# EnergyDeposit ( MeV ) : Sum   
0, 0, 0, 0
1, 0, 0, 0
2, 0, 0, 0
3, 0, 0, 0
4, 0, 0, 0
5, 0, 0, 0
6, 0, 0, 0
7, 0, 0, 0
8, 0, 0, 0
9, 0, 0, 0
10, 0, 0, 0
11, 0, 0, 0
12, 0, 0, 0
13, 0, 0, 0
14, 0, 0, 0
15, 0, 0, 0
16, 0, 0, 0
17, 0, 0, 0
18, 0, 0, 0.001106887473724782
19, 0, 0, 0
20, 0, 0, 0
21, 0, 0, 0
22, 0, 0, 0
23, 0, 0, 0
24, 0, 0, 0
25, 0, 0, 0
26, 0, 0, 0
27, 0, 0, 0
28, 0, 0, 0
29, 0, 0, 0
30, 0, 0, 0
31, 0, 0, 0
32, 0, 0, 0
33, 0, 0, 0
34, 0, 0, 0
35, 0, 0, 0.002079446334391832
36, 0, 0, 0.0297634769231081
37, 0, 0, 0
38, 0, 0, 0.02274608798325062
39, 0, 0, 0
40, 0, 0, 0
41, 0, 0, 0
42, 0, 0, 0
43, 0, 0, 0
44, 0, 0, 0.02470007725059986
45, 0, 0, 0
46, 0, 0, 0
47, 0, 0, 13.20345783233643
48, 0, 0, 148.5689392089844
49, 0, 0, 613.5337524414062
50, 0, 0, 1953.248657226562
51, 0, 0, 4254.01171875
52, 0, 0, 5920.03466796875
53, 0, 0, 6318.32763671875
54, 0, 0, 5564.24853515625
55, 0, 0, 4709.54541015625
56, 0, 0, 4119.13525390625
57, 0, 0, 3708.619384765625
58, 0, 0, 3408.498291015625
59, 0, 0, 3178.88330078125
60, 0, 0, 2998.550048828125
61, 0, 0, 2848.53369140625
62, 0, 0, 2720.2666015625
63, 0, 0, 2615.371826171875
64, 0, 0, 2517.61083984375
65, 0, 0, 2433.53271484375
66, 0, 0, 2357.527099609375
67, 0, 0, 2288.612548828125
68, 0, 0, 2227.28857421875
69, 0, 0, 2165.842529296875
70, 0, 0, 2119.26171875
71, 0, 0, 2065.8642578125
72, 0, 0, 2036.225341796875
73, 0, 0, 1980.93115234375
74, 0, 0, 1934.636474609375
75, 0, 0, 1908.53125
76, 0, 0, 1880.81201171875
77, 0, 0, 1848.011474609375
78, 0, 0, 1823.017456054688
79, 0, 0, 1791.747924804688
80, 0, 0, 1760.086303710938
81, 0, 0, 1737.174194335938
82, 0, 0, 1706.430053710938
83, 0, 0, 1680.824951171875
84, 0, 0, 1656.597412109375
85, 0, 0, 1639.193725585938
86, 0, 0, 1618.876953125
87, 0, 0, 1596.950927734375
88, 0, 0, 1584.287109375
89, 0, 0, 1570.889892578125
90, 0, 0, 1553.552978515625
91, 0, 0, 1531.219970703125
92, 0, 0, 1512.69140625
93, 0, 0, 1494.6611328125
94, 0, 0, 1484.486694335938
95, 0, 0, 1462.609985351562
96, 0, 0, 1457.46484375
97, 0, 0, 1445.062133789062
98, 0, 0, 1432.376953125
99, 0, 0, 1419.887817382812
100, 0, 0, 1408.067504882812
101, 0, 0, 1402.251342773438
102, 0, 0, 1387.181396484375
103, 0, 0, 1375.464721679688
104, 0, 0, 1351.453735351562
105, 0, 0, 1355.876220703125
106, 0, 0, 1346.497436523438
107, 0, 0, 1337.485717773438
108, 0, 0, 1316.304321289062
109, 0, 0, 1309.437133789062
110, 0, 0, 1308.716796875
111, 0, 0, 1295.428344726562
112, 0, 0, 1288.79443359375
113, 0, 0, 1274.162109375
114, 0, 0, 1268.052856445312
115, 0, 0, 1251.91162109375
116, 0, 0, 1248.159423828125
117, 0, 0, 1243.910888671875
118, 0, 0, 1235.487548828125
119, 0, 0, 1232.375
120, 0, 0, 1233.982177734375
121, 0, 0, 1215.251342773438
122, 0, 0, 1207.50634765625
123, 0, 0, 1195.934448242188
124, 0, 0, 1198.04833984375
125, 0, 0, 1187.736206054688
126, 0, 0, 1185.442260742188
127, 0, 0, 1184.575439453125
128, 0, 0, 1167.849731445312
129, 0, 0, 1163.625244140625
130, 0, 0, 1166.51806640625
131, 0, 0, 1151.549682617188
132, 0, 0, 1145.325927734375
133, 0, 0, 1149.014892578125
134, 0, 0, 1131.466186523438
135, 0, 0, 1128.326538085938
136, 0, 0, 1124.925537109375
137, 0, 0, 1126.45849609375
138, 0, 0, 1119.115478515625
139, 0, 0, 1112.110717773438
140, 0, 0, 1111.243286132812
141, 0, 0, 1095.483642578125
142, 0, 0, 1096.835327148438
143, 0, 0, 1097.822509765625
144, 0, 0, 1091.31591796875
145, 0, 0, 1080.474365234375
146, 0, 0, 1076.540771484375
147, 0, 0, 1075.84619140625
148, 0, 0, 1077.90283203125
149, 0, 0, 1070.078369140625
150, 0, 0, 1062.0146484375
151, 0, 0, 1053.524291992188
152, 0, 0, 1062.909057617188
153, 0, 0, 1051.089599609375
154, 0, 0, 1042.714599609375
155, 0, 0, 1043.044189453125
156, 0, 0, 1044.33349609375
157, 0, 0, 1033.542114257812
158, 0, 0, 1031.90380859375
159, 0, 0, 1028.279907226562
160, 0, 0, 1014.871520996094
161, 0, 0, 1012.705932617188
162, 0, 0, 1017.090942382812
163, 0, 0, 1012.341186523438
164, 0, 0, 1007.283813476562
165, 0, 0, 1008.4697265625
166, 0, 0, 997.8722534179688
167, 0, 0, 996.5368041992188
168, 0, 0, 988.8319091796875
169, 0, 0, 998.4967651367188
170, 0, 0, 1002.466674804688
171, 0, 0, 988.025634765625
172, 0, 0, 990.2684936523438
173, 0, 0, 987.2810668945312
174, 0, 0, 987.5840454101562
175, 0, 0, 969.7489624023438
176, 0, 0, 965.9247436523438
177, 0, 0, 965.0965576171875
178, 0, 0, 965.2537231445312
179, 0, 0, 964.8002319335938
