# TOPAS Version: 3.3.p1
# Parameter File: Test.txt
# Results for scorer MLIC_Scorer
# Scored in component: MLIC
# X in 180 bins of 0.177778 cm
# Y in 1 bin  of 10 cm
# Z in 1 bin  of 10 cm
# EnergyDeposit ( MeV ) : Sum   
0, 0, 0, 0
1, 0, 0, 0
2, 0, 0, 0
3, 0, 0, 0
4, 0, 0, 0.003129267832264304
5, 0, 0, 0.0003705043054651469
6, 0, 0, 0
7, 0, 0, 0
8, 0, 0, 0
9, 0, 0, 0
10, 0, 0, 0
11, 0, 0, 0
12, 0, 0, 0
13, 0, 0, 0
14, 0, 0, 0
15, 0, 0, 0.04037908092141151
16, 0, 0, 0
17, 0, 0, 0
18, 0, 0, 0.002907141577452421
19, 0, 0, 0
20, 0, 0, 0
21, 0, 0, 0
22, 0, 0, 0
23, 0, 0, 0
24, 0, 0, 0.002828738186508417
25, 0, 0, 0
26, 0, 0, 0
27, 0, 0, 0
28, 0, 0, 0
29, 0, 0, 0
30, 0, 0, 0
31, 0, 0, 0
32, 0, 0, 0
33, 0, 0, 30.04673767089844
34, 0, 0, 162.8122100830078
35, 0, 0, 471.94677734375
36, 0, 0, 1281.319213867188
37, 0, 0, 2548.948974609375
38, 0, 0, 3947.01611328125
39, 0, 0, 4939.548828125
40, 0, 0, 5142.77294921875
41, 0, 0, 4621.052734375
42, 0, 0, 3992.955322265625
43, 0, 0, 3625.892578125
44, 0, 0, 3222.6455078125
45, 0, 0, 2971.52880859375
46, 0, 0, 2770.3779296875
47, 0, 0, 2612.140625
48, 0, 0, 2486.134765625
49, 0, 0, 2375.182861328125
50, 0, 0, 2277.001708984375
51, 0, 0, 2195.829833984375
52, 0, 0, 2129.9462890625
53, 0, 0, 2060.379638671875
54, 0, 0, 2001.954956054688
55, 0, 0, 1952.382080078125
56, 0, 0, 1902.5029296875
57, 0, 0, 1848.203002929688
58, 0, 0, 1810.456420898438
59, 0, 0, 1768.132934570312
60, 0, 0, 1729.853759765625
61, 0, 0, 1697.085205078125
62, 0, 0, 1667.890014648438
63, 0, 0, 1642.049560546875
64, 0, 0, 1613.209594726562
65, 0, 0, 1583.458862304688
66, 0, 0, 1562.186401367188
67, 0, 0, 1534.254516601562
68, 0, 0, 1520.27294921875
69, 0, 0, 1497.088134765625
70, 0, 0, 1479.05224609375
71, 0, 0, 1450.946044921875
72, 0, 0, 1450.0439453125
73, 0, 0, 1422.572143554688
74, 0, 0, 1388.588256835938
75, 0, 0, 1383.854125976562
76, 0, 0, 1370.364135742188
77, 0, 0, 1351.047485351562
78, 0, 0, 1345.164916992188
79, 0, 0, 1328.864135742188
80, 0, 0, 1308.63134765625
81, 0, 0, 1305.369140625
82, 0, 0, 1286.576538085938
83, 0, 0, 1276.414794921875
84, 0, 0, 1266.201904296875
85, 0, 0, 1248.027099609375
86, 0, 0, 1239.68359375
87, 0, 0, 1227.816284179688
88, 0, 0, 1215.9921875
89, 0, 0, 1204.43017578125
90, 0, 0, 1198.23486328125
91, 0, 0, 1189.956787109375
92, 0, 0, 1187.171508789062
93, 0, 0, 1164.826416015625
94, 0, 0, 1167.609252929688
95, 0, 0, 1154.420043945312
96, 0, 0, 1139.887573242188
97, 0, 0, 1138.339721679688
98, 0, 0, 1128.879028320312
99, 0, 0, 1119.336547851562
100, 0, 0, 1112.903076171875
101, 0, 0, 1105.816040039062
102, 0, 0, 1108.817260742188
103, 0, 0, 1092.352172851562
104, 0, 0, 1091.171630859375
105, 0, 0, 1081.322387695312
106, 0, 0, 1068.603637695312
107, 0, 0, 1066.584716796875
108, 0, 0, 1058.625244140625
109, 0, 0, 1062.282470703125
110, 0, 0, 1055.012817382812
111, 0, 0, 1038.78857421875
112, 0, 0, 1037.652709960938
113, 0, 0, 1036.902465820312
114, 0, 0, 1023.049987792969
115, 0, 0, 1020.989868164062
116, 0, 0, 1014.523315429688
117, 0, 0, 1014.462585449219
118, 0, 0, 1008.489440917969
119, 0, 0, 996.7506103515625
120, 0, 0, 993.438720703125
121, 0, 0, 992.5657958984375
122, 0, 0, 986.175048828125
123, 0, 0, 979.8552856445312
124, 0, 0, 977.9918212890625
125, 0, 0, 972.957763671875
126, 0, 0, 969.60986328125
127, 0, 0, 964.4949951171875
128, 0, 0, 956.9267578125
129, 0, 0, 957.5406494140625
130, 0, 0, 946.58935546875
131, 0, 0, 953.8154907226562
132, 0, 0, 948.3897705078125
133, 0, 0, 942.8966064453125
134, 0, 0, 940.1693115234375
135, 0, 0, 928.96044921875
136, 0, 0, 931.054443359375
137, 0, 0, 918.2787475585938
138, 0, 0, 923.5773315429688
139, 0, 0, 915.848876953125
140, 0, 0, 911.7969360351562
141, 0, 0, 906.9465942382812
142, 0, 0, 908.2093505859375
143, 0, 0, 906.7744750976562
144, 0, 0, 898.9811401367188
145, 0, 0, 896.4228515625
146, 0, 0, 896.4790649414062
147, 0, 0, 888.5670166015625
148, 0, 0, 880.0941162109375
149, 0, 0, 877.3524780273438
150, 0, 0, 882.008544921875
151, 0, 0, 878.0065307617188
152, 0, 0, 879.9540405273438
153, 0, 0, 876.1016235351562
154, 0, 0, 866.529052734375
155, 0, 0, 858.45751953125
156, 0, 0, 860.1067504882812
157, 0, 0, 858.3255615234375
158, 0, 0, 854.7857055664062
159, 0, 0, 852.22265625
160, 0, 0, 850.057861328125
161, 0, 0, 849.6099243164062
162, 0, 0, 850.2465209960938
163, 0, 0, 842.8819580078125
164, 0, 0, 840.8374633789062
165, 0, 0, 846.046875
166, 0, 0, 836.011962890625
167, 0, 0, 828.5427856445312
168, 0, 0, 833.0540161132812
169, 0, 0, 829.5760498046875
170, 0, 0, 824.326416015625
171, 0, 0, 820.0543823242188
172, 0, 0, 818.7286987304688
173, 0, 0, 825.7780151367188
174, 0, 0, 817.217529296875
175, 0, 0, 814.245849609375
176, 0, 0, 815.4573364257812
177, 0, 0, 803.3899536132812
178, 0, 0, 819.02880859375
179, 0, 0, 801.2159423828125
