# TOPAS Version: 3.3.p1
# Parameter File: Test.txt
# Results for scorer MLIC_Scorer
# Scored in component: MLIC
# X in 165 bins of 0.2 cm
# Y in 1 bin  of 10 cm
# Z in 1 bin  of 10 cm
# EnergyDeposit ( MeV ) : Sum   
0, 0, 0, 0
1, 0, 0, 0
2, 0, 0, 0
3, 0, 0, 0
4, 0, 0, 0
5, 0, 0, 0
6, 0, 0, 0
7, 0, 0, 0.004519449081271887
8, 0, 0, 0
9, 0, 0, 0
10, 0, 0, 0
11, 0, 0, 0
12, 0, 0, 0
13, 0, 0, 0
14, 0, 0, 0.05026839673519135
15, 0, 0, 29.84215545654297
16, 0, 0, 138.8348388671875
17, 0, 0, 487.8264770507812
18, 0, 0, 1445.369995117188
19, 0, 0, 3082.095947265625
20, 0, 0, 4607.0546875
21, 0, 0, 5473.81787109375
22, 0, 0, 5338.9462890625
23, 0, 0, 4869.08935546875
24, 0, 0, 4195.01513671875
25, 0, 0, 3755.478759765625
26, 0, 0, 3388.30419921875
27, 0, 0, 3123.193115234375
28, 0, 0, 2927.20849609375
29, 0, 0, 2769.509765625
30, 0, 0, 2632.27001953125
31, 0, 0, 2518.642578125
32, 0, 0, 2423.67333984375
33, 0, 0, 2332.992919921875
34, 0, 0, 2255.80419921875
35, 0, 0, 2184.325927734375
36, 0, 0, 2122.535888671875
37, 0, 0, 2066.390869140625
38, 0, 0, 2009.441284179688
39, 0, 0, 1968.76513671875
40, 0, 0, 1920.40185546875
41, 0, 0, 1885.133056640625
42, 0, 0, 1842.664916992188
43, 0, 0, 1811.786743164062
44, 0, 0, 1776.502075195312
45, 0, 0, 1753.505493164062
46, 0, 0, 1723.164794921875
47, 0, 0, 1694.029174804688
48, 0, 0, 1661.762329101562
49, 0, 0, 1647.403930664062
50, 0, 0, 1611.960815429688
51, 0, 0, 1598.132934570312
52, 0, 0, 1571.643432617188
53, 0, 0, 1551.400390625
54, 0, 0, 1544.206298828125
55, 0, 0, 1519.027954101562
56, 0, 0, 1502.002807617188
57, 0, 0, 1484.274780273438
58, 0, 0, 1465.589477539062
59, 0, 0, 1442.299194335938
60, 0, 0, 1438.000732421875
61, 0, 0, 1425.002197265625
62, 0, 0, 1402.40966796875
63, 0, 0, 1384.86474609375
64, 0, 0, 1381.462280273438
65, 0, 0, 1357.011596679688
66, 0, 0, 1347.223876953125
67, 0, 0, 1338.4453125
68, 0, 0, 1326.6435546875
69, 0, 0, 1310.617553710938
70, 0, 0, 1304.606567382812
71, 0, 0, 1292.162841796875
72, 0, 0, 1283.590576171875
73, 0, 0, 1270.976440429688
74, 0, 0, 1266.237670898438
75, 0, 0, 1250.085571289062
76, 0, 0, 1243.314697265625
77, 0, 0, 1233.2587890625
78, 0, 0, 1236.197509765625
79, 0, 0, 1217.045288085938
80, 0, 0, 1216.366455078125
81, 0, 0, 1204.82861328125
82, 0, 0, 1193.170288085938
83, 0, 0, 1186.539794921875
84, 0, 0, 1181.975830078125
85, 0, 0, 1175.755615234375
86, 0, 0, 1162.936401367188
87, 0, 0, 1156.450439453125
88, 0, 0, 1145.414184570312
89, 0, 0, 1145.226196289062
90, 0, 0, 1135.089721679688
91, 0, 0, 1132.562255859375
92, 0, 0, 1125.161010742188
93, 0, 0, 1117.302856445312
94, 0, 0, 1110.708374023438
95, 0, 0, 1105.181274414062
96, 0, 0, 1100.779052734375
97, 0, 0, 1105.857421875
98, 0, 0, 1091.758056640625
99, 0, 0, 1086.713256835938
100, 0, 0, 1080.207397460938
101, 0, 0, 1070.393920898438
102, 0, 0, 1066.758178710938
103, 0, 0, 1060.358642578125
104, 0, 0, 1053.032470703125
105, 0, 0, 1050.265991210938
106, 0, 0, 1054.195434570312
107, 0, 0, 1050.713134765625
108, 0, 0, 1031.63671875
109, 0, 0, 1034.799560546875
110, 0, 0, 1034.365966796875
111, 0, 0, 1021.521301269531
112, 0, 0, 1021.687255859375
113, 0, 0, 1018.114135742188
114, 0, 0, 1005.624206542969
115, 0, 0, 1003.053039550781
116, 0, 0, 1004.560241699219
117, 0, 0, 995.1119384765625
118, 0, 0, 992.667724609375
119, 0, 0, 996.7517700195312
120, 0, 0, 989.4746704101562
121, 0, 0, 980.8970947265625
122, 0, 0, 983.009033203125
123, 0, 0, 969.6331176757812
124, 0, 0, 977.5534057617188
125, 0, 0, 967.1569213867188
126, 0, 0, 963.89599609375
127, 0, 0, 959.3269653320312
128, 0, 0, 960.9575805664062
129, 0, 0, 961.6484985351562
130, 0, 0, 949.7079467773438
131, 0, 0, 949.0556030273438
132, 0, 0, 949.7107543945312
133, 0, 0, 952.1576538085938
134, 0, 0, 944.87548828125
135, 0, 0, 932.2539672851562
136, 0, 0, 931.7479858398438
137, 0, 0, 926.4467163085938
138, 0, 0, 927.2924194335938
139, 0, 0, 927.2390747070312
140, 0, 0, 919.9804077148438
141, 0, 0, 922.5040283203125
142, 0, 0, 921.0748901367188
143, 0, 0, 911.2434692382812
144, 0, 0, 912.2118530273438
145, 0, 0, 911.7068481445312
146, 0, 0, 899.4249267578125
147, 0, 0, 916.98974609375
148, 0, 0, 897.7606811523438
149, 0, 0, 897.7577514648438
150, 0, 0, 898.897216796875
151, 0, 0, 889.2448120117188
152, 0, 0, 888.6245727539062
153, 0, 0, 892.3250732421875
154, 0, 0, 883.3989868164062
155, 0, 0, 887.4713745117188
156, 0, 0, 881.333251953125
157, 0, 0, 868.8763427734375
158, 0, 0, 875.9578247070312
159, 0, 0, 873.4588012695312
160, 0, 0, 861.703369140625
161, 0, 0, 865.9373168945312
162, 0, 0, 867.8218994140625
163, 0, 0, 858.8989868164062
164, 0, 0, 860.4855346679688
