# TOPAS Version: 3.3.p1
# Parameter File: Test.txt
# Results for scorer MLIC_Scorer
# Scored in component: MLIC
# X in 180 bins of 0.177778 cm
# Y in 1 bin  of 10 cm
# Z in 1 bin  of 10 cm
# EnergyDeposit ( MeV ) : Sum   
0, 0, 0, 0
1, 0, 0, 0
2, 0, 0, 0
3, 0, 0, 0
4, 0, 0, 0
5, 0, 0, 0
6, 0, 0, 0
7, 0, 0, 0
8, 0, 0, 0
9, 0, 0, 0
10, 0, 0, 0
11, 0, 0, 0.0005339780473150313
12, 0, 0, 0
13, 0, 0, 0
14, 0, 0, 0
15, 0, 0, 0
16, 0, 0, 0
17, 0, 0, 0
18, 0, 0, 0
19, 0, 0, 4.215993404388428
20, 0, 0, 9.259953498840332
21, 0, 0, 5.497176647186279
22, 0, 0, 187.2842102050781
23, 0, 0, 719.0723876953125
24, 0, 0, 1844.999267578125
25, 0, 0, 3381.281494140625
26, 0, 0, 4435.28369140625
27, 0, 0, 5036.0556640625
28, 0, 0, 4868.1533203125
29, 0, 0, 4343.15283203125
30, 0, 0, 3891.164794921875
31, 0, 0, 3425.7890625
32, 0, 0, 3110.279541015625
33, 0, 0, 2871.5302734375
34, 0, 0, 2705.156982421875
35, 0, 0, 2561.1142578125
36, 0, 0, 2435.54248046875
37, 0, 0, 2331.987060546875
38, 0, 0, 2237.298583984375
39, 0, 0, 2170.068359375
40, 0, 0, 2098.154052734375
41, 0, 0, 2037.777099609375
42, 0, 0, 1975.869384765625
43, 0, 0, 1924.391723632812
44, 0, 0, 1873.399291992188
45, 0, 0, 1833.949829101562
46, 0, 0, 1794.004638671875
47, 0, 0, 1757.51318359375
48, 0, 0, 1728.340454101562
49, 0, 0, 1696.613403320312
50, 0, 0, 1661.298461914062
51, 0, 0, 1635.114501953125
52, 0, 0, 1605.874389648438
53, 0, 0, 1576.639770507812
54, 0, 0, 1552.586791992188
55, 0, 0, 1530.825927734375
56, 0, 0, 1514.801025390625
57, 0, 0, 1486.433837890625
58, 0, 0, 1465.370483398438
59, 0, 0, 1443.744750976562
60, 0, 0, 1421.190551757812
61, 0, 0, 1410.066040039062
62, 0, 0, 1391.728393554688
63, 0, 0, 1380.785278320312
64, 0, 0, 1364.004150390625
65, 0, 0, 1340.459716796875
66, 0, 0, 1328.587524414062
67, 0, 0, 1318.650146484375
68, 0, 0, 1311.352783203125
69, 0, 0, 1288.282836914062
70, 0, 0, 1284.46337890625
71, 0, 0, 1267.984619140625
72, 0, 0, 1254.914916992188
73, 0, 0, 1242.141357421875
74, 0, 0, 1240.522216796875
75, 0, 0, 1225.748046875
76, 0, 0, 1214.331665039062
77, 0, 0, 1213.130981445312
78, 0, 0, 1196.429565429688
79, 0, 0, 1189.281372070312
80, 0, 0, 1175.957397460938
81, 0, 0, 1166.380859375
82, 0, 0, 1160.432006835938
83, 0, 0, 1141.187622070312
84, 0, 0, 1138.653442382812
85, 0, 0, 1131.668334960938
86, 0, 0, 1131.339477539062
87, 0, 0, 1119.856811523438
88, 0, 0, 1113.3125
89, 0, 0, 1111.839721679688
90, 0, 0, 1094.480102539062
91, 0, 0, 1096.695434570312
92, 0, 0, 1087.892456054688
93, 0, 0, 1076.432006835938
94, 0, 0, 1066.926635742188
95, 0, 0, 1069.057739257812
96, 0, 0, 1064.221923828125
97, 0, 0, 1054.306640625
98, 0, 0, 1047.595825195312
99, 0, 0, 1040.295654296875
100, 0, 0, 1036.51513671875
101, 0, 0, 1028.388671875
102, 0, 0, 1016.055358886719
103, 0, 0, 1025.207763671875
104, 0, 0, 1022.614074707031
105, 0, 0, 1011.214599609375
106, 0, 0, 998.787841796875
107, 0, 0, 996.1210327148438
108, 0, 0, 991.033447265625
109, 0, 0, 988.499267578125
110, 0, 0, 980.9985961914062
111, 0, 0, 975.0130615234375
112, 0, 0, 977.6873168945312
113, 0, 0, 965.5433959960938
114, 0, 0, 967.5963134765625
115, 0, 0, 960.7493286132812
116, 0, 0, 954.18359375
117, 0, 0, 953.4064331054688
118, 0, 0, 951.59912109375
119, 0, 0, 944.5679321289062
120, 0, 0, 938.1173706054688
121, 0, 0, 935.9103393554688
122, 0, 0, 937.740234375
123, 0, 0, 940.9049682617188
124, 0, 0, 927.434814453125
125, 0, 0, 926.3453979492188
126, 0, 0, 916.2605590820312
127, 0, 0, 913.3959350585938
128, 0, 0, 913.3971557617188
129, 0, 0, 915.7918090820312
130, 0, 0, 909.5131225585938
131, 0, 0, 892.8186645507812
132, 0, 0, 884.8504028320312
133, 0, 0, 888.5410766601562
134, 0, 0, 893.1594848632812
135, 0, 0, 888.0737915039062
136, 0, 0, 888.7706909179688
137, 0, 0, 887.8610229492188
138, 0, 0, 876.9993896484375
139, 0, 0, 879.0367431640625
140, 0, 0, 880.4637451171875
141, 0, 0, 866.3120727539062
142, 0, 0, 873.8833618164062
143, 0, 0, 854.7843017578125
144, 0, 0, 870.3372192382812
145, 0, 0, 861.9894409179688
146, 0, 0, 855.8336791992188
147, 0, 0, 848.276123046875
148, 0, 0, 857.50927734375
149, 0, 0, 843.8605346679688
150, 0, 0, 844.5499877929688
151, 0, 0, 847.8436889648438
152, 0, 0, 842.0695190429688
153, 0, 0, 837.6030883789062
154, 0, 0, 834.3419799804688
155, 0, 0, 835.46044921875
156, 0, 0, 839.8583374023438
157, 0, 0, 829.65673828125
158, 0, 0, 836.4006958007812
159, 0, 0, 825.8136596679688
160, 0, 0, 815.3473510742188
161, 0, 0, 820.6641845703125
162, 0, 0, 823.2333984375
163, 0, 0, 812.2078857421875
164, 0, 0, 814.285400390625
165, 0, 0, 816.6586303710938
166, 0, 0, 813.2616577148438
167, 0, 0, 809.5442504882812
168, 0, 0, 800.0879516601562
169, 0, 0, 811.136474609375
170, 0, 0, 801.44775390625
171, 0, 0, 802.0255737304688
172, 0, 0, 799.1829833984375
173, 0, 0, 793.6604614257812
174, 0, 0, 787.3555297851562
175, 0, 0, 790.2049560546875
176, 0, 0, 789.484130859375
177, 0, 0, 779.4019775390625
178, 0, 0, 783.9880981445312
179, 0, 0, 788.6470947265625
