# TOPAS Version: 3.3.p1
# Parameter File: Test.txt
# Results for scorer MLIC_Scorer
# Scored in component: MLIC
# X in 180 bins of 0.177778 cm
# Y in 1 bin  of 10 cm
# Z in 1 bin  of 10 cm
# EnergyDeposit ( MeV ) : Sum   
0, 0, 0, 0
1, 0, 0, 0
2, 0, 0, 0
3, 0, 0, 0
4, 0, 0, 0
5, 0, 0, 0
6, 0, 0, 0
7, 0, 0, 0
8, 0, 0, 0
9, 0, 0, 0
10, 0, 0, 0
11, 0, 0, 0
12, 0, 0, 0
13, 0, 0, 0
14, 0, 0, 0
15, 0, 0, 0
16, 0, 0, 0
17, 0, 0, 0
18, 0, 0, 0
19, 0, 0, 0
20, 0, 0, 0
21, 0, 0, 0
22, 0, 0, 0
23, 0, 0, 0
24, 0, 0, 0
25, 0, 0, 0
26, 0, 0, 0
27, 0, 0, 0
28, 0, 0, 0
29, 0, 0, 0
30, 0, 0, 0
31, 0, 0, 0
32, 0, 0, 0
33, 0, 0, 0
34, 0, 0, 0
35, 0, 0, 0
36, 0, 0, 0
37, 0, 0, 0
38, 0, 0, 0
39, 0, 0, 0
40, 0, 0, 0
41, 0, 0, 0
42, 0, 0, 0
43, 0, 0, 0
44, 0, 0, 0
45, 0, 0, 0
46, 0, 0, 0
47, 0, 0, 0
48, 0, 0, 0
49, 0, 0, 0
50, 0, 0, 0
51, 0, 0, 0
52, 0, 0, 0
53, 0, 0, 0
54, 0, 0, 0
55, 0, 0, 0
56, 0, 0, 0
57, 0, 0, 0
58, 0, 0, 0
59, 0, 0, 0
60, 0, 0, 0
61, 0, 0, 0
62, 0, 0, 0
63, 0, 0, 0
64, 0, 0, 0
65, 0, 0, 0
66, 0, 0, 0
67, 0, 0, 0
68, 0, 0, 0
69, 0, 0, 0
70, 0, 0, 0
71, 0, 0, 0
72, 0, 0, 0
73, 0, 0, 0
74, 0, 0, 0
75, 0, 0, 0
76, 0, 0, 0
77, 0, 0, 0
78, 0, 0, 0
79, 0, 0, 0
80, 0, 0, 0
81, 0, 0, 0
82, 0, 0, 0
83, 0, 0, 0
84, 0, 0, 19.68952560424805
85, 0, 0, 40.76985549926758
86, 0, 0, 115.6444854736328
87, 0, 0, 212.7178497314453
88, 0, 0, 348.2876586914062
89, 0, 0, 403.2899780273438
90, 0, 0, 448.5399780273438
91, 0, 0, 423.4000854492188
92, 0, 0, 346.3218383789062
93, 0, 0, 302.3593444824219
94, 0, 0, 274.4213256835938
95, 0, 0, 254.4743347167969
96, 0, 0, 236.6006164550781
97, 0, 0, 224.3502349853516
98, 0, 0, 212.8356628417969
99, 0, 0, 205.3082580566406
100, 0, 0, 194.1133728027344
101, 0, 0, 188.4378662109375
102, 0, 0, 180.4258880615234
103, 0, 0, 178.5612487792969
104, 0, 0, 171.4421539306641
105, 0, 0, 166.6192932128906
106, 0, 0, 162.7632293701172
107, 0, 0, 160.3421630859375
108, 0, 0, 154.3535003662109
109, 0, 0, 151.0923309326172
110, 0, 0, 150.1044616699219
111, 0, 0, 147.1384429931641
112, 0, 0, 143.9862670898438
113, 0, 0, 139.5381774902344
114, 0, 0, 139.2717132568359
115, 0, 0, 135.5312805175781
116, 0, 0, 134.9869689941406
117, 0, 0, 133.3594665527344
118, 0, 0, 130.7506408691406
119, 0, 0, 127.3528594970703
120, 0, 0, 125.1113052368164
121, 0, 0, 123.1102905273438
122, 0, 0, 124.5837478637695
123, 0, 0, 120.5475463867188
124, 0, 0, 120.2428894042969
125, 0, 0, 119.2001342773438
126, 0, 0, 118.456672668457
127, 0, 0, 117.9513168334961
128, 0, 0, 116.2675933837891
129, 0, 0, 113.9358825683594
130, 0, 0, 110.896614074707
131, 0, 0, 112.2700042724609
132, 0, 0, 109.0412368774414
133, 0, 0, 110.9506607055664
134, 0, 0, 109.4104080200195
135, 0, 0, 106.0876312255859
136, 0, 0, 106.8841018676758
137, 0, 0, 105.6277770996094
138, 0, 0, 107.0300216674805
139, 0, 0, 103.8585586547852
140, 0, 0, 102.3451385498047
141, 0, 0, 102.8720474243164
142, 0, 0, 100.1304244995117
143, 0, 0, 100.3378829956055
144, 0, 0, 98.34354400634766
145, 0, 0, 101.5513687133789
146, 0, 0, 97.83103179931641
147, 0, 0, 97.72157287597656
148, 0, 0, 98.83179473876953
149, 0, 0, 96.56839752197266
150, 0, 0, 95.49900817871094
151, 0, 0, 96.75531768798828
152, 0, 0, 92.11321258544922
153, 0, 0, 94.49777221679688
154, 0, 0, 93.72943878173828
155, 0, 0, 91.81830596923828
156, 0, 0, 92.89413452148438
157, 0, 0, 91.88922882080078
158, 0, 0, 92.50746154785156
159, 0, 0, 90.33845520019531
160, 0, 0, 89.09213256835938
161, 0, 0, 91.1903076171875
162, 0, 0, 86.81020355224609
163, 0, 0, 88.20037841796875
164, 0, 0, 88.36610412597656
165, 0, 0, 87.50458526611328
166, 0, 0, 89.31585693359375
167, 0, 0, 87.86627960205078
168, 0, 0, 85.62250518798828
169, 0, 0, 87.87968444824219
170, 0, 0, 85.35169982910156
171, 0, 0, 85.34253692626953
172, 0, 0, 85.65657043457031
173, 0, 0, 84.47026824951172
174, 0, 0, 85.17147827148438
175, 0, 0, 83.26534271240234
176, 0, 0, 82.38755035400391
177, 0, 0, 82.34031677246094
178, 0, 0, 84.7130126953125
179, 0, 0, 82.26461029052734
