# TOPAS Version: 3.3.p1
# Parameter File: Test.txt
# Results for scorer MLIC_Scorer
# Scored in component: MLIC
# X in 180 bins of 0.177778 cm
# Y in 1 bin  of 10 cm
# Z in 1 bin  of 10 cm
# EnergyDeposit ( MeV ) : Sum   
0, 0, 0, 0
1, 0, 0, 0
2, 0, 0, 0
3, 0, 0, 0
4, 0, 0, 0
5, 0, 0, 0
6, 0, 0, 0
7, 0, 0, 0
8, 0, 0, 0
9, 0, 0, 0
10, 0, 0, 0
11, 0, 0, 0
12, 0, 0, 0
13, 0, 0, 0
14, 0, 0, 0
15, 0, 0, 0
16, 0, 0, 0
17, 0, 0, 0
18, 0, 0, 0
19, 0, 0, 0
20, 0, 0, 0
21, 0, 0, 0
22, 0, 0, 0
23, 0, 0, 0
24, 0, 0, 0
25, 0, 0, 0
26, 0, 0, 0
27, 0, 0, 0
28, 0, 0, 0
29, 0, 0, 0
30, 0, 0, 0
31, 0, 0, 0
32, 0, 0, 0
33, 0, 0, 0
34, 0, 0, 0
35, 0, 0, 0
36, 0, 0, 0
37, 0, 0, 0
38, 0, 0, 0
39, 0, 0, 0
40, 0, 0, 0
41, 0, 0, 0
42, 0, 0, 0
43, 0, 0, 0
44, 0, 0, 0
45, 0, 0, 0
46, 0, 0, 0
47, 0, 0, 0
48, 0, 0, 0
49, 0, 0, 0
50, 0, 0, 0
51, 0, 0, 0
52, 0, 0, 0
53, 0, 0, 0
54, 0, 0, 0
55, 0, 0, 0
56, 0, 0, 0
57, 0, 0, 0
58, 0, 0, 0
59, 0, 0, 0
60, 0, 0, 0
61, 0, 0, 0
62, 0, 0, 0
63, 0, 0, 0
64, 0, 0, 0
65, 0, 0, 0
66, 0, 0, 0
67, 0, 0, 0
68, 0, 0, 0
69, 0, 0, 0
70, 0, 0, 0
71, 0, 0, 0
72, 0, 0, 0
73, 0, 0, 0
74, 0, 0, 0
75, 0, 0, 0
76, 0, 0, 0
77, 0, 0, 0
78, 0, 0, 0
79, 0, 0, 0
80, 0, 0, 0
81, 0, 0, 0
82, 0, 0, 0
83, 0, 0, 0
84, 0, 0, 0
85, 0, 0, 0
86, 0, 0, 0
87, 0, 0, 0
88, 0, 0, 0
89, 0, 0, 0
90, 0, 0, 0
91, 0, 0, 1.681975841522217
92, 0, 0, 25.92768287658691
93, 0, 0, 55.88569641113281
94, 0, 0, 154.2308959960938
95, 0, 0, 313.0811157226562
96, 0, 0, 433.993408203125
97, 0, 0, 466.5361328125
98, 0, 0, 407.6589660644531
99, 0, 0, 422.1496276855469
100, 0, 0, 350.8413696289062
101, 0, 0, 308.2213134765625
102, 0, 0, 279.8612976074219
103, 0, 0, 262.0731811523438
104, 0, 0, 243.9902038574219
105, 0, 0, 232.7489013671875
106, 0, 0, 220.9323425292969
107, 0, 0, 209.9375457763672
108, 0, 0, 203.3999938964844
109, 0, 0, 195.0830535888672
110, 0, 0, 191.1296997070312
111, 0, 0, 184.3595275878906
112, 0, 0, 180.8557434082031
113, 0, 0, 174.8333740234375
114, 0, 0, 171.367431640625
115, 0, 0, 166.4781799316406
116, 0, 0, 162.5318298339844
117, 0, 0, 161.3636322021484
118, 0, 0, 156.8456420898438
119, 0, 0, 152.4509735107422
120, 0, 0, 150.4608459472656
121, 0, 0, 150.8658905029297
122, 0, 0, 144.408447265625
123, 0, 0, 143.5296020507812
124, 0, 0, 141.6571350097656
125, 0, 0, 138.3408813476562
126, 0, 0, 137.1430206298828
127, 0, 0, 136.2225036621094
128, 0, 0, 133.5519256591797
129, 0, 0, 129.2459411621094
130, 0, 0, 130.1813201904297
131, 0, 0, 129.7901611328125
132, 0, 0, 126.7858963012695
133, 0, 0, 124.9213409423828
134, 0, 0, 125.4329223632812
135, 0, 0, 124.9360504150391
136, 0, 0, 121.5546264648438
137, 0, 0, 121.935173034668
138, 0, 0, 119.4530181884766
139, 0, 0, 118.1971893310547
140, 0, 0, 117.4250717163086
141, 0, 0, 115.8151092529297
142, 0, 0, 112.2816009521484
143, 0, 0, 110.4711456298828
144, 0, 0, 109.2495803833008
145, 0, 0, 111.3991470336914
146, 0, 0, 110.2756805419922
147, 0, 0, 112.1557312011719
148, 0, 0, 110.8494338989258
149, 0, 0, 109.0710754394531
150, 0, 0, 107.578010559082
151, 0, 0, 105.0109405517578
152, 0, 0, 103.8416519165039
153, 0, 0, 104.1941909790039
154, 0, 0, 103.9126815795898
155, 0, 0, 102.6399459838867
156, 0, 0, 101.9847793579102
157, 0, 0, 102.3083801269531
158, 0, 0, 99.36380767822266
159, 0, 0, 100.7618637084961
160, 0, 0, 97.76690673828125
161, 0, 0, 99.97798919677734
162, 0, 0, 99.43931579589844
163, 0, 0, 99.50283813476562
164, 0, 0, 98.46336364746094
165, 0, 0, 95.29679107666016
166, 0, 0, 98.03562927246094
167, 0, 0, 94.54805755615234
168, 0, 0, 94.07405090332031
169, 0, 0, 94.94298553466797
170, 0, 0, 94.11419677734375
171, 0, 0, 94.06390380859375
172, 0, 0, 94.67963409423828
173, 0, 0, 93.28385925292969
174, 0, 0, 90.98484039306641
175, 0, 0, 92.55160522460938
176, 0, 0, 91.87991333007812
177, 0, 0, 90.01802825927734
178, 0, 0, 91.81517791748047
179, 0, 0, 90.33548736572266
