# TOPAS Version: 3.3.p1
# Parameter File: Test.txt
# Results for scorer MLIC_Scorer
# Scored in component: MLIC
# X in 180 bins of 0.177778 cm
# Y in 1 bin  of 10 cm
# Z in 1 bin  of 10 cm
# EnergyDeposit ( MeV ) : Sum   
0, 0, 0, 0
1, 0, 0, 0
2, 0, 0, 0
3, 0, 0, 0
4, 0, 0, 0
5, 0, 0, 0
6, 0, 0, 0
7, 0, 0, 0
8, 0, 0, 0
9, 0, 0, 0
10, 0, 0, 0
11, 0, 0, 0
12, 0, 0, 0
13, 0, 0, 0
14, 0, 0, 0
15, 0, 0, 0
16, 0, 0, 0
17, 0, 0, 0
18, 0, 0, 0
19, 0, 0, 0
20, 0, 0, 0
21, 0, 0, 0
22, 0, 0, 0
23, 0, 0, 0
24, 0, 0, 0
25, 0, 0, 0
26, 0, 0, 0
27, 0, 0, 0
28, 0, 0, 0
29, 0, 0, 0
30, 0, 0, 0
31, 0, 0, 0
32, 0, 0, 0
33, 0, 0, 0
34, 0, 0, 0
35, 0, 0, 0
36, 0, 0, 0
37, 0, 0, 0
38, 0, 0, 0
39, 0, 0, 0
40, 0, 0, 0
41, 0, 0, 0
42, 0, 0, 0
43, 0, 0, 0
44, 0, 0, 0
45, 0, 0, 0
46, 0, 0, 0
47, 0, 0, 0
48, 0, 0, 0
49, 0, 0, 0
50, 0, 0, 0
51, 0, 0, 0
52, 0, 0, 0
53, 0, 0, 0
54, 0, 0, 0
55, 0, 0, 0
56, 0, 0, 0
57, 0, 0, 0
58, 0, 0, 0
59, 0, 0, 0
60, 0, 0, 0
61, 0, 0, 0
62, 0, 0, 0
63, 0, 0, 0
64, 0, 0, 0
65, 0, 0, 0
66, 0, 0, 0
67, 0, 0, 0
68, 0, 0, 0
69, 0, 0, 0
70, 0, 0, 0
71, 0, 0, 0
72, 0, 0, 0
73, 0, 0, 0
74, 0, 0, 0
75, 0, 0, 0
76, 0, 0, 0
77, 0, 0, 0
78, 0, 0, 0
79, 0, 0, 0
80, 0, 0, 0
81, 0, 0, 0
82, 0, 0, 0
83, 0, 0, 0
84, 0, 0, 0
85, 0, 0, 0
86, 0, 0, 0
87, 0, 0, 0
88, 0, 0, 0
89, 0, 0, 0
90, 0, 0, 0
91, 0, 0, 0
92, 0, 0, 0
93, 0, 0, 0
94, 0, 0, 0
95, 0, 0, 0
96, 0, 0, 0
97, 0, 0, 0
98, 0, 0, 0
99, 0, 0, 0
100, 0, 0, 0
101, 0, 0, 0
102, 0, 0, 0
103, 0, 0, 0
104, 0, 0, 0
105, 0, 0, 0
106, 0, 0, 0
107, 0, 0, 0
108, 0, 0, 0
109, 0, 0, 0
110, 0, 0, 0
111, 0, 0, 0
112, 0, 0, 0
113, 0, 0, 0
114, 0, 0, 0
115, 0, 0, 0
116, 0, 0, 0
117, 0, 0, 0
118, 0, 0, 0
119, 0, 0, 0
120, 0, 0, 25.50025177001953
121, 0, 0, 144.9962158203125
122, 0, 0, 228.7059936523438
123, 0, 0, 356.1708374023438
124, 0, 0, 423.6961059570312
125, 0, 0, 389.3841247558594
126, 0, 0, 384.755859375
127, 0, 0, 341.4131774902344
128, 0, 0, 312.065185546875
129, 0, 0, 276.0084228515625
130, 0, 0, 253.1680145263672
131, 0, 0, 236.390380859375
132, 0, 0, 223.1485748291016
133, 0, 0, 211.752685546875
134, 0, 0, 204.8362121582031
135, 0, 0, 194.5858459472656
136, 0, 0, 186.7713165283203
137, 0, 0, 181.8778533935547
138, 0, 0, 175.7349853515625
139, 0, 0, 168.5772552490234
140, 0, 0, 164.4468078613281
141, 0, 0, 161.673095703125
142, 0, 0, 158.3517913818359
143, 0, 0, 152.7718353271484
144, 0, 0, 150.6523132324219
145, 0, 0, 148.2756958007812
146, 0, 0, 144.7987976074219
147, 0, 0, 139.9715881347656
148, 0, 0, 141.0721893310547
149, 0, 0, 135.2204895019531
150, 0, 0, 134.9002227783203
151, 0, 0, 130.7758331298828
152, 0, 0, 132.2486267089844
153, 0, 0, 130.4542694091797
154, 0, 0, 126.193717956543
155, 0, 0, 124.7806091308594
156, 0, 0, 125.7906341552734
157, 0, 0, 120.8224105834961
158, 0, 0, 122.7681655883789
159, 0, 0, 120.1306304931641
160, 0, 0, 118.4842758178711
161, 0, 0, 117.3716201782227
162, 0, 0, 115.5367660522461
163, 0, 0, 113.7303924560547
164, 0, 0, 114.1722030639648
165, 0, 0, 110.6668319702148
166, 0, 0, 110.0538024902344
167, 0, 0, 107.6983795166016
168, 0, 0, 106.5605087280273
169, 0, 0, 107.2592697143555
170, 0, 0, 104.5909957885742
171, 0, 0, 108.1292037963867
172, 0, 0, 102.6426086425781
173, 0, 0, 104.0381317138672
174, 0, 0, 104.2626724243164
175, 0, 0, 103.0190124511719
176, 0, 0, 101.5516738891602
177, 0, 0, 98.32917022705078
178, 0, 0, 100.4534149169922
179, 0, 0, 99.27499389648438
