# TOPAS Version: 3.3.p1
# Parameter File: Test.txt
# Results for scorer MLIC_Scorer
# Scored in component: MLIC
# X in 180 bins of 0.177778 cm
# Y in 1 bin  of 10 cm
# Z in 1 bin  of 10 cm
# EnergyDeposit ( MeV ) : Sum   
0, 0, 0, 0
1, 0, 0, 0
2, 0, 0, 0
3, 0, 0, 0
4, 0, 0, 0
5, 0, 0, 0
6, 0, 0, 0
7, 0, 0, 0
8, 0, 0, 0
9, 0, 0, 0
10, 0, 0, 0
11, 0, 0, 0
12, 0, 0, 0
13, 0, 0, 0
14, 0, 0, 0
15, 0, 0, 0
16, 0, 0, 0
17, 0, 0, 0
18, 0, 0, 0
19, 0, 0, 0
20, 0, 0, 0
21, 0, 0, 0
22, 0, 0, 0
23, 0, 0, 0
24, 0, 0, 0
25, 0, 0, 0
26, 0, 0, 0
27, 0, 0, 0
28, 0, 0, 0
29, 0, 0, 0
30, 0, 0, 0
31, 0, 0, 0
32, 0, 0, 0
33, 0, 0, 0
34, 0, 0, 0
35, 0, 0, 0
36, 0, 0, 0
37, 0, 0, 0
38, 0, 0, 0
39, 0, 0, 0
40, 0, 0, 0
41, 0, 0, 0
42, 0, 0, 0
43, 0, 0, 0
44, 0, 0, 0
45, 0, 0, 0
46, 0, 0, 0
47, 0, 0, 0
48, 0, 0, 0
49, 0, 0, 0
50, 0, 0, 0
51, 0, 0, 0
52, 0, 0, 0
53, 0, 0, 2.987269639968872
54, 0, 0, 23.48970603942871
55, 0, 0, 95.26821899414062
56, 0, 0, 390.8484191894531
57, 0, 0, 999.1378173828125
58, 0, 0, 2307.135498046875
59, 0, 0, 3671.990966796875
60, 0, 0, 4683.37841796875
61, 0, 0, 5075.83544921875
62, 0, 0, 4785.02392578125
63, 0, 0, 4203.61767578125
64, 0, 0, 3707.317138671875
65, 0, 0, 3306.665283203125
66, 0, 0, 3020.282470703125
67, 0, 0, 2809.514404296875
68, 0, 0, 2652.14697265625
69, 0, 0, 2507.312255859375
70, 0, 0, 2405.409423828125
71, 0, 0, 2300.3994140625
72, 0, 0, 2214.324951171875
73, 0, 0, 2144.639892578125
74, 0, 0, 2067.13427734375
75, 0, 0, 2014.743896484375
76, 0, 0, 1960.803344726562
77, 0, 0, 1911.64111328125
78, 0, 0, 1860.498413085938
79, 0, 0, 1823.780151367188
80, 0, 0, 1784.615844726562
81, 0, 0, 1736.92041015625
82, 0, 0, 1705.411743164062
83, 0, 0, 1675.594970703125
84, 0, 0, 1647.972412109375
85, 0, 0, 1618.298828125
86, 0, 0, 1596.1884765625
87, 0, 0, 1568.184326171875
88, 0, 0, 1542.716064453125
89, 0, 0, 1519.824096679688
90, 0, 0, 1500.061889648438
91, 0, 0, 1470.921264648438
92, 0, 0, 1461.363891601562
93, 0, 0, 1442.046020507812
94, 0, 0, 1424.250122070312
95, 0, 0, 1401.7001953125
96, 0, 0, 1388.59130859375
97, 0, 0, 1376.975341796875
98, 0, 0, 1361.314331054688
99, 0, 0, 1344.316528320312
100, 0, 0, 1321.188110351562
101, 0, 0, 1313.570190429688
102, 0, 0, 1300.529052734375
103, 0, 0, 1300.712646484375
104, 0, 0, 1273.661865234375
105, 0, 0, 1264.964721679688
106, 0, 0, 1251.102294921875
107, 0, 0, 1238.74609375
108, 0, 0, 1231.909790039062
109, 0, 0, 1219.760131835938
110, 0, 0, 1212.571533203125
111, 0, 0, 1196.83642578125
112, 0, 0, 1196.2626953125
113, 0, 0, 1189.665283203125
114, 0, 0, 1176.641845703125
115, 0, 0, 1161.332153320312
116, 0, 0, 1161.959716796875
117, 0, 0, 1142.4130859375
118, 0, 0, 1150.593139648438
119, 0, 0, 1133.808715820312
120, 0, 0, 1119.840698242188
121, 0, 0, 1110.5498046875
122, 0, 0, 1104.918334960938
123, 0, 0, 1109.044921875
124, 0, 0, 1085.956909179688
125, 0, 0, 1079.074096679688
126, 0, 0, 1081.504638671875
127, 0, 0, 1077.6240234375
128, 0, 0, 1069.265625
129, 0, 0, 1059.891723632812
130, 0, 0, 1054.138916015625
131, 0, 0, 1043.369140625
132, 0, 0, 1049.275756835938
133, 0, 0, 1033.995971679688
134, 0, 0, 1031.768310546875
135, 0, 0, 1030.79345703125
136, 0, 0, 1020.392822265625
137, 0, 0, 1012.69384765625
138, 0, 0, 1015.063598632812
139, 0, 0, 1007.484313964844
140, 0, 0, 1000.339111328125
141, 0, 0, 996.3886108398438
142, 0, 0, 991.28369140625
143, 0, 0, 979.6480712890625
144, 0, 0, 988.4461669921875
145, 0, 0, 979.0556030273438
146, 0, 0, 970.94677734375
147, 0, 0, 977.5938110351562
148, 0, 0, 969.2939453125
149, 0, 0, 961.7420654296875
150, 0, 0, 955.0952758789062
151, 0, 0, 950.0210571289062
152, 0, 0, 953.5623779296875
153, 0, 0, 944.8365478515625
154, 0, 0, 945.4713745117188
155, 0, 0, 945.4471435546875
156, 0, 0, 933.5203857421875
157, 0, 0, 925.4344482421875
158, 0, 0, 927.025634765625
159, 0, 0, 917.6981811523438
160, 0, 0, 913.404052734375
161, 0, 0, 905.0889282226562
162, 0, 0, 908.5709228515625
163, 0, 0, 904.3912963867188
164, 0, 0, 902.2088623046875
165, 0, 0, 897.300537109375
166, 0, 0, 898.5488891601562
167, 0, 0, 892.8140258789062
168, 0, 0, 891.0999145507812
169, 0, 0, 885.6687622070312
170, 0, 0, 882.5748291015625
171, 0, 0, 883.2643432617188
172, 0, 0, 876.7517700195312
173, 0, 0, 876.1768798828125
174, 0, 0, 872.9776611328125
175, 0, 0, 871.815673828125
176, 0, 0, 862.3802490234375
177, 0, 0, 871.1412353515625
178, 0, 0, 861.771240234375
179, 0, 0, 864.0482788085938
