# TOPAS Version: 3.3.p1
# Parameter File: Test.txt
# Results for scorer MLIC_Scorer
# Scored in component: MLIC
# X in 180 bins of 0.183333 cm
# Y in 1 bin  of 10 cm
# Z in 1 bin  of 10 cm
# EnergyDeposit ( MeV ) : Sum   
0, 0, 0, 0
1, 0, 0, 0
2, 0, 0, 0
3, 0, 0, 0
4, 0, 0, 0
5, 0, 0, 0
6, 0, 0, 0
7, 0, 0, 0
8, 0, 0, 0
9, 0, 0, 0.0008621090091764927
10, 0, 0, 0
11, 0, 0, 0
12, 0, 0, 0
13, 0, 0, 0
14, 0, 0, 0
15, 0, 0, 0
16, 0, 0, 0
17, 0, 0, 0
18, 0, 0, 0.01238423772156239
19, 0, 0, 0
20, 0, 0, 0
21, 0, 0, 0.001185906701721251
22, 0, 0, 0
23, 0, 0, 0.002036971971392632
24, 0, 0, 0
25, 0, 0, 0
26, 0, 0, 0
27, 0, 0, 0
28, 0, 0, 0
29, 0, 0, 0
30, 0, 0, 0
31, 0, 0, 0
32, 0, 0, 0
33, 0, 0, 0
34, 0, 0, 0
35, 0, 0, 11.39844036102295
36, 0, 0, 57.10151290893555
37, 0, 0, 242.9945678710938
38, 0, 0, 816.9794311523438
39, 0, 0, 2095.06982421875
40, 0, 0, 3531.464111328125
41, 0, 0, 4718.73974609375
42, 0, 0, 5197.75048828125
43, 0, 0, 4986.1962890625
44, 0, 0, 4396.58642578125
45, 0, 0, 3829.784423828125
46, 0, 0, 3392.28173828125
47, 0, 0, 3098.932373046875
48, 0, 0, 2884.246826171875
49, 0, 0, 2716.056884765625
50, 0, 0, 2575.201416015625
51, 0, 0, 2461.553955078125
52, 0, 0, 2350.851318359375
53, 0, 0, 2265.504150390625
54, 0, 0, 2180.197021484375
55, 0, 0, 2126.570556640625
56, 0, 0, 2063.628662109375
57, 0, 0, 2001.700073242188
58, 0, 0, 1957.733764648438
59, 0, 0, 1901.921997070312
60, 0, 0, 1859.035278320312
61, 0, 0, 1813.598510742188
62, 0, 0, 1779.536987304688
63, 0, 0, 1743.637573242188
64, 0, 0, 1709.060913085938
65, 0, 0, 1677.055419921875
66, 0, 0, 1647.993408203125
67, 0, 0, 1619.29541015625
68, 0, 0, 1598.14404296875
69, 0, 0, 1575.54736328125
70, 0, 0, 1557.944946289062
71, 0, 0, 1525.227905273438
72, 0, 0, 1507.43701171875
73, 0, 0, 1488.88232421875
74, 0, 0, 1471.864135742188
75, 0, 0, 1451.995361328125
76, 0, 0, 1432.693115234375
77, 0, 0, 1416.766967773438
78, 0, 0, 1397.3984375
79, 0, 0, 1384.461303710938
80, 0, 0, 1369.89892578125
81, 0, 0, 1350.48876953125
82, 0, 0, 1345.228637695312
83, 0, 0, 1327.744750976562
84, 0, 0, 1313.340942382812
85, 0, 0, 1300.714111328125
86, 0, 0, 1291.110473632812
87, 0, 0, 1286.103637695312
88, 0, 0, 1268.8828125
89, 0, 0, 1256.699340820312
90, 0, 0, 1251.226684570312
91, 0, 0, 1228.588623046875
92, 0, 0, 1230.192626953125
93, 0, 0, 1211.1865234375
94, 0, 0, 1206.438232421875
95, 0, 0, 1196.916137695312
96, 0, 0, 1185.896606445312
97, 0, 0, 1182.487548828125
98, 0, 0, 1174.7197265625
99, 0, 0, 1164.723510742188
100, 0, 0, 1156.0078125
101, 0, 0, 1148.733276367188
102, 0, 0, 1135.358154296875
103, 0, 0, 1136.09521484375
104, 0, 0, 1125.215942382812
105, 0, 0, 1122.613403320312
106, 0, 0, 1113.494506835938
107, 0, 0, 1105.88134765625
108, 0, 0, 1091.38427734375
109, 0, 0, 1085.216186523438
110, 0, 0, 1090.335693359375
111, 0, 0, 1080.403076171875
112, 0, 0, 1073.5166015625
113, 0, 0, 1069.166748046875
114, 0, 0, 1056.131103515625
115, 0, 0, 1057.478271484375
116, 0, 0, 1047.206787109375
117, 0, 0, 1042.042724609375
118, 0, 0, 1032.703247070312
119, 0, 0, 1029.34033203125
120, 0, 0, 1026.1162109375
121, 0, 0, 1016.171325683594
122, 0, 0, 1015.595642089844
123, 0, 0, 1011.938232421875
124, 0, 0, 1009.551696777344
125, 0, 0, 1002.486633300781
126, 0, 0, 995.47021484375
127, 0, 0, 991.827880859375
128, 0, 0, 987.3978881835938
129, 0, 0, 985.2123413085938
130, 0, 0, 971.3135375976562
131, 0, 0, 970.3251342773438
132, 0, 0, 977.2860107421875
133, 0, 0, 974.3026123046875
134, 0, 0, 956.7577514648438
135, 0, 0, 958.801025390625
136, 0, 0, 959.6675415039062
137, 0, 0, 955.6597290039062
138, 0, 0, 947.9255981445312
139, 0, 0, 940.272705078125
140, 0, 0, 939.606689453125
141, 0, 0, 942.1461181640625
142, 0, 0, 934.6401977539062
143, 0, 0, 927.520751953125
144, 0, 0, 934.8563232421875
145, 0, 0, 922.3158569335938
146, 0, 0, 916.961669921875
147, 0, 0, 921.722900390625
148, 0, 0, 909.157958984375
149, 0, 0, 898.7809448242188
150, 0, 0, 908.3182373046875
151, 0, 0, 902.0130004882812
152, 0, 0, 901.0357055664062
153, 0, 0, 895.5265502929688
154, 0, 0, 892.5528564453125
155, 0, 0, 895.5615234375
156, 0, 0, 887.226318359375
157, 0, 0, 896.000732421875
158, 0, 0, 877.1213989257812
159, 0, 0, 881.6681518554688
160, 0, 0, 876.346923828125
161, 0, 0, 878.41015625
162, 0, 0, 870.5055541992188
163, 0, 0, 868.8281860351562
164, 0, 0, 862.2864379882812
165, 0, 0, 867.9264526367188
166, 0, 0, 859.4567260742188
167, 0, 0, 860.4791259765625
168, 0, 0, 853.8971557617188
169, 0, 0, 854.1215209960938
170, 0, 0, 852.0393676757812
171, 0, 0, 844.562744140625
172, 0, 0, 844.5709228515625
173, 0, 0, 840.990966796875
174, 0, 0, 840.7061767578125
175, 0, 0, 832.8403930664062
176, 0, 0, 835.9935302734375
177, 0, 0, 838.1382446289062
178, 0, 0, 829.9610595703125
179, 0, 0, 835.6160888671875
