# TOPAS Version: 3.3.p1
# Parameter File: Test.txt
# Results for scorer MLIC_Scorer
# Scored in component: MLIC
# X in 180 bins of 0.177778 cm
# Y in 1 bin  of 10 cm
# Z in 1 bin  of 10 cm
# EnergyDeposit ( MeV ) : Sum   
0, 0, 0, 0
1, 0, 0, 0
2, 0, 0, 0
3, 0, 0, 0
4, 0, 0, 0
5, 0, 0, 0
6, 0, 0, 0
7, 0, 0, 0
8, 0, 0, 0
9, 0, 0, 0
10, 0, 0, 0
11, 0, 0, 0
12, 0, 0, 0
13, 0, 0, 0
14, 0, 0, 0
15, 0, 0, 0
16, 0, 0, 0
17, 0, 0, 0
18, 0, 0, 0
19, 0, 0, 0
20, 0, 0, 0
21, 0, 0, 0
22, 0, 0, 0
23, 0, 0, 0
24, 0, 0, 0
25, 0, 0, 0
26, 0, 0, 0
27, 0, 0, 0
28, 0, 0, 0
29, 0, 0, 0
30, 0, 0, 0
31, 0, 0, 0
32, 0, 0, 0
33, 0, 0, 0
34, 0, 0, 0
35, 0, 0, 0
36, 0, 0, 0
37, 0, 0, 0
38, 0, 0, 0
39, 0, 0, 0
40, 0, 0, 0
41, 0, 0, 0
42, 0, 0, 0
43, 0, 0, 0
44, 0, 0, 0
45, 0, 0, 0
46, 0, 0, 0
47, 0, 0, 0
48, 0, 0, 0
49, 0, 0, 0
50, 0, 0, 0
51, 0, 0, 0
52, 0, 0, 0
53, 0, 0, 0
54, 0, 0, 0
55, 0, 0, 0
56, 0, 0, 0
57, 0, 0, 0
58, 0, 0, 0
59, 0, 0, 0
60, 0, 0, 0
61, 0, 0, 0
62, 0, 0, 0
63, 0, 0, 0
64, 0, 0, 0
65, 0, 0, 0
66, 0, 0, 0
67, 0, 0, 11.90692710876465
68, 0, 0, 114.3783950805664
69, 0, 0, 601.0518798828125
70, 0, 0, 1496.526123046875
71, 0, 0, 2913.755859375
72, 0, 0, 4367.9921875
73, 0, 0, 5207.11328125
74, 0, 0, 4974.42724609375
75, 0, 0, 4438.85107421875
76, 0, 0, 3977.454833984375
77, 0, 0, 3485.228515625
78, 0, 0, 3142.989990234375
79, 0, 0, 2912.1962890625
80, 0, 0, 2731.817138671875
81, 0, 0, 2572.0966796875
82, 0, 0, 2454.31494140625
83, 0, 0, 2361.895751953125
84, 0, 0, 2256.4150390625
85, 0, 0, 2175.6533203125
86, 0, 0, 2108.513916015625
87, 0, 0, 2043.39453125
88, 0, 0, 1979.989624023438
89, 0, 0, 1938.522216796875
90, 0, 0, 1879.8740234375
91, 0, 0, 1845.060791015625
92, 0, 0, 1798.985107421875
93, 0, 0, 1762.42236328125
94, 0, 0, 1730.285522460938
95, 0, 0, 1686.814086914062
96, 0, 0, 1662.10693359375
97, 0, 0, 1635.86767578125
98, 0, 0, 1607.331787109375
99, 0, 0, 1583.973510742188
100, 0, 0, 1556.095458984375
101, 0, 0, 1526.8564453125
102, 0, 0, 1510.416870117188
103, 0, 0, 1493.069580078125
104, 0, 0, 1477.10498046875
105, 0, 0, 1456.84912109375
106, 0, 0, 1440.4658203125
107, 0, 0, 1406.425170898438
108, 0, 0, 1395.782592773438
109, 0, 0, 1382.771484375
110, 0, 0, 1367.82666015625
111, 0, 0, 1346.306640625
112, 0, 0, 1340.247192382812
113, 0, 0, 1318.447387695312
114, 0, 0, 1307.861328125
115, 0, 0, 1296.983764648438
116, 0, 0, 1283.498291015625
117, 0, 0, 1270.285278320312
118, 0, 0, 1254.302368164062
119, 0, 0, 1250.266723632812
120, 0, 0, 1239.483276367188
121, 0, 0, 1224.367797851562
122, 0, 0, 1219.422607421875
123, 0, 0, 1212.609985351562
124, 0, 0, 1201.99365234375
125, 0, 0, 1191.96728515625
126, 0, 0, 1189.925659179688
127, 0, 0, 1166.450439453125
128, 0, 0, 1168.103881835938
129, 0, 0, 1149.97412109375
130, 0, 0, 1141.760131835938
131, 0, 0, 1135.335327148438
132, 0, 0, 1123.980102539062
133, 0, 0, 1123.467407226562
134, 0, 0, 1107.5576171875
135, 0, 0, 1104.250732421875
136, 0, 0, 1099.406127929688
137, 0, 0, 1093.664916992188
138, 0, 0, 1084.400512695312
139, 0, 0, 1080.940673828125
140, 0, 0, 1069.597412109375
141, 0, 0, 1073.232177734375
142, 0, 0, 1061.978637695312
143, 0, 0, 1053.88916015625
144, 0, 0, 1047.328002929688
145, 0, 0, 1043.201538085938
146, 0, 0, 1039.015991210938
147, 0, 0, 1034.836181640625
148, 0, 0, 1027.3828125
149, 0, 0, 1025.634033203125
150, 0, 0, 1014.236145019531
151, 0, 0, 1004.386657714844
152, 0, 0, 1006.601989746094
153, 0, 0, 998.5291137695312
154, 0, 0, 998.6375732421875
155, 0, 0, 983.6300659179688
156, 0, 0, 988.2992553710938
157, 0, 0, 983.095947265625
158, 0, 0, 978.202392578125
159, 0, 0, 970.647216796875
160, 0, 0, 966.3355102539062
161, 0, 0, 961.5753784179688
162, 0, 0, 964.7369384765625
163, 0, 0, 962.5614013671875
164, 0, 0, 955.9734497070312
165, 0, 0, 942.85791015625
166, 0, 0, 942.96533203125
167, 0, 0, 933.0474853515625
168, 0, 0, 937.6382446289062
169, 0, 0, 924.5459594726562
170, 0, 0, 925.147216796875
171, 0, 0, 918.1241455078125
172, 0, 0, 918.2728271484375
173, 0, 0, 921.8776245117188
174, 0, 0, 914.3015747070312
175, 0, 0, 910.3040161132812
176, 0, 0, 903.2610473632812
177, 0, 0, 904.367431640625
178, 0, 0, 899.1618041992188
179, 0, 0, 891.44287109375
