# TOPAS Version: 3.3.p1
# Parameter File: Test.txt
# Results for scorer MLIC_Scorer
# Scored in component: MLIC
# X in 180 bins of 0.177778 cm
# Y in 1 bin  of 10 cm
# Z in 1 bin  of 10 cm
# EnergyDeposit ( MeV ) : Sum   
0, 0, 0, 0
1, 0, 0, 0
2, 0, 0, 0
3, 0, 0, 0
4, 0, 0, 0
5, 0, 0, 0
6, 0, 0, 0
7, 0, 0, 0
8, 0, 0, 0
9, 0, 0, 0
10, 0, 0, 0
11, 0, 0, 0
12, 0, 0, 0
13, 0, 0, 0
14, 0, 0, 0
15, 0, 0, 0
16, 0, 0, 0
17, 0, 0, 0
18, 0, 0, 0
19, 0, 0, 0
20, 0, 0, 0
21, 0, 0, 0
22, 0, 0, 0
23, 0, 0, 0
24, 0, 0, 0
25, 0, 0, 0
26, 0, 0, 0
27, 0, 0, 0
28, 0, 0, 0
29, 0, 0, 0
30, 0, 0, 0
31, 0, 0, 0
32, 0, 0, 0
33, 0, 0, 0
34, 0, 0, 0
35, 0, 0, 0
36, 0, 0, 0
37, 0, 0, 0
38, 0, 0, 0
39, 0, 0, 0
40, 0, 0, 0
41, 0, 0, 0
42, 0, 0, 0
43, 0, 0, 0
44, 0, 0, 0
45, 0, 0, 0
46, 0, 0, 0
47, 0, 0, 0
48, 0, 0, 0
49, 0, 0, 0
50, 0, 0, 0
51, 0, 0, 0
52, 0, 0, 0
53, 0, 0, 0
54, 0, 0, 0
55, 0, 0, 0
56, 0, 0, 0
57, 0, 0, 0
58, 0, 0, 0
59, 0, 0, 0
60, 0, 0, 0
61, 0, 0, 0
62, 0, 0, 0
63, 0, 0, 0
64, 0, 0, 0
65, 0, 0, 0
66, 0, 0, 0
67, 0, 0, 0
68, 0, 0, 0
69, 0, 0, 0
70, 0, 0, 0
71, 0, 0, 0
72, 0, 0, 0
73, 0, 0, 0
74, 0, 0, 0
75, 0, 0, 0
76, 0, 0, 0
77, 0, 0, 0
78, 0, 0, 0
79, 0, 0, 0
80, 0, 0, 0
81, 0, 0, 0
82, 0, 0, 0
83, 0, 0, 0
84, 0, 0, 0.004826761316508055
85, 0, 0, 0
86, 0, 0, 0
87, 0, 0, 0
88, 0, 0, 0
89, 0, 0, 0.001832312904298306
90, 0, 0, 0.004894793964922428
91, 0, 0, 0
92, 0, 0, 0
93, 0, 0, 0
94, 0, 0, 0
95, 0, 0, 0
96, 0, 0, 0.03620696812868118
97, 0, 0, 0
98, 0, 0, 0
99, 0, 0, 0
100, 0, 0, 0
101, 0, 0, 0
102, 0, 0, 0
103, 0, 0, 0
104, 0, 0, 0
105, 0, 0, 0
106, 0, 0, 0
107, 0, 0, 0
108, 0, 0, 0
109, 0, 0, 0
110, 0, 0, 0
111, 0, 0, 0
112, 0, 0, 0
113, 0, 0, 0
114, 0, 0, 0
115, 0, 0, 0
116, 0, 0, 3.123824834823608
117, 0, 0, 17.57221221923828
118, 0, 0, 125.2371139526367
119, 0, 0, 500.1373291015625
120, 0, 0, 1574.228515625
121, 0, 0, 2866.560302734375
122, 0, 0, 4225.615234375
123, 0, 0, 4729.6884765625
124, 0, 0, 4997.89892578125
125, 0, 0, 4550.06591796875
126, 0, 0, 4047.7568359375
127, 0, 0, 3534.169677734375
128, 0, 0, 3198.69775390625
129, 0, 0, 2941.768798828125
130, 0, 0, 2749.652099609375
131, 0, 0, 2595.826171875
132, 0, 0, 2471.298828125
133, 0, 0, 2369.386474609375
134, 0, 0, 2268.382080078125
135, 0, 0, 2189.434814453125
136, 0, 0, 2111.64453125
137, 0, 0, 2053.419677734375
138, 0, 0, 1998.679565429688
139, 0, 0, 1939.444091796875
140, 0, 0, 1888.860107421875
141, 0, 0, 1842.639526367188
142, 0, 0, 1807.2451171875
143, 0, 0, 1769.399169921875
144, 0, 0, 1734.301391601562
145, 0, 0, 1703.633178710938
146, 0, 0, 1667.046997070312
147, 0, 0, 1629.443603515625
148, 0, 0, 1606.344604492188
149, 0, 0, 1592.208251953125
150, 0, 0, 1555.135375976562
151, 0, 0, 1548.542236328125
152, 0, 0, 1516.636108398438
153, 0, 0, 1494.853515625
154, 0, 0, 1468.465942382812
155, 0, 0, 1451.66162109375
156, 0, 0, 1436.915161132812
157, 0, 0, 1419.166748046875
158, 0, 0, 1397.34375
159, 0, 0, 1380.713012695312
160, 0, 0, 1368.752319335938
161, 0, 0, 1354.752319335938
162, 0, 0, 1339.34326171875
163, 0, 0, 1316.1640625
164, 0, 0, 1309.424560546875
165, 0, 0, 1302.786987304688
166, 0, 0, 1288.188598632812
167, 0, 0, 1270.684692382812
168, 0, 0, 1265.85498046875
169, 0, 0, 1242.061279296875
170, 0, 0, 1238.034057617188
171, 0, 0, 1224.217163085938
172, 0, 0, 1215.575439453125
173, 0, 0, 1202.005249023438
174, 0, 0, 1190.178466796875
175, 0, 0, 1189.313720703125
176, 0, 0, 1177.0830078125
177, 0, 0, 1167.364379882812
178, 0, 0, 1164.16796875
179, 0, 0, 1152.591186523438
