# TOPAS Version: 3.3.p1
# Parameter File: Test.txt
# Results for scorer MLIC_Scorer
# Scored in component: MLIC
# X in 180 bins of 0.177778 cm
# Y in 1 bin  of 10 cm
# Z in 1 bin  of 10 cm
# EnergyDeposit ( MeV ) : Sum   
0, 0, 0, 0
1, 0, 0, 0
2, 0, 0, 0
3, 0, 0, 0
4, 0, 0, 0
5, 0, 0, 0
6, 0, 0, 0
7, 0, 0, 0
8, 0, 0, 0.004977291449904442
9, 0, 0, 0
10, 0, 0, 0
11, 0, 0, 0
12, 0, 0, 0
13, 0, 0, 0
14, 0, 0, 0
15, 0, 0, 0
16, 0, 0, 0.006601863540709019
17, 0, 0, 0
18, 0, 0, 0
19, 0, 0, 0
20, 0, 0, 0
21, 0, 0, 0.01971322111785412
22, 0, 0, 37.72311782836914
23, 0, 0, 215.8236694335938
24, 0, 0, 646.9561157226562
25, 0, 0, 1588.213256835938
26, 0, 0, 3131.3369140625
27, 0, 0, 4201.82373046875
28, 0, 0, 4996.97021484375
29, 0, 0, 4879.21630859375
30, 0, 0, 4408.19677734375
31, 0, 0, 3905.09912109375
32, 0, 0, 3518.64599609375
33, 0, 0, 3179.21826171875
34, 0, 0, 2924.46533203125
35, 0, 0, 2735.568603515625
36, 0, 0, 2577.731689453125
37, 0, 0, 2462.985595703125
38, 0, 0, 2350.84765625
39, 0, 0, 2261.642822265625
40, 0, 0, 2186.356201171875
41, 0, 0, 2105.476806640625
42, 0, 0, 2041.712768554688
43, 0, 0, 1983.5703125
44, 0, 0, 1934.520874023438
45, 0, 0, 1882.64404296875
46, 0, 0, 1841.755737304688
47, 0, 0, 1797.174560546875
48, 0, 0, 1761.268310546875
49, 0, 0, 1726.951782226562
50, 0, 0, 1698.164916992188
51, 0, 0, 1658.0830078125
52, 0, 0, 1636.75244140625
53, 0, 0, 1608.614013671875
54, 0, 0, 1583.173950195312
55, 0, 0, 1550.884521484375
56, 0, 0, 1530.783325195312
57, 0, 0, 1511.782104492188
58, 0, 0, 1494.924072265625
59, 0, 0, 1474.587158203125
60, 0, 0, 1445.485473632812
61, 0, 0, 1439.346557617188
62, 0, 0, 1412.372924804688
63, 0, 0, 1396.774658203125
64, 0, 0, 1379.071044921875
65, 0, 0, 1366.431396484375
66, 0, 0, 1356.140625
67, 0, 0, 1329.352783203125
68, 0, 0, 1321.336669921875
69, 0, 0, 1305.103149414062
70, 0, 0, 1300.365844726562
71, 0, 0, 1284.277954101562
72, 0, 0, 1270.680419921875
73, 0, 0, 1254.254516601562
74, 0, 0, 1250.594604492188
75, 0, 0, 1235.7763671875
76, 0, 0, 1229.906372070312
77, 0, 0, 1218.365844726562
78, 0, 0, 1206.023071289062
79, 0, 0, 1198.52734375
80, 0, 0, 1187.015014648438
81, 0, 0, 1177.166259765625
82, 0, 0, 1172.846069335938
83, 0, 0, 1162.390258789062
84, 0, 0, 1157.115234375
85, 0, 0, 1147.7783203125
86, 0, 0, 1137.24658203125
87, 0, 0, 1126.813842773438
88, 0, 0, 1121.960083007812
89, 0, 0, 1111.609741210938
90, 0, 0, 1098.81982421875
91, 0, 0, 1106.009643554688
92, 0, 0, 1087.31884765625
93, 0, 0, 1086.183837890625
94, 0, 0, 1081.914184570312
95, 0, 0, 1069.131713867188
96, 0, 0, 1062.856567382812
97, 0, 0, 1060.959350585938
98, 0, 0, 1051.5380859375
99, 0, 0, 1045.941772460938
100, 0, 0, 1045.268798828125
101, 0, 0, 1037.457275390625
102, 0, 0, 1030.022583007812
103, 0, 0, 1026.692993164062
104, 0, 0, 1028.881713867188
105, 0, 0, 1019.784240722656
106, 0, 0, 1007.269226074219
107, 0, 0, 1002.597229003906
108, 0, 0, 1000.067810058594
109, 0, 0, 991.444091796875
110, 0, 0, 987.7572631835938
111, 0, 0, 979.9216918945312
112, 0, 0, 977.365234375
113, 0, 0, 977.1444702148438
114, 0, 0, 964.1676025390625
115, 0, 0, 968.8804321289062
116, 0, 0, 957.5237426757812
117, 0, 0, 966.6923828125
118, 0, 0, 957.7301635742188
119, 0, 0, 952.4703369140625
120, 0, 0, 943.4307250976562
121, 0, 0, 940.1348266601562
122, 0, 0, 935.9744873046875
123, 0, 0, 937.69287109375
124, 0, 0, 931.0975341796875
125, 0, 0, 927.4724731445312
126, 0, 0, 925.1589965820312
127, 0, 0, 913.2110595703125
128, 0, 0, 917.8505859375
129, 0, 0, 911.698486328125
130, 0, 0, 916.6609497070312
131, 0, 0, 910.8983154296875
132, 0, 0, 893.73291015625
133, 0, 0, 895.649658203125
134, 0, 0, 898.4501342773438
135, 0, 0, 889.4158325195312
136, 0, 0, 894.6416625976562
137, 0, 0, 889.176025390625
138, 0, 0, 885.3613891601562
139, 0, 0, 879.5397338867188
140, 0, 0, 873.8037109375
141, 0, 0, 877.2633056640625
142, 0, 0, 867.2265625
143, 0, 0, 869.8941650390625
144, 0, 0, 863.9603881835938
145, 0, 0, 862.718505859375
146, 0, 0, 862.258056640625
147, 0, 0, 861.583740234375
148, 0, 0, 855.504638671875
149, 0, 0, 847.1458740234375
150, 0, 0, 852.29150390625
151, 0, 0, 844.1964111328125
152, 0, 0, 838.5487060546875
153, 0, 0, 841.882080078125
154, 0, 0, 839.5718383789062
155, 0, 0, 832.915283203125
156, 0, 0, 830.6073608398438
157, 0, 0, 834.3915405273438
158, 0, 0, 826.2518310546875
159, 0, 0, 827.7081298828125
160, 0, 0, 832.0313720703125
161, 0, 0, 827.6987915039062
162, 0, 0, 827.7936401367188
163, 0, 0, 818.0751342773438
164, 0, 0, 815.5396728515625
165, 0, 0, 815.9336547851562
166, 0, 0, 802.4740600585938
167, 0, 0, 800.3788452148438
168, 0, 0, 803.6549682617188
169, 0, 0, 808.9664916992188
170, 0, 0, 795.6881713867188
171, 0, 0, 801.628662109375
172, 0, 0, 797.6572875976562
173, 0, 0, 794.938720703125
174, 0, 0, 798.0724487304688
175, 0, 0, 784.9227294921875
176, 0, 0, 789.7446899414062
177, 0, 0, 792.172607421875
178, 0, 0, 793.10107421875
179, 0, 0, 780.798828125
