# TOPAS Version: 3.3.p1
# Parameter File: Test.txt
# Results for scorer MLIC_Scorer
# Scored in component: MLIC
# X in 165 bins of 0.2 cm
# Y in 1 bin  of 10 cm
# Z in 1 bin  of 10 cm
# EnergyDeposit ( MeV ) : Sum   
0, 0, 0, 0
1, 0, 0, 0
2, 0, 0, 0
3, 0, 0, 0
4, 0, 0, 0
5, 0, 0, 0
6, 0, 0, 0
7, 0, 0, 0
8, 0, 0, 0
9, 0, 0, 0
10, 0, 0, 0
11, 0, 0, 0
12, 0, 0, 0
13, 0, 0, 0
14, 0, 0, 0
15, 0, 0, 0
16, 0, 0, 0
17, 0, 0, 0
18, 0, 0, 0
19, 0, 0, 0
20, 0, 0, 0
21, 0, 0, 0
22, 0, 0, 0
23, 0, 0, 0
24, 0, 0, 0
25, 0, 0, 0
26, 0, 0, 0
27, 0, 0, 0
28, 0, 0, 0
29, 0, 0, 0
30, 0, 0, 0
31, 0, 0, 0
32, 0, 0, 8.351726531982422
33, 0, 0, 10.27689552307129
34, 0, 0, 100.9369201660156
35, 0, 0, 449.0746459960938
36, 0, 0, 1506.360717773438
37, 0, 0, 3106.350341796875
38, 0, 0, 4592.46923828125
39, 0, 0, 5452.02685546875
40, 0, 0, 5452.36767578125
41, 0, 0, 4833.9794921875
42, 0, 0, 4213.76806640625
43, 0, 0, 3723.932861328125
44, 0, 0, 3370.578857421875
45, 0, 0, 3114.81787109375
46, 0, 0, 2914.20654296875
47, 0, 0, 2753.380615234375
48, 0, 0, 2625.988525390625
49, 0, 0, 2514.0947265625
50, 0, 0, 2421.5703125
51, 0, 0, 2325.151611328125
52, 0, 0, 2258.8671875
53, 0, 0, 2191.044921875
54, 0, 0, 2128.046875
55, 0, 0, 2072.336669921875
56, 0, 0, 2017.616088867188
57, 0, 0, 1975.30810546875
58, 0, 0, 1928.323120117188
59, 0, 0, 1892.219116210938
60, 0, 0, 1844.424194335938
61, 0, 0, 1808.890869140625
62, 0, 0, 1776.802368164062
63, 0, 0, 1746.716186523438
64, 0, 0, 1719.0947265625
65, 0, 0, 1688.75341796875
66, 0, 0, 1672.6669921875
67, 0, 0, 1645.364868164062
68, 0, 0, 1615.688354492188
69, 0, 0, 1602.432495117188
70, 0, 0, 1572.500244140625
71, 0, 0, 1547.419799804688
72, 0, 0, 1531.345458984375
73, 0, 0, 1514.114379882812
74, 0, 0, 1495.549194335938
75, 0, 0, 1474.29736328125
76, 0, 0, 1465.143432617188
77, 0, 0, 1443.138671875
78, 0, 0, 1434.863891601562
79, 0, 0, 1419.674926757812
80, 0, 0, 1400.733642578125
81, 0, 0, 1388.020385742188
82, 0, 0, 1378.724487304688
83, 0, 0, 1361.229858398438
84, 0, 0, 1345.657104492188
85, 0, 0, 1335.67333984375
86, 0, 0, 1329.986572265625
87, 0, 0, 1308.585815429688
88, 0, 0, 1306.214965820312
89, 0, 0, 1298.285522460938
90, 0, 0, 1284.413330078125
91, 0, 0, 1270.900756835938
92, 0, 0, 1271.085815429688
93, 0, 0, 1252.829711914062
94, 0, 0, 1246.617919921875
95, 0, 0, 1236.770874023438
96, 0, 0, 1224.092895507812
97, 0, 0, 1214.970458984375
98, 0, 0, 1210.163940429688
99, 0, 0, 1203.984252929688
100, 0, 0, 1189.372802734375
101, 0, 0, 1182.159057617188
102, 0, 0, 1180.140380859375
103, 0, 0, 1162.740356445312
104, 0, 0, 1167.726318359375
105, 0, 0, 1157.678833007812
106, 0, 0, 1150.768310546875
107, 0, 0, 1142.7861328125
108, 0, 0, 1141.307983398438
109, 0, 0, 1130.439453125
110, 0, 0, 1134.259887695312
111, 0, 0, 1111.716796875
112, 0, 0, 1116.161254882812
113, 0, 0, 1107.217895507812
114, 0, 0, 1110.407348632812
115, 0, 0, 1095.479614257812
116, 0, 0, 1087.760986328125
117, 0, 0, 1089.090087890625
118, 0, 0, 1083.765502929688
119, 0, 0, 1073.946655273438
120, 0, 0, 1071.587768554688
121, 0, 0, 1057.016723632812
122, 0, 0, 1058.682861328125
123, 0, 0, 1052.838500976562
124, 0, 0, 1046.564208984375
125, 0, 0, 1039.46435546875
126, 0, 0, 1039.802124023438
127, 0, 0, 1030.06787109375
128, 0, 0, 1026.389038085938
129, 0, 0, 1020.721862792969
130, 0, 0, 1020.138000488281
131, 0, 0, 1012.266235351562
132, 0, 0, 1010.3583984375
133, 0, 0, 1014.289794921875
134, 0, 0, 1003.548156738281
135, 0, 0, 1009.594848632812
136, 0, 0, 997.2682495117188
137, 0, 0, 990.2886352539062
138, 0, 0, 986.6734619140625
139, 0, 0, 979.9674072265625
140, 0, 0, 983.9835205078125
141, 0, 0, 975.06201171875
142, 0, 0, 977.2742309570312
143, 0, 0, 975.7540283203125
144, 0, 0, 975.8381958007812
145, 0, 0, 961.4453735351562
146, 0, 0, 968.1448974609375
147, 0, 0, 960.1631469726562
148, 0, 0, 956.80322265625
149, 0, 0, 949.47998046875
150, 0, 0, 946.57373046875
151, 0, 0, 950.484619140625
152, 0, 0, 938.725341796875
153, 0, 0, 942.4371337890625
154, 0, 0, 933.9937744140625
155, 0, 0, 933.0775756835938
156, 0, 0, 929.8670043945312
157, 0, 0, 930.6524658203125
158, 0, 0, 925.3994750976562
159, 0, 0, 921.0215454101562
160, 0, 0, 913.0286865234375
161, 0, 0, 908.7242431640625
162, 0, 0, 907.8758544921875
163, 0, 0, 907.0537109375
164, 0, 0, 907.0027465820312
