# TOPAS Version: 3.3.p1
# Parameter File: Test.txt
# Results for scorer MLIC_Scorer
# Scored in component: MLIC
# X in 180 bins of 0.177778 cm
# Y in 1 bin  of 10 cm
# Z in 1 bin  of 10 cm
# EnergyDeposit ( MeV ) : Sum   
0, 0, 0, 0
1, 0, 0, 0
2, 0, 0, 0
3, 0, 0, 0
4, 0, 0, 0
5, 0, 0, 0
6, 0, 0, 0
7, 0, 0, 0
8, 0, 0, 0
9, 0, 0, 0
10, 0, 0, 0
11, 0, 0, 0
12, 0, 0, 0
13, 0, 0, 0
14, 0, 0, 0
15, 0, 0, 0
16, 0, 0, 0
17, 0, 0, 0
18, 0, 0, 0
19, 0, 0, 0
20, 0, 0, 0
21, 0, 0, 0
22, 0, 0, 0
23, 0, 0, 0
24, 0, 0, 0
25, 0, 0, 0
26, 0, 0, 0
27, 0, 0, 0
28, 0, 0, 0
29, 0, 0, 0
30, 0, 0, 0
31, 0, 0, 0
32, 0, 0, 0
33, 0, 0, 0
34, 0, 0, 0
35, 0, 0, 0
36, 0, 0, 0
37, 0, 0, 0
38, 0, 0, 0
39, 0, 0, 0
40, 0, 0, 0
41, 0, 0, 0
42, 0, 0, 0
43, 0, 0, 0
44, 0, 0, 0
45, 0, 0, 0
46, 0, 0, 0
47, 0, 0, 0
48, 0, 0, 0
49, 0, 0, 0
50, 0, 0, 0
51, 0, 0, 0
52, 0, 0, 0
53, 0, 0, 0
54, 0, 0, 0
55, 0, 0, 0
56, 0, 0, 0
57, 0, 0, 0
58, 0, 0, 0
59, 0, 0, 0
60, 0, 0, 0
61, 0, 0, 0
62, 0, 0, 0
63, 0, 0, 0
64, 0, 0, 0
65, 0, 0, 0
66, 0, 0, 0
67, 0, 0, 0
68, 0, 0, 0
69, 0, 0, 0
70, 0, 0, 0
71, 0, 0, 0
72, 0, 0, 0
73, 0, 0, 0
74, 0, 0, 0
75, 0, 0, 0
76, 0, 0, 0
77, 0, 0, 0
78, 0, 0, 0
79, 0, 0, 0
80, 0, 0, 0
81, 0, 0, 0
82, 0, 0, 0
83, 0, 0, 0
84, 0, 0, 0
85, 0, 0, 0
86, 0, 0, 0
87, 0, 0, 0
88, 0, 0, 0
89, 0, 0, 0
90, 0, 0, 0
91, 0, 0, 0
92, 0, 0, 0
93, 0, 0, 0
94, 0, 0, 0
95, 0, 0, 0
96, 0, 0, 0
97, 0, 0, 0
98, 0, 0, 0
99, 0, 0, 0
100, 0, 0, 0
101, 0, 0, 0
102, 0, 0, 0
103, 0, 0, 0
104, 0, 0, 0
105, 0, 0, 0
106, 0, 0, 0
107, 0, 0, 0
108, 0, 0, 0
109, 0, 0, 0
110, 0, 0, 0
111, 0, 0, 0
112, 0, 0, 0
113, 0, 0, 0
114, 0, 0, 0
115, 0, 0, 0
116, 0, 0, 0
117, 0, 0, 0
118, 0, 0, 0
119, 0, 0, 0
120, 0, 0, 0
121, 0, 0, 0
122, 0, 0, 0.007189877796918154
123, 0, 0, 0
124, 0, 0, 0
125, 0, 0, 0
126, 0, 0, 0
127, 0, 0, 0
128, 0, 0, 0.03248250484466553
129, 0, 0, 0
130, 0, 0, 0
131, 0, 0, 0
132, 0, 0, 0
133, 0, 0, 0
134, 0, 0, 0
135, 0, 0, 0.01808600872755051
136, 0, 0, 0.0008639329462312162
137, 0, 0, 0
138, 0, 0, 9.898054122924805
139, 0, 0, 131.0806274414062
140, 0, 0, 437.8892211914062
141, 0, 0, 1282.971069335938
142, 0, 0, 2611.83740234375
143, 0, 0, 3926.237060546875
144, 0, 0, 4820.5625
145, 0, 0, 4995.16650390625
146, 0, 0, 4741.283203125
147, 0, 0, 4125.88232421875
148, 0, 0, 3570.326416015625
149, 0, 0, 3234.173095703125
150, 0, 0, 2968.274169921875
151, 0, 0, 2770.9482421875
152, 0, 0, 2618.061767578125
153, 0, 0, 2493.405517578125
154, 0, 0, 2377.4384765625
155, 0, 0, 2295.27734375
156, 0, 0, 2200.822509765625
157, 0, 0, 2123.469482421875
158, 0, 0, 2050.01220703125
159, 0, 0, 1994.305541992188
160, 0, 0, 1945.6298828125
161, 0, 0, 1899.6083984375
162, 0, 0, 1856.27001953125
163, 0, 0, 1806.409057617188
164, 0, 0, 1772.685913085938
165, 0, 0, 1730.575561523438
166, 0, 0, 1699.998046875
167, 0, 0, 1677.081298828125
168, 0, 0, 1639.799438476562
169, 0, 0, 1613.545532226562
170, 0, 0, 1586.12939453125
171, 0, 0, 1564.942016601562
172, 0, 0, 1540.365356445312
173, 0, 0, 1523.163452148438
174, 0, 0, 1498.255004882812
175, 0, 0, 1473.273681640625
176, 0, 0, 1457.607421875
177, 0, 0, 1437.5810546875
178, 0, 0, 1425.216430664062
179, 0, 0, 1400.227294921875
