# TOPAS Version: 3.3.p1
# Parameter File: Test.txt
# Results for scorer MLIC_Scorer
# Scored in component: MLIC
# X in 165 bins of 0.2 cm
# Y in 1 bin  of 10 cm
# Z in 1 bin  of 10 cm
# EnergyDeposit ( MeV ) : Sum   
0, 0, 0, 4496.6396484375
1, 0, 0, 5313.76171875
2, 0, 0, 5429.57470703125
3, 0, 0, 4894.57177734375
4, 0, 0, 4234.830078125
5, 0, 0, 3726.671630859375
6, 0, 0, 3360.29541015625
7, 0, 0, 3114.833740234375
8, 0, 0, 2922.23046875
9, 0, 0, 2754.035400390625
10, 0, 0, 2629.658203125
11, 0, 0, 2520.661865234375
12, 0, 0, 2414.94873046875
13, 0, 0, 2333.125244140625
14, 0, 0, 2249.00439453125
15, 0, 0, 2189.09326171875
16, 0, 0, 2124.27197265625
17, 0, 0, 2071.94970703125
18, 0, 0, 2021.664916992188
19, 0, 0, 1966.361694335938
20, 0, 0, 1926.835815429688
21, 0, 0, 1883.730224609375
22, 0, 0, 1853.929809570312
23, 0, 0, 1810.322631835938
24, 0, 0, 1775.287109375
25, 0, 0, 1753.1455078125
26, 0, 0, 1718.861328125
27, 0, 0, 1685.769897460938
28, 0, 0, 1665.899658203125
29, 0, 0, 1633.963989257812
30, 0, 0, 1625.634765625
31, 0, 0, 1600.843505859375
32, 0, 0, 1571.6767578125
33, 0, 0, 1550.383422851562
34, 0, 0, 1538.166137695312
35, 0, 0, 1515.06298828125
36, 0, 0, 1490.86376953125
37, 0, 0, 1482.11376953125
38, 0, 0, 1456.554931640625
39, 0, 0, 1445.508666992188
40, 0, 0, 1425.395629882812
41, 0, 0, 1417.568237304688
42, 0, 0, 1400.417114257812
43, 0, 0, 1396.383178710938
44, 0, 0, 1372.856567382812
45, 0, 0, 1365.092529296875
46, 0, 0, 1352.933837890625
47, 0, 0, 1333.629028320312
48, 0, 0, 1329.248779296875
49, 0, 0, 1323.829956054688
50, 0, 0, 1303.404174804688
51, 0, 0, 1293.609497070312
52, 0, 0, 1286.2783203125
53, 0, 0, 1276.883178710938
54, 0, 0, 1269.054931640625
55, 0, 0, 1252.752197265625
56, 0, 0, 1244.04736328125
57, 0, 0, 1240.620483398438
58, 0, 0, 1230.2783203125
59, 0, 0, 1217.470703125
60, 0, 0, 1214.704345703125
61, 0, 0, 1203.435180664062
62, 0, 0, 1195.22509765625
63, 0, 0, 1184.223999023438
64, 0, 0, 1181.197509765625
65, 0, 0, 1172.539428710938
66, 0, 0, 1168.639770507812
67, 0, 0, 1153.732299804688
68, 0, 0, 1148.024536132812
69, 0, 0, 1142.953369140625
70, 0, 0, 1132.688232421875
71, 0, 0, 1139.332397460938
72, 0, 0, 1119.411987304688
73, 0, 0, 1113.579467773438
74, 0, 0, 1110.784423828125
75, 0, 0, 1101.549560546875
76, 0, 0, 1105.890380859375
77, 0, 0, 1088.794555664062
78, 0, 0, 1089.535888671875
79, 0, 0, 1075.477172851562
80, 0, 0, 1079.592895507812
81, 0, 0, 1070.366821289062
82, 0, 0, 1063.310302734375
83, 0, 0, 1062.250244140625
84, 0, 0, 1062.897338867188
85, 0, 0, 1053.598266601562
86, 0, 0, 1041.092895507812
87, 0, 0, 1043.10498046875
88, 0, 0, 1031.128540039062
89, 0, 0, 1033.490844726562
90, 0, 0, 1027.366943359375
91, 0, 0, 1022.583679199219
92, 0, 0, 1021.293823242188
93, 0, 0, 1014.174499511719
94, 0, 0, 1009.480773925781
95, 0, 0, 1001.933471679688
96, 0, 0, 1001.69970703125
97, 0, 0, 1007.027587890625
98, 0, 0, 1001.053283691406
99, 0, 0, 996.7421264648438
100, 0, 0, 986.2423095703125
101, 0, 0, 985.8491821289062
102, 0, 0, 979.3002319335938
103, 0, 0, 979.7542114257812
104, 0, 0, 977.264404296875
105, 0, 0, 962.6080322265625
106, 0, 0, 962.6784057617188
107, 0, 0, 968.7466430664062
108, 0, 0, 961.7542724609375
109, 0, 0, 946.1563720703125
110, 0, 0, 949.1389770507812
111, 0, 0, 941.5554809570312
112, 0, 0, 946.9156494140625
113, 0, 0, 939.51318359375
114, 0, 0, 930.827392578125
115, 0, 0, 932.7017822265625
116, 0, 0, 932.66162109375
117, 0, 0, 932.009765625
118, 0, 0, 924.65966796875
119, 0, 0, 920.5260009765625
120, 0, 0, 919.699951171875
121, 0, 0, 915.8563842773438
122, 0, 0, 914.8594360351562
123, 0, 0, 914.7053833007812
124, 0, 0, 904.0330200195312
125, 0, 0, 902.3228759765625
126, 0, 0, 905.7409057617188
127, 0, 0, 900.3828735351562
128, 0, 0, 900.7984619140625
129, 0, 0, 900.0780639648438
130, 0, 0, 901.077392578125
131, 0, 0, 899.825439453125
132, 0, 0, 885.654052734375
133, 0, 0, 890.542724609375
134, 0, 0, 882.1110229492188
135, 0, 0, 869.5936279296875
136, 0, 0, 882.4258422851562
137, 0, 0, 881.5919189453125
138, 0, 0, 868.4144897460938
139, 0, 0, 866.6182861328125
140, 0, 0, 868.7507934570312
141, 0, 0, 866.5253295898438
142, 0, 0, 866.1484375
143, 0, 0, 861.2833862304688
144, 0, 0, 863.1762084960938
145, 0, 0, 861.50341796875
146, 0, 0, 852.7208251953125
147, 0, 0, 857.2177734375
148, 0, 0, 850.9434204101562
149, 0, 0, 861.4989013671875
150, 0, 0, 844.5086669921875
151, 0, 0, 855.2488403320312
152, 0, 0, 843.0445556640625
153, 0, 0, 846.5692749023438
154, 0, 0, 848.4345703125
155, 0, 0, 839.2801513671875
156, 0, 0, 836.718994140625
157, 0, 0, 832.6201782226562
158, 0, 0, 828.1925659179688
159, 0, 0, 832.8772583007812
160, 0, 0, 832.35205078125
161, 0, 0, 823.865234375
162, 0, 0, 824.5184326171875
163, 0, 0, 822.1666870117188
164, 0, 0, 820.9161987304688
