# TOPAS Version: 3.3.p1
# Parameter File: Test.txt
# Results for scorer MLIC_Scorer
# Scored in component: MLIC
# X in 180 bins of 0.177778 cm
# Y in 1 bin  of 10 cm
# Z in 1 bin  of 10 cm
# EnergyDeposit ( MeV ) : Sum   
0, 0, 0, 0
1, 0, 0, 0
2, 0, 0, 0
3, 0, 0, 0
4, 0, 0, 0
5, 0, 0, 0
6, 0, 0, 0
7, 0, 0, 0
8, 0, 0, 0
9, 0, 0, 0
10, 0, 0, 0
11, 0, 0, 0
12, 0, 0, 0
13, 0, 0, 0
14, 0, 0, 0
15, 0, 0, 0
16, 0, 0, 0
17, 0, 0, 0
18, 0, 0, 0
19, 0, 0, 0
20, 0, 0, 0
21, 0, 0, 0
22, 0, 0, 0
23, 0, 0, 0
24, 0, 0, 0
25, 0, 0, 0
26, 0, 0, 0
27, 0, 0, 0
28, 0, 0, 0
29, 0, 0, 0
30, 0, 0, 0
31, 0, 0, 0
32, 0, 0, 0
33, 0, 0, 0
34, 0, 0, 0
35, 0, 0, 0
36, 0, 0, 0
37, 0, 0, 0
38, 0, 0, 0
39, 0, 0, 0
40, 0, 0, 0
41, 0, 0, 0
42, 0, 0, 0
43, 0, 0, 0
44, 0, 0, 0
45, 0, 0, 0
46, 0, 0, 0
47, 0, 0, 0
48, 0, 0, 0
49, 0, 0, 0
50, 0, 0, 0
51, 0, 0, 0
52, 0, 0, 0
53, 0, 0, 0
54, 0, 0, 0
55, 0, 0, 0
56, 0, 0, 0
57, 0, 0, 0
58, 0, 0, 0
59, 0, 0, 0
60, 0, 0, 0
61, 0, 0, 0
62, 0, 0, 0
63, 0, 0, 0
64, 0, 0, 0
65, 0, 0, 0
66, 0, 0, 0
67, 0, 0, 0
68, 0, 0, 0
69, 0, 0, 0
70, 0, 0, 0
71, 0, 0, 0
72, 0, 0, 0
73, 0, 0, 0
74, 0, 0, 0
75, 0, 0, 0
76, 0, 0, 0
77, 0, 0, 0
78, 0, 0, 0
79, 0, 0, 0
80, 0, 0, 0
81, 0, 0, 0
82, 0, 0, 0
83, 0, 0, 0
84, 0, 0, 0
85, 0, 0, 0
86, 0, 0, 0
87, 0, 0, 0
88, 0, 0, 0
89, 0, 0, 0
90, 0, 0, 0
91, 0, 0, 0
92, 0, 0, 0
93, 0, 0, 0
94, 0, 0, 0
95, 0, 0, 0
96, 0, 0, 0
97, 0, 0, 0
98, 0, 0, 0
99, 0, 0, 0
100, 0, 0, 0
101, 0, 0, 6.44948148727417
102, 0, 0, 14.51848316192627
103, 0, 0, 36.19108963012695
104, 0, 0, 67.06439971923828
105, 0, 0, 139.1911468505859
106, 0, 0, 290.8552856445312
107, 0, 0, 447.588134765625
108, 0, 0, 473.7300720214844
109, 0, 0, 424.4875793457031
110, 0, 0, 422.6531677246094
111, 0, 0, 378.2168273925781
112, 0, 0, 339.7391662597656
113, 0, 0, 303.5449523925781
114, 0, 0, 281.52099609375
115, 0, 0, 261.0406799316406
116, 0, 0, 247.2637939453125
117, 0, 0, 237.3867797851562
118, 0, 0, 224.9788665771484
119, 0, 0, 216.7891540527344
120, 0, 0, 208.9111633300781
121, 0, 0, 203.7696685791016
122, 0, 0, 194.7162322998047
123, 0, 0, 193.6467590332031
124, 0, 0, 185.9610137939453
125, 0, 0, 181.1425323486328
126, 0, 0, 175.8554229736328
127, 0, 0, 170.2240753173828
128, 0, 0, 169.2840270996094
129, 0, 0, 165.5823822021484
130, 0, 0, 162.588623046875
131, 0, 0, 158.9847106933594
132, 0, 0, 156.1841430664062
133, 0, 0, 151.0989685058594
134, 0, 0, 151.7836303710938
135, 0, 0, 148.8782958984375
136, 0, 0, 146.6431274414062
137, 0, 0, 143.4237823486328
138, 0, 0, 142.1876068115234
139, 0, 0, 140.4335174560547
140, 0, 0, 138.1008911132812
141, 0, 0, 137.990478515625
142, 0, 0, 137.0488128662109
143, 0, 0, 136.1350860595703
144, 0, 0, 130.2912445068359
145, 0, 0, 132.0964050292969
146, 0, 0, 129.1108245849609
147, 0, 0, 127.5927352905273
148, 0, 0, 125.3918533325195
149, 0, 0, 125.4568328857422
150, 0, 0, 124.2962036132812
151, 0, 0, 122.2539367675781
152, 0, 0, 121.8501434326172
153, 0, 0, 121.1217575073242
154, 0, 0, 118.8576583862305
155, 0, 0, 118.9784927368164
156, 0, 0, 117.4916000366211
157, 0, 0, 115.3487701416016
158, 0, 0, 114.8955230712891
159, 0, 0, 112.4897384643555
160, 0, 0, 114.2887802124023
161, 0, 0, 114.1107177734375
162, 0, 0, 110.8142318725586
163, 0, 0, 111.8775634765625
164, 0, 0, 111.5084228515625
165, 0, 0, 110.414192199707
166, 0, 0, 110.6293792724609
167, 0, 0, 106.5295562744141
168, 0, 0, 108.4603500366211
169, 0, 0, 108.0022506713867
170, 0, 0, 104.2172622680664
171, 0, 0, 106.8627471923828
172, 0, 0, 105.9855728149414
173, 0, 0, 104.0414352416992
174, 0, 0, 103.360710144043
175, 0, 0, 102.9414749145508
176, 0, 0, 100.670280456543
177, 0, 0, 100.8626861572266
178, 0, 0, 101.8141174316406
179, 0, 0, 100.7454376220703
