# TOPAS Version: 3.3.p1
# Parameter File: Test.txt
# Results for scorer MLIC_Scorer
# Scored in component: MLIC
# X in 165 bins of 0.2 cm
# Y in 1 bin  of 10 cm
# Z in 1 bin  of 10 cm
# EnergyDeposit ( MeV ) : Sum   
0, 0, 0, 157.0492553710938
1, 0, 0, 539.9364013671875
2, 0, 0, 1469.177856445312
3, 0, 0, 3104.37744140625
4, 0, 0, 4479.56005859375
5, 0, 0, 5403.15185546875
6, 0, 0, 5381.08740234375
7, 0, 0, 4876.25830078125
8, 0, 0, 4265.5078125
9, 0, 0, 3732.954345703125
10, 0, 0, 3390.5751953125
11, 0, 0, 3120.817138671875
12, 0, 0, 2930.060302734375
13, 0, 0, 2770.24609375
14, 0, 0, 2623.578369140625
15, 0, 0, 2515.427978515625
16, 0, 0, 2420.111328125
17, 0, 0, 2332.55126953125
18, 0, 0, 2247.374755859375
19, 0, 0, 2191.060302734375
20, 0, 0, 2129.913818359375
21, 0, 0, 2060.73779296875
22, 0, 0, 2015.636840820312
23, 0, 0, 1971.328002929688
24, 0, 0, 1927.720336914062
25, 0, 0, 1885.183959960938
26, 0, 0, 1838.910278320312
27, 0, 0, 1816.6748046875
28, 0, 0, 1788.41845703125
29, 0, 0, 1749.761474609375
30, 0, 0, 1716.12158203125
31, 0, 0, 1689.950561523438
32, 0, 0, 1669.2998046875
33, 0, 0, 1637.768188476562
34, 0, 0, 1615.635375976562
35, 0, 0, 1601.748168945312
36, 0, 0, 1578.715576171875
37, 0, 0, 1552.28857421875
38, 0, 0, 1526.877319335938
39, 0, 0, 1512.790161132812
40, 0, 0, 1502.669677734375
41, 0, 0, 1480.579467773438
42, 0, 0, 1459.79736328125
43, 0, 0, 1454.333862304688
44, 0, 0, 1433.682250976562
45, 0, 0, 1424.962768554688
46, 0, 0, 1405.016479492188
47, 0, 0, 1388.322021484375
48, 0, 0, 1370.384399414062
49, 0, 0, 1359.425903320312
50, 0, 0, 1349.099731445312
51, 0, 0, 1334.20947265625
52, 0, 0, 1326.913818359375
53, 0, 0, 1313.767211914062
54, 0, 0, 1296.3115234375
55, 0, 0, 1299.433227539062
56, 0, 0, 1278.633056640625
57, 0, 0, 1274.851806640625
58, 0, 0, 1263.876098632812
59, 0, 0, 1262.245361328125
60, 0, 0, 1248.00439453125
61, 0, 0, 1235.357299804688
62, 0, 0, 1222.61279296875
63, 0, 0, 1220.655395507812
64, 0, 0, 1206.2890625
65, 0, 0, 1195.861083984375
66, 0, 0, 1204.369873046875
67, 0, 0, 1187.003662109375
68, 0, 0, 1179.23046875
69, 0, 0, 1164.001831054688
70, 0, 0, 1161.722412109375
71, 0, 0, 1158.498901367188
72, 0, 0, 1147.97412109375
73, 0, 0, 1145.339477539062
74, 0, 0, 1137.799072265625
75, 0, 0, 1132.07421875
76, 0, 0, 1129.697143554688
77, 0, 0, 1113.19775390625
78, 0, 0, 1112.101196289062
79, 0, 0, 1114.8720703125
80, 0, 0, 1107.705200195312
81, 0, 0, 1088.625
82, 0, 0, 1086.177124023438
83, 0, 0, 1084.2744140625
84, 0, 0, 1078.597412109375
85, 0, 0, 1077.116577148438
86, 0, 0, 1058.364868164062
87, 0, 0, 1065.776733398438
88, 0, 0, 1051.27294921875
89, 0, 0, 1053.071166992188
90, 0, 0, 1047.169189453125
91, 0, 0, 1046.35205078125
92, 0, 0, 1049.252319335938
93, 0, 0, 1039.745971679688
94, 0, 0, 1035.52197265625
95, 0, 0, 1015.947265625
96, 0, 0, 1016.1962890625
97, 0, 0, 1022.430908203125
98, 0, 0, 1017.426513671875
99, 0, 0, 999.5198974609375
100, 0, 0, 1000.762939453125
101, 0, 0, 997.0216064453125
102, 0, 0, 1000.616577148438
103, 0, 0, 996.67041015625
104, 0, 0, 986.2373657226562
105, 0, 0, 992.4015502929688
106, 0, 0, 977.0794067382812
107, 0, 0, 976.4866333007812
108, 0, 0, 971.5604248046875
109, 0, 0, 972.0382080078125
110, 0, 0, 962.1055908203125
111, 0, 0, 961.5722045898438
112, 0, 0, 965.62841796875
113, 0, 0, 956.038818359375
114, 0, 0, 961.2871704101562
115, 0, 0, 951.540771484375
116, 0, 0, 948.6712036132812
117, 0, 0, 944.8984375
118, 0, 0, 940.4578247070312
119, 0, 0, 946.2606811523438
120, 0, 0, 933.3206787109375
121, 0, 0, 934.8610229492188
122, 0, 0, 932.4088134765625
123, 0, 0, 927.3236083984375
124, 0, 0, 927.0611572265625
125, 0, 0, 919.6182250976562
126, 0, 0, 929.5839233398438
127, 0, 0, 912.646240234375
128, 0, 0, 909.1055908203125
129, 0, 0, 909.4883422851562
130, 0, 0, 904.7108764648438
131, 0, 0, 895.593505859375
132, 0, 0, 891.3362426757812
133, 0, 0, 901.9901123046875
134, 0, 0, 898.9978637695312
135, 0, 0, 895.4058227539062
136, 0, 0, 895.728515625
137, 0, 0, 891.7164916992188
138, 0, 0, 880.8148803710938
139, 0, 0, 880.7372436523438
140, 0, 0, 873.9685668945312
141, 0, 0, 880.7371215820312
142, 0, 0, 865.8682250976562
143, 0, 0, 864.2484741210938
144, 0, 0, 870.8375854492188
145, 0, 0, 868.9466552734375
146, 0, 0, 869.3928833007812
147, 0, 0, 860.138916015625
148, 0, 0, 860.1361083984375
149, 0, 0, 854.1810302734375
150, 0, 0, 853.9300537109375
151, 0, 0, 852.4677734375
152, 0, 0, 861.4073486328125
153, 0, 0, 853.2393188476562
154, 0, 0, 849.0516967773438
155, 0, 0, 842.6202392578125
156, 0, 0, 835.046875
157, 0, 0, 842.9168701171875
158, 0, 0, 844.1427001953125
159, 0, 0, 838.7855834960938
160, 0, 0, 842.4760131835938
161, 0, 0, 835.2998657226562
162, 0, 0, 836.9308471679688
163, 0, 0, 832.9447021484375
164, 0, 0, 833.1195678710938
