# TOPAS Version: 3.3.p1
# Parameter File: Test.txt
# Results for scorer MLIC_Scorer
# Scored in component: MLIC
# X in 180 bins of 0.177778 cm
# Y in 1 bin  of 10 cm
# Z in 1 bin  of 10 cm
# EnergyDeposit ( MeV ) : Sum   
0, 0, 0, 0
1, 0, 0, 0
2, 0, 0, 0
3, 0, 0, 0
4, 0, 0, 0
5, 0, 0, 0
6, 0, 0, 0
7, 0, 0, 0
8, 0, 0, 0
9, 0, 0, 0
10, 0, 0, 0
11, 0, 0, 0
12, 0, 0, 0
13, 0, 0, 0
14, 0, 0, 0
15, 0, 0, 0
16, 0, 0, 0
17, 0, 0, 0
18, 0, 0, 0
19, 0, 0, 0
20, 0, 0, 0
21, 0, 0, 0
22, 0, 0, 0
23, 0, 0, 0
24, 0, 0, 0
25, 0, 0, 0
26, 0, 0, 0
27, 0, 0, 0
28, 0, 0, 0
29, 0, 0, 0
30, 0, 0, 0
31, 0, 0, 0
32, 0, 0, 0
33, 0, 0, 0
34, 0, 0, 0
35, 0, 0, 0
36, 0, 0, 0
37, 0, 0, 0
38, 0, 0, 0
39, 0, 0, 0
40, 0, 0, 0
41, 0, 0, 0
42, 0, 0, 0
43, 0, 0, 0
44, 0, 0, 0
45, 0, 0, 0
46, 0, 0, 0
47, 0, 0, 0
48, 0, 0, 0
49, 0, 0, 0
50, 0, 0, 0
51, 0, 0, 0
52, 0, 0, 0
53, 0, 0, 0
54, 0, 0, 0
55, 0, 0, 0
56, 0, 0, 0
57, 0, 0, 0
58, 0, 0, 0
59, 0, 0, 0
60, 0, 0, 0
61, 0, 0, 0
62, 0, 0, 0
63, 0, 0, 0
64, 0, 0, 0
65, 0, 0, 0
66, 0, 0, 0
67, 0, 0, 0
68, 0, 0, 0
69, 0, 0, 0
70, 0, 0, 13.29807376861572
71, 0, 0, 57.32629013061523
72, 0, 0, 229.0903167724609
73, 0, 0, 737.408935546875
74, 0, 0, 1941.408447265625
75, 0, 0, 3092.49951171875
76, 0, 0, 4465.2451171875
77, 0, 0, 5121.982421875
78, 0, 0, 4799.49560546875
79, 0, 0, 4408.6435546875
80, 0, 0, 3885.774658203125
81, 0, 0, 3411.652099609375
82, 0, 0, 3110.1162109375
83, 0, 0, 2880.8818359375
84, 0, 0, 2700.979248046875
85, 0, 0, 2561.888427734375
86, 0, 0, 2430.445068359375
87, 0, 0, 2333.1728515625
88, 0, 0, 2247.59912109375
89, 0, 0, 2161.312744140625
90, 0, 0, 2100.044677734375
91, 0, 0, 2032.940063476562
92, 0, 0, 1975.483276367188
93, 0, 0, 1928.485961914062
94, 0, 0, 1874.649169921875
95, 0, 0, 1826.850219726562
96, 0, 0, 1795.875610351562
97, 0, 0, 1757.482177734375
98, 0, 0, 1717.323974609375
99, 0, 0, 1696.193237304688
100, 0, 0, 1661.826782226562
101, 0, 0, 1630.217651367188
102, 0, 0, 1600.906127929688
103, 0, 0, 1576.581176757812
104, 0, 0, 1553.475463867188
105, 0, 0, 1533.138793945312
106, 0, 0, 1507.734741210938
107, 0, 0, 1481.425537109375
108, 0, 0, 1458.717163085938
109, 0, 0, 1445.804321289062
110, 0, 0, 1434.932495117188
111, 0, 0, 1416.265869140625
112, 0, 0, 1388.865356445312
113, 0, 0, 1375.817016601562
114, 0, 0, 1352.8720703125
115, 0, 0, 1344.849243164062
116, 0, 0, 1335.572265625
117, 0, 0, 1322.30712890625
118, 0, 0, 1302.805297851562
119, 0, 0, 1289.031127929688
120, 0, 0, 1286.490966796875
121, 0, 0, 1271.073974609375
122, 0, 0, 1254.686157226562
123, 0, 0, 1245.910888671875
124, 0, 0, 1238.918334960938
125, 0, 0, 1222.731323242188
126, 0, 0, 1216.256225585938
127, 0, 0, 1199.085327148438
128, 0, 0, 1198.082397460938
129, 0, 0, 1192.46044921875
130, 0, 0, 1180.719116210938
131, 0, 0, 1171.721923828125
132, 0, 0, 1156.536499023438
133, 0, 0, 1146.92919921875
134, 0, 0, 1135.80419921875
135, 0, 0, 1139.25146484375
136, 0, 0, 1131.393188476562
137, 0, 0, 1116.156982421875
138, 0, 0, 1104.06494140625
139, 0, 0, 1108.548583984375
140, 0, 0, 1092.194213867188
141, 0, 0, 1091.587768554688
142, 0, 0, 1083.521484375
143, 0, 0, 1079.338134765625
144, 0, 0, 1067.247680664062
145, 0, 0, 1063.087158203125
146, 0, 0, 1062.363159179688
147, 0, 0, 1053.592651367188
148, 0, 0, 1052.496826171875
149, 0, 0, 1046.254516601562
150, 0, 0, 1032.075805664062
151, 0, 0, 1027.034790039062
152, 0, 0, 1027.226318359375
153, 0, 0, 1013.676513671875
154, 0, 0, 1017.6044921875
155, 0, 0, 1003.790832519531
156, 0, 0, 1003.084167480469
157, 0, 0, 1005.615539550781
158, 0, 0, 992.2308959960938
159, 0, 0, 981.014404296875
160, 0, 0, 983.0546875
161, 0, 0, 980.8812255859375
162, 0, 0, 973.6253051757812
163, 0, 0, 972.7852783203125
164, 0, 0, 964.4425048828125
165, 0, 0, 959.11962890625
166, 0, 0, 963.1359252929688
167, 0, 0, 954.6553344726562
168, 0, 0, 942.7562255859375
169, 0, 0, 952.2754516601562
170, 0, 0, 943.307861328125
171, 0, 0, 939.0399780273438
172, 0, 0, 937.75
173, 0, 0, 925.1072387695312
174, 0, 0, 928.457275390625
175, 0, 0, 920.7305297851562
176, 0, 0, 920.25341796875
177, 0, 0, 910.273193359375
178, 0, 0, 913.1412353515625
179, 0, 0, 907.5150756835938
