# TOPAS Version: 3.3.p1
# Parameter File: Test.txt
# Results for scorer MLIC_Scorer
# Scored in component: MLIC
# X in 180 bins of 0.183333 cm
# Y in 1 bin  of 10 cm
# Z in 1 bin  of 10 cm
# EnergyDeposit ( MeV ) : Sum   
0, 0, 0, 0
1, 0, 0, 0
2, 0, 0, 0
3, 0, 0, 0
4, 0, 0, 0
5, 0, 0, 0
6, 0, 0, 0
7, 0, 0, 0
8, 0, 0, 0
9, 0, 0, 0
10, 0, 0, 0
11, 0, 0, 0
12, 0, 0, 0
13, 0, 0, 0
14, 0, 0, 0
15, 0, 0, 0
16, 0, 0, 0
17, 0, 0, 0
18, 0, 0, 0
19, 0, 0, 0
20, 0, 0, 0
21, 0, 0, 0
22, 0, 0, 0
23, 0, 0, 0
24, 0, 0, 0
25, 0, 0, 0
26, 0, 0, 0
27, 0, 0, 0
28, 0, 0, 0
29, 0, 0, 0
30, 0, 0, 0
31, 0, 0, 0.01921669580042362
32, 0, 0, 8.155811309814453
33, 0, 0, 92.39434814453125
34, 0, 0, 342.7798767089844
35, 0, 0, 1071.291259765625
36, 0, 0, 2438.452880859375
37, 0, 0, 3985.453125
38, 0, 0, 5005.31884765625
39, 0, 0, 5247.30908203125
40, 0, 0, 4910.8427734375
41, 0, 0, 4175.3154296875
42, 0, 0, 3685.985595703125
43, 0, 0, 3291.036865234375
44, 0, 0, 3024.0634765625
45, 0, 0, 2826.226318359375
46, 0, 0, 2674.701171875
47, 0, 0, 2535.499267578125
48, 0, 0, 2411.932861328125
49, 0, 0, 2328.554443359375
50, 0, 0, 2241.752685546875
51, 0, 0, 2166.479736328125
52, 0, 0, 2098.6591796875
53, 0, 0, 2037.040893554688
54, 0, 0, 1983.807373046875
55, 0, 0, 1942.327270507812
56, 0, 0, 1898.552978515625
57, 0, 0, 1849.39404296875
58, 0, 0, 1814.299072265625
59, 0, 0, 1761.231079101562
60, 0, 0, 1734.717163085938
61, 0, 0, 1710.457763671875
62, 0, 0, 1674.519653320312
63, 0, 0, 1644.607543945312
64, 0, 0, 1613.654296875
65, 0, 0, 1593.091552734375
66, 0, 0, 1566.046508789062
67, 0, 0, 1543.121948242188
68, 0, 0, 1524.79931640625
69, 0, 0, 1504.291625976562
70, 0, 0, 1483.290893554688
71, 0, 0, 1469.593872070312
72, 0, 0, 1435.041870117188
73, 0, 0, 1432.74267578125
74, 0, 0, 1411.138061523438
75, 0, 0, 1404.434204101562
76, 0, 0, 1376.669189453125
77, 0, 0, 1362.498657226562
78, 0, 0, 1348.313598632812
79, 0, 0, 1340.9208984375
80, 0, 0, 1323.810302734375
81, 0, 0, 1310.985229492188
82, 0, 0, 1297.077514648438
83, 0, 0, 1285.164184570312
84, 0, 0, 1279.013793945312
85, 0, 0, 1266.152709960938
86, 0, 0, 1247.89111328125
87, 0, 0, 1246.959838867188
88, 0, 0, 1231.046997070312
89, 0, 0, 1217.097778320312
90, 0, 0, 1212.588745117188
91, 0, 0, 1198.377563476562
92, 0, 0, 1195.039428710938
93, 0, 0, 1178.0205078125
94, 0, 0, 1174.156127929688
95, 0, 0, 1175.410766601562
96, 0, 0, 1159.212524414062
97, 0, 0, 1155.6435546875
98, 0, 0, 1141.118408203125
99, 0, 0, 1140.449096679688
100, 0, 0, 1127.353271484375
101, 0, 0, 1117.411865234375
102, 0, 0, 1117.530151367188
103, 0, 0, 1110.213012695312
104, 0, 0, 1103.337158203125
105, 0, 0, 1093.1728515625
106, 0, 0, 1087.384155273438
107, 0, 0, 1074.64501953125
108, 0, 0, 1068.726928710938
109, 0, 0, 1071.197631835938
110, 0, 0, 1062.391235351562
111, 0, 0, 1060.572265625
112, 0, 0, 1055.149658203125
113, 0, 0, 1049.054443359375
114, 0, 0, 1050.244140625
115, 0, 0, 1035.6455078125
116, 0, 0, 1029.619140625
117, 0, 0, 1029.828369140625
118, 0, 0, 1020.590759277344
119, 0, 0, 1010.635192871094
120, 0, 0, 1011.919067382812
121, 0, 0, 1004.353576660156
122, 0, 0, 996.0573120117188
123, 0, 0, 999.30908203125
124, 0, 0, 987.0096435546875
125, 0, 0, 987.9699096679688
126, 0, 0, 983.8197021484375
127, 0, 0, 983.6285400390625
128, 0, 0, 985.1168212890625
129, 0, 0, 974.1143798828125
130, 0, 0, 968.9619140625
131, 0, 0, 953.3580322265625
132, 0, 0, 964.0502319335938
133, 0, 0, 949.076416015625
134, 0, 0, 951.2835083007812
135, 0, 0, 946.2738647460938
136, 0, 0, 946.64599609375
137, 0, 0, 937.2896118164062
138, 0, 0, 933.9345703125
139, 0, 0, 928.5905151367188
140, 0, 0, 933.1385498046875
141, 0, 0, 925.8480224609375
142, 0, 0, 928.821533203125
143, 0, 0, 913.8135986328125
144, 0, 0, 911.369140625
145, 0, 0, 917.5489501953125
146, 0, 0, 908.8863525390625
147, 0, 0, 905.6354370117188
148, 0, 0, 899.8235473632812
149, 0, 0, 897.8080444335938
150, 0, 0, 901.4185180664062
151, 0, 0, 889.4869995117188
152, 0, 0, 887.6489868164062
153, 0, 0, 895.4517211914062
154, 0, 0, 887.577880859375
155, 0, 0, 876.9850463867188
156, 0, 0, 872.0982055664062
157, 0, 0, 872.45068359375
158, 0, 0, 864.9961547851562
159, 0, 0, 871.3989868164062
160, 0, 0, 862.954833984375
161, 0, 0, 860.72265625
162, 0, 0, 868.7387084960938
163, 0, 0, 846.8740234375
164, 0, 0, 857.933349609375
165, 0, 0, 856.7822265625
166, 0, 0, 856.357666015625
167, 0, 0, 850.7083129882812
168, 0, 0, 844.3053588867188
169, 0, 0, 846.8314819335938
170, 0, 0, 840.059814453125
171, 0, 0, 833.24365234375
172, 0, 0, 831.890869140625
173, 0, 0, 840.6557006835938
174, 0, 0, 830.0663452148438
175, 0, 0, 821.0418090820312
176, 0, 0, 827.1475830078125
177, 0, 0, 826.7596435546875
178, 0, 0, 815.5355834960938
179, 0, 0, 827.9927978515625
