# TOPAS Version: 3.3.p1
# Parameter File: Test.txt
# Results for scorer MLIC_Scorer
# Scored in component: MLIC
# X in 180 bins of 0.177778 cm
# Y in 1 bin  of 10 cm
# Z in 1 bin  of 10 cm
# EnergyDeposit ( MeV ) : Sum   
0, 0, 0, 0
1, 0, 0, 0
2, 0, 0, 0
3, 0, 0, 0
4, 0, 0, 0
5, 0, 0, 0
6, 0, 0, 0
7, 0, 0, 0
8, 0, 0, 0
9, 0, 0, 0
10, 0, 0, 0
11, 0, 0, 0
12, 0, 0, 0
13, 0, 0, 0
14, 0, 0, 0
15, 0, 0, 0
16, 0, 0, 0
17, 0, 0, 0
18, 0, 0, 0
19, 0, 0, 0
20, 0, 0, 0
21, 0, 0, 0
22, 0, 0, 0
23, 0, 0, 0
24, 0, 0, 0
25, 0, 0, 0
26, 0, 0, 0
27, 0, 0, 0
28, 0, 0, 0
29, 0, 0, 0
30, 0, 0, 0
31, 0, 0, 0
32, 0, 0, 0
33, 0, 0, 0
34, 0, 0, 0
35, 0, 0, 0
36, 0, 0, 0
37, 0, 0, 0
38, 0, 0, 0
39, 0, 0, 0
40, 0, 0, 0
41, 0, 0, 0
42, 0, 0, 0
43, 0, 0, 0
44, 0, 0, 0
45, 0, 0, 0
46, 0, 0, 0
47, 0, 0, 0
48, 0, 0, 0
49, 0, 0, 0
50, 0, 0, 0
51, 0, 0, 0
52, 0, 0, 0
53, 0, 0, 0
54, 0, 0, 0
55, 0, 0, 0
56, 0, 0, 0
57, 0, 0, 0
58, 0, 0, 0
59, 0, 0, 0
60, 0, 0, 0
61, 0, 0, 0
62, 0, 0, 0
63, 0, 0, 0
64, 0, 0, 0
65, 0, 0, 0
66, 0, 0, 0
67, 0, 0, 0
68, 0, 0, 0
69, 0, 0, 0
70, 0, 0, 0
71, 0, 0, 5.756583213806152
72, 0, 0, 23.95284652709961
73, 0, 0, 36.11437606811523
74, 0, 0, 151.4099273681641
75, 0, 0, 290.5252075195312
76, 0, 0, 399.3938903808594
77, 0, 0, 464.2418518066406
78, 0, 0, 423.7101135253906
79, 0, 0, 364.7188415527344
80, 0, 0, 312.1404418945312
81, 0, 0, 287.3486022949219
82, 0, 0, 262.664306640625
83, 0, 0, 242.416259765625
84, 0, 0, 229.6040496826172
85, 0, 0, 216.8448333740234
86, 0, 0, 206.2631072998047
87, 0, 0, 197.8185119628906
88, 0, 0, 190.9992370605469
89, 0, 0, 184.6499633789062
90, 0, 0, 178.9582061767578
91, 0, 0, 173.9894104003906
92, 0, 0, 166.5445861816406
93, 0, 0, 162.9293060302734
94, 0, 0, 160.0892944335938
95, 0, 0, 154.3374328613281
96, 0, 0, 152.4039459228516
97, 0, 0, 148.4230346679688
98, 0, 0, 145.6044006347656
99, 0, 0, 141.4539337158203
100, 0, 0, 141.5851440429688
101, 0, 0, 137.4029693603516
102, 0, 0, 136.0406646728516
103, 0, 0, 134.3973083496094
104, 0, 0, 132.22216796875
105, 0, 0, 128.1248779296875
106, 0, 0, 127.9552841186523
107, 0, 0, 122.9090194702148
108, 0, 0, 124.6240844726562
109, 0, 0, 123.5453491210938
110, 0, 0, 122.8058624267578
111, 0, 0, 121.3304748535156
112, 0, 0, 118.665168762207
113, 0, 0, 119.5119018554688
114, 0, 0, 114.8259811401367
115, 0, 0, 114.7525024414062
116, 0, 0, 113.3539047241211
117, 0, 0, 111.6811141967773
118, 0, 0, 112.2589340209961
119, 0, 0, 110.7401962280273
120, 0, 0, 108.5418472290039
121, 0, 0, 107.0178756713867
122, 0, 0, 106.3511962890625
123, 0, 0, 106.0400238037109
124, 0, 0, 105.2645797729492
125, 0, 0, 104.2728424072266
126, 0, 0, 101.9583435058594
127, 0, 0, 103.0738525390625
128, 0, 0, 102.4776229858398
129, 0, 0, 101.2568969726562
130, 0, 0, 101.2717742919922
131, 0, 0, 98.54306030273438
132, 0, 0, 98.10847473144531
133, 0, 0, 98.03728485107422
134, 0, 0, 98.00932312011719
135, 0, 0, 95.89128112792969
136, 0, 0, 95.9459228515625
137, 0, 0, 96.32442474365234
138, 0, 0, 93.41026306152344
139, 0, 0, 91.13153076171875
140, 0, 0, 93.42209625244141
141, 0, 0, 93.13138580322266
142, 0, 0, 94.17339324951172
143, 0, 0, 91.69210815429688
144, 0, 0, 88.89487457275391
145, 0, 0, 91.94103240966797
146, 0, 0, 91.40451049804688
147, 0, 0, 87.71898651123047
148, 0, 0, 86.76487731933594
149, 0, 0, 89.369384765625
150, 0, 0, 88.76190948486328
151, 0, 0, 88.24136352539062
152, 0, 0, 86.2235107421875
153, 0, 0, 86.74820709228516
154, 0, 0, 85.03250885009766
155, 0, 0, 84.70112609863281
156, 0, 0, 83.94926452636719
157, 0, 0, 84.97800445556641
158, 0, 0, 83.96113586425781
159, 0, 0, 82.46108245849609
160, 0, 0, 84.23743438720703
161, 0, 0, 82.46694183349609
162, 0, 0, 83.7239990234375
163, 0, 0, 83.29879760742188
164, 0, 0, 80.66415405273438
165, 0, 0, 81.38406372070312
166, 0, 0, 79.66459655761719
167, 0, 0, 81.78585052490234
168, 0, 0, 78.26465606689453
169, 0, 0, 77.81773376464844
170, 0, 0, 79.42845153808594
171, 0, 0, 79.38455200195312
172, 0, 0, 80.78829193115234
173, 0, 0, 78.90341949462891
174, 0, 0, 76.74845123291016
175, 0, 0, 78.04254150390625
176, 0, 0, 77.41230010986328
177, 0, 0, 77.70846557617188
178, 0, 0, 78.81678009033203
179, 0, 0, 77.83259582519531
