# TOPAS Version: 3.3.p1
# Parameter File: Test.txt
# Results for scorer MLIC_Scorer
# Scored in component: MLIC
# X in 180 bins of 0.183333 cm
# Y in 1 bin  of 10 cm
# Z in 1 bin  of 10 cm
# EnergyDeposit ( MeV ) : Sum   
0, 0, 0, 0
1, 0, 0, 0
2, 0, 0, 0
3, 0, 0, 0
4, 0, 0, 0
5, 0, 0, 0
6, 0, 0, 0
7, 0, 0, 0
8, 0, 0, 0
9, 0, 0, 0
10, 0, 0, 0
11, 0, 0, 0
12, 0, 0, 0
13, 0, 0, 0
14, 0, 0, 0
15, 0, 0, 0
16, 0, 0, 0
17, 0, 0, 0
18, 0, 0, 0
19, 0, 0, 0
20, 0, 0, 0
21, 0, 0, 0
22, 0, 0, 0
23, 0, 0, 0
24, 0, 0, 0
25, 0, 0, 0
26, 0, 0, 0
27, 0, 0, 0
28, 0, 0, 0
29, 0, 0, 0
30, 0, 0, 0
31, 0, 0, 0
32, 0, 0, 0
33, 0, 0, 0
34, 0, 0, 0
35, 0, 0, 0
36, 0, 0, 0
37, 0, 0, 0
38, 0, 0, 0
39, 0, 0, 0
40, 0, 0, 0
41, 0, 0, 0
42, 0, 0, 0
43, 0, 0, 0
44, 0, 0, 0
45, 0, 0, 0
46, 0, 0, 0
47, 0, 0, 0
48, 0, 0, 0
49, 0, 0, 0
50, 0, 0, 0
51, 0, 0, 0
52, 0, 0, 0
53, 0, 0, 0
54, 0, 0, 0
55, 0, 0, 0
56, 0, 0, 0
57, 0, 0, 0
58, 0, 0, 0
59, 0, 0, 0
60, 0, 0, 0
61, 0, 0, 0
62, 0, 0, 0
63, 0, 0, 0
64, 0, 0, 0
65, 0, 0, 0
66, 0, 0, 0
67, 0, 0, 0
68, 0, 0, 0
69, 0, 0, 0
70, 0, 0, 0
71, 0, 0, 0
72, 0, 0, 0
73, 0, 0, 0
74, 0, 0, 0
75, 0, 0, 0
76, 0, 0, 0
77, 0, 0, 0
78, 0, 0, 0
79, 0, 0, 0
80, 0, 0, 0
81, 0, 0, 0
82, 0, 0, 0
83, 0, 0, 0
84, 0, 0, 0
85, 0, 0, 0
86, 0, 0, 0
87, 0, 0, 0
88, 0, 0, 0
89, 0, 0, 0
90, 0, 0, 0
91, 0, 0, 0
92, 0, 0, 0
93, 0, 0, 0
94, 0, 0, 0
95, 0, 0, 0
96, 0, 0, 0
97, 0, 0, 0
98, 0, 0, 0
99, 0, 0, 0
100, 0, 0, 0
101, 0, 0, 0
102, 0, 0, 0
103, 0, 0, 0
104, 0, 0, 0
105, 0, 0, 0
106, 0, 0, 0
107, 0, 0, 0.02387435734272003
108, 0, 0, 34.52190017700195
109, 0, 0, 240.3136901855469
110, 0, 0, 855.4605102539062
111, 0, 0, 2089.725830078125
112, 0, 0, 3419.96044921875
113, 0, 0, 4672.34326171875
114, 0, 0, 5255.29150390625
115, 0, 0, 5060.134765625
116, 0, 0, 4334.2724609375
117, 0, 0, 3822.580322265625
118, 0, 0, 3400.681884765625
119, 0, 0, 3113.937744140625
120, 0, 0, 2899.138671875
121, 0, 0, 2726.16943359375
122, 0, 0, 2583.398193359375
123, 0, 0, 2465.75634765625
124, 0, 0, 2366.966552734375
125, 0, 0, 2275.8701171875
126, 0, 0, 2186.221923828125
127, 0, 0, 2125.248779296875
128, 0, 0, 2063.91357421875
129, 0, 0, 2002.065063476562
130, 0, 0, 1952.50048828125
131, 0, 0, 1908.15673828125
132, 0, 0, 1854.944458007812
133, 0, 0, 1821.388305664062
134, 0, 0, 1782.228515625
135, 0, 0, 1747.369995117188
136, 0, 0, 1712.0791015625
137, 0, 0, 1681.578125
138, 0, 0, 1655.123657226562
139, 0, 0, 1628.55029296875
140, 0, 0, 1606.873046875
141, 0, 0, 1576.838745117188
142, 0, 0, 1549.387084960938
143, 0, 0, 1528.851196289062
144, 0, 0, 1501.480346679688
145, 0, 0, 1494.640869140625
146, 0, 0, 1466.726196289062
147, 0, 0, 1450.832641601562
148, 0, 0, 1434.610595703125
149, 0, 0, 1422.401977539062
150, 0, 0, 1406.411376953125
151, 0, 0, 1388.997680664062
152, 0, 0, 1364.305419921875
153, 0, 0, 1354.834106445312
154, 0, 0, 1339.000244140625
155, 0, 0, 1327.010131835938
156, 0, 0, 1317.16943359375
157, 0, 0, 1299.216796875
158, 0, 0, 1289.334716796875
159, 0, 0, 1274.447021484375
160, 0, 0, 1268.242553710938
161, 0, 0, 1252.783081054688
162, 0, 0, 1250.698608398438
163, 0, 0, 1244.302368164062
164, 0, 0, 1224.342529296875
165, 0, 0, 1215.417114257812
166, 0, 0, 1205.11376953125
167, 0, 0, 1195.415649414062
168, 0, 0, 1186.425170898438
169, 0, 0, 1187.769653320312
170, 0, 0, 1177.650268554688
171, 0, 0, 1159.869506835938
172, 0, 0, 1144.761840820312
173, 0, 0, 1146.695190429688
174, 0, 0, 1140.128295898438
175, 0, 0, 1129.375854492188
176, 0, 0, 1122.709106445312
177, 0, 0, 1111.591064453125
178, 0, 0, 1113.161010742188
179, 0, 0, 1106.478271484375
