# TOPAS Version: 3.3.p1
# Parameter File: Test.txt
# Results for scorer MLIC_Scorer
# Scored in component: MLIC
# X in 180 bins of 0.183333 cm
# Y in 1 bin  of 10 cm
# Z in 1 bin  of 10 cm
# EnergyDeposit ( MeV ) : Sum   
0, 0, 0, 0
1, 0, 0, 0
2, 0, 0, 0
3, 0, 0, 0
4, 0, 0, 0
5, 0, 0, 0
6, 0, 0, 0
7, 0, 0, 0
8, 0, 0, 0
9, 0, 0, 0
10, 0, 0, 0
11, 0, 0, 0
12, 0, 0, 0
13, 0, 0, 0
14, 0, 0, 0
15, 0, 0, 0
16, 0, 0, 0
17, 0, 0, 0
18, 0, 0, 0
19, 0, 0, 0
20, 0, 0, 0
21, 0, 0, 0
22, 0, 0, 0
23, 0, 0, 0
24, 0, 0, 0
25, 0, 0, 0
26, 0, 0, 16.53584098815918
27, 0, 0, 67.45095062255859
28, 0, 0, 259.4328002929688
29, 0, 0, 850.558837890625
30, 0, 0, 1839.836547851562
31, 0, 0, 3273.389892578125
32, 0, 0, 4742.1484375
33, 0, 0, 5285.33837890625
34, 0, 0, 4985.275390625
35, 0, 0, 4336.8994140625
36, 0, 0, 3900.070068359375
37, 0, 0, 3436.992919921875
38, 0, 0, 3134.66064453125
39, 0, 0, 2907.980224609375
40, 0, 0, 2730.03857421875
41, 0, 0, 2593.7607421875
42, 0, 0, 2470.990966796875
43, 0, 0, 2368.911865234375
44, 0, 0, 2271.96728515625
45, 0, 0, 2204.3203125
46, 0, 0, 2119.4931640625
47, 0, 0, 2068.208251953125
48, 0, 0, 2005.244140625
49, 0, 0, 1953.1123046875
50, 0, 0, 1906.06591796875
51, 0, 0, 1858.558227539062
52, 0, 0, 1814.696044921875
53, 0, 0, 1783.706665039062
54, 0, 0, 1750.305053710938
55, 0, 0, 1711.832641601562
56, 0, 0, 1691.56005859375
57, 0, 0, 1659.591918945312
58, 0, 0, 1627.920043945312
59, 0, 0, 1599.524536132812
60, 0, 0, 1576.93310546875
61, 0, 0, 1555.494018554688
62, 0, 0, 1529.765258789062
63, 0, 0, 1508.20166015625
64, 0, 0, 1493.96923828125
65, 0, 0, 1474.982666015625
66, 0, 0, 1457.86962890625
67, 0, 0, 1438.172729492188
68, 0, 0, 1426.663208007812
69, 0, 0, 1393.468994140625
70, 0, 0, 1387.670166015625
71, 0, 0, 1366.745483398438
72, 0, 0, 1352.313354492188
73, 0, 0, 1338.937255859375
74, 0, 0, 1327.518676757812
75, 0, 0, 1314.843505859375
76, 0, 0, 1303.41357421875
77, 0, 0, 1292.447265625
78, 0, 0, 1279.73828125
79, 0, 0, 1270.125854492188
80, 0, 0, 1256.138549804688
81, 0, 0, 1242.094116210938
82, 0, 0, 1241.346069335938
83, 0, 0, 1223.304321289062
84, 0, 0, 1222.523681640625
85, 0, 0, 1206.839599609375
86, 0, 0, 1194.114990234375
87, 0, 0, 1186.618041992188
88, 0, 0, 1177.396118164062
89, 0, 0, 1173.003295898438
90, 0, 0, 1162.78857421875
91, 0, 0, 1159.415161132812
92, 0, 0, 1139.070068359375
93, 0, 0, 1144.271362304688
94, 0, 0, 1131.603149414062
95, 0, 0, 1127.781005859375
96, 0, 0, 1128.085693359375
97, 0, 0, 1105.369018554688
98, 0, 0, 1110.66845703125
99, 0, 0, 1098.328979492188
100, 0, 0, 1097.01318359375
101, 0, 0, 1083.964111328125
102, 0, 0, 1076.88916015625
103, 0, 0, 1072.284057617188
104, 0, 0, 1067.364013671875
105, 0, 0, 1061.882446289062
106, 0, 0, 1050.607788085938
107, 0, 0, 1054.962768554688
108, 0, 0, 1049.892944335938
109, 0, 0, 1038.419311523438
110, 0, 0, 1031.703002929688
111, 0, 0, 1021.096801757812
112, 0, 0, 1023.673767089844
113, 0, 0, 1013.237915039062
114, 0, 0, 1009.970520019531
115, 0, 0, 1012.296325683594
116, 0, 0, 1000.796630859375
117, 0, 0, 991.6533203125
118, 0, 0, 989.3120727539062
119, 0, 0, 987.3373413085938
120, 0, 0, 982.2996826171875
121, 0, 0, 981.0914306640625
122, 0, 0, 974.962158203125
123, 0, 0, 968.9782104492188
124, 0, 0, 970.3038940429688
125, 0, 0, 961.77783203125
126, 0, 0, 961.7459106445312
127, 0, 0, 955.0445556640625
128, 0, 0, 959.2744140625
129, 0, 0, 947.8671875
130, 0, 0, 943.4088134765625
131, 0, 0, 937.4584350585938
132, 0, 0, 942.103271484375
133, 0, 0, 933.7913818359375
134, 0, 0, 927.7492065429688
135, 0, 0, 920.7023315429688
136, 0, 0, 926.8541870117188
137, 0, 0, 922.5698852539062
138, 0, 0, 909.5870971679688
139, 0, 0, 916.3330688476562
140, 0, 0, 903.632080078125
141, 0, 0, 900.6559448242188
142, 0, 0, 901.08251953125
143, 0, 0, 900.5224609375
144, 0, 0, 888.3472290039062
145, 0, 0, 887.7205810546875
146, 0, 0, 888.2687377929688
147, 0, 0, 884.6185302734375
148, 0, 0, 887.9323120117188
149, 0, 0, 877.3701171875
150, 0, 0, 873.9091796875
151, 0, 0, 868.2719116210938
152, 0, 0, 869.4769897460938
153, 0, 0, 868.267578125
154, 0, 0, 868.9678344726562
155, 0, 0, 856.6554565429688
156, 0, 0, 863.0953979492188
157, 0, 0, 855.7139892578125
158, 0, 0, 854.71044921875
159, 0, 0, 852.707763671875
160, 0, 0, 848.908203125
161, 0, 0, 849.081787109375
162, 0, 0, 841.3682250976562
163, 0, 0, 842.7161865234375
164, 0, 0, 841.81884765625
165, 0, 0, 834.2158203125
166, 0, 0, 842.8284912109375
167, 0, 0, 834.9033203125
168, 0, 0, 831.3005981445312
169, 0, 0, 830.7202758789062
170, 0, 0, 824.4606323242188
171, 0, 0, 820.4656372070312
172, 0, 0, 822.6435546875
173, 0, 0, 818.1184692382812
174, 0, 0, 816.3344116210938
175, 0, 0, 814.5284423828125
176, 0, 0, 812.7060546875
177, 0, 0, 819.716796875
178, 0, 0, 815.2516479492188
179, 0, 0, 804.2345581054688
