# TOPAS Version: 3.3.p1
# Parameter File: Test.txt
# Results for scorer MLIC_Scorer
# Scored in component: MLIC
# X in 180 bins of 0.177778 cm
# Y in 1 bin  of 10 cm
# Z in 1 bin  of 10 cm
# EnergyDeposit ( MeV ) : Sum   
0, 0, 0, 0
1, 0, 0, 0
2, 0, 0, 0
3, 0, 0, 0
4, 0, 0, 0
5, 0, 0, 0
6, 0, 0, 0
7, 0, 0, 0
8, 0, 0, 0
9, 0, 0, 0
10, 0, 0, 0
11, 0, 0, 0
12, 0, 0, 0
13, 0, 0, 0
14, 0, 0, 0
15, 0, 0, 0
16, 0, 0, 0
17, 0, 0, 0
18, 0, 0, 0
19, 0, 0, 0
20, 0, 0, 0
21, 0, 0, 0
22, 0, 0, 0
23, 0, 0, 0
24, 0, 0, 0
25, 0, 0, 0
26, 0, 0, 0
27, 0, 0, 0
28, 0, 0, 0
29, 0, 0, 0
30, 0, 0, 0
31, 0, 0, 0
32, 0, 0, 0
33, 0, 0, 0.00563176441937685
34, 0, 0, 0
35, 0, 0, 0
36, 0, 0, 0
37, 0, 0, 0
38, 0, 0, 0
39, 0, 0, 0
40, 0, 0, 0
41, 0, 0, 0
42, 0, 0, 0
43, 0, 0, 0
44, 0, 0, 0
45, 0, 0, 0
46, 0, 0, 0
47, 0, 0, 0
48, 0, 0, 0
49, 0, 0, 0
50, 0, 0, 0
51, 0, 0, 11.39212131500244
52, 0, 0, 5.914365768432617
53, 0, 0, 27.89114189147949
54, 0, 0, 138.4252624511719
55, 0, 0, 576.5037231445312
56, 0, 0, 1392.16162109375
57, 0, 0, 2555.577392578125
58, 0, 0, 3943.25146484375
59, 0, 0, 4720.44287109375
60, 0, 0, 4954.509765625
61, 0, 0, 4688.248046875
62, 0, 0, 4104.53466796875
63, 0, 0, 3579.7978515625
64, 0, 0, 3225.900146484375
65, 0, 0, 2968.7158203125
66, 0, 0, 2770.171630859375
67, 0, 0, 2607.444091796875
68, 0, 0, 2483.889404296875
69, 0, 0, 2376.4052734375
70, 0, 0, 2286.32470703125
71, 0, 0, 2199.29541015625
72, 0, 0, 2126.829345703125
73, 0, 0, 2062.35791015625
74, 0, 0, 2002.6748046875
75, 0, 0, 1950.66796875
76, 0, 0, 1898.57421875
77, 0, 0, 1845.192993164062
78, 0, 0, 1815.78564453125
79, 0, 0, 1768.64306640625
80, 0, 0, 1739.670532226562
81, 0, 0, 1691.885620117188
82, 0, 0, 1666.42236328125
83, 0, 0, 1651.206909179688
84, 0, 0, 1610.061889648438
85, 0, 0, 1586.77880859375
86, 0, 0, 1559.290771484375
87, 0, 0, 1536.649780273438
88, 0, 0, 1515.946411132812
89, 0, 0, 1495.084594726562
90, 0, 0, 1471.782836914062
91, 0, 0, 1456.5966796875
92, 0, 0, 1431.624755859375
93, 0, 0, 1421.417846679688
94, 0, 0, 1398.520141601562
95, 0, 0, 1383.175048828125
96, 0, 0, 1370.681030273438
97, 0, 0, 1354.248901367188
98, 0, 0, 1335.675048828125
99, 0, 0, 1326.586303710938
100, 0, 0, 1317.651489257812
101, 0, 0, 1297.94140625
102, 0, 0, 1284.596923828125
103, 0, 0, 1275.884033203125
104, 0, 0, 1258.300170898438
105, 0, 0, 1259.612670898438
106, 0, 0, 1240.369750976562
107, 0, 0, 1226.145141601562
108, 0, 0, 1216.764526367188
109, 0, 0, 1212.545654296875
110, 0, 0, 1203.39501953125
111, 0, 0, 1183.194091796875
112, 0, 0, 1177.291748046875
113, 0, 0, 1170.149047851562
114, 0, 0, 1160.552612304688
115, 0, 0, 1150.051025390625
116, 0, 0, 1142.796997070312
117, 0, 0, 1140.584594726562
118, 0, 0, 1133.430908203125
119, 0, 0, 1118.247314453125
120, 0, 0, 1109.641357421875
121, 0, 0, 1106.776489257812
122, 0, 0, 1107.887817382812
123, 0, 0, 1098.131469726562
124, 0, 0, 1088.010009765625
125, 0, 0, 1080.564697265625
126, 0, 0, 1079.5400390625
127, 0, 0, 1068.231567382812
128, 0, 0, 1067.73486328125
129, 0, 0, 1057.5361328125
130, 0, 0, 1049.651489257812
131, 0, 0, 1046.73681640625
132, 0, 0, 1035.92724609375
133, 0, 0, 1033.208129882812
134, 0, 0, 1030.284545898438
135, 0, 0, 1024.471069335938
136, 0, 0, 1018.558715820312
137, 0, 0, 1018.285217285156
138, 0, 0, 999.9542846679688
139, 0, 0, 1000.199890136719
140, 0, 0, 996.519775390625
141, 0, 0, 989.9114379882812
142, 0, 0, 989.9993286132812
143, 0, 0, 979.9584350585938
144, 0, 0, 972.1218872070312
145, 0, 0, 966.7217407226562
146, 0, 0, 963.6884155273438
147, 0, 0, 966.9481811523438
148, 0, 0, 953.3436279296875
149, 0, 0, 955.4400634765625
150, 0, 0, 956.8723754882812
151, 0, 0, 947.86962890625
152, 0, 0, 941.12451171875
153, 0, 0, 940.9749145507812
154, 0, 0, 937.3001098632812
155, 0, 0, 928.7437744140625
156, 0, 0, 925.6400146484375
157, 0, 0, 922.9216918945312
158, 0, 0, 914.8642578125
159, 0, 0, 913.0675048828125
160, 0, 0, 917.8321533203125
161, 0, 0, 909.0670776367188
162, 0, 0, 900.891357421875
163, 0, 0, 902.627685546875
164, 0, 0, 894.947021484375
165, 0, 0, 901.6907348632812
166, 0, 0, 892.6174926757812
167, 0, 0, 886.5573120117188
168, 0, 0, 893.4746704101562
169, 0, 0, 887.7876586914062
170, 0, 0, 882.0293579101562
171, 0, 0, 878.63623046875
172, 0, 0, 872.5646362304688
173, 0, 0, 871.0772705078125
174, 0, 0, 877.39453125
175, 0, 0, 865.3826293945312
176, 0, 0, 859.2108764648438
177, 0, 0, 858.7901000976562
178, 0, 0, 868.078125
179, 0, 0, 856.6375122070312
