# TOPAS Version: 3.3.p1
# Parameter File: Test.txt
# Results for scorer MLIC_Scorer
# Scored in component: MLIC
# X in 180 bins of 0.183333 cm
# Y in 1 bin  of 10 cm
# Z in 1 bin  of 10 cm
# EnergyDeposit ( MeV ) : Sum   
0, 0, 0, 0
1, 0, 0, 0
2, 0, 0, 0
3, 0, 0, 0
4, 0, 0, 0
5, 0, 0, 0
6, 0, 0, 0
7, 0, 0, 0
8, 0, 0, 0
9, 0, 0, 0
10, 0, 0, 0
11, 0, 0, 0
12, 0, 0, 0
13, 0, 0, 0
14, 0, 0, 0
15, 0, 0, 0
16, 0, 0, 0
17, 0, 0, 0
18, 0, 0, 0
19, 0, 0, 0
20, 0, 0, 0
21, 0, 0, 0
22, 0, 0, 0
23, 0, 0, 0
24, 0, 0, 0
25, 0, 0, 0
26, 0, 0, 0
27, 0, 0, 0
28, 0, 0, 0
29, 0, 0, 0
30, 0, 0, 0
31, 0, 0, 0
32, 0, 0, 0
33, 0, 0, 0
34, 0, 0, 0
35, 0, 0, 0
36, 0, 0, 0
37, 0, 0, 0
38, 0, 0, 0
39, 0, 0, 0
40, 0, 0, 0
41, 0, 0, 0
42, 0, 0, 0
43, 0, 0, 0
44, 0, 0, 0
45, 0, 0, 0
46, 0, 0, 0
47, 0, 0, 0
48, 0, 0, 0
49, 0, 0, 0
50, 0, 0, 0
51, 0, 0, 0
52, 0, 0, 0
53, 0, 0, 0
54, 0, 0, 0
55, 0, 0, 0
56, 0, 0, 0
57, 0, 0, 0
58, 0, 0, 0
59, 0, 0, 0
60, 0, 0, 0
61, 0, 0, 0
62, 0, 0, 0
63, 0, 0, 0
64, 0, 0, 0
65, 0, 0, 0
66, 0, 0, 0
67, 0, 0, 0
68, 0, 0, 0
69, 0, 0, 0
70, 0, 0, 0
71, 0, 0, 0
72, 0, 0, 0.04412266239523888
73, 0, 0, 0
74, 0, 0, 44.35437393188477
75, 0, 0, 240.0099334716797
76, 0, 0, 783.2354736328125
77, 0, 0, 1797.364990234375
78, 0, 0, 3432.4921875
79, 0, 0, 4554.8828125
80, 0, 0, 5229.3251953125
81, 0, 0, 5000.15966796875
82, 0, 0, 4460.20068359375
83, 0, 0, 3908.87109375
84, 0, 0, 3460.454345703125
85, 0, 0, 3131.029052734375
86, 0, 0, 2910.767822265625
87, 0, 0, 2736.082275390625
88, 0, 0, 2597.146728515625
89, 0, 0, 2463.803466796875
90, 0, 0, 2369.966796875
91, 0, 0, 2281.064453125
92, 0, 0, 2195.83349609375
93, 0, 0, 2130.764892578125
94, 0, 0, 2061.53662109375
95, 0, 0, 2010.663696289062
96, 0, 0, 1954.259643554688
97, 0, 0, 1907.922607421875
98, 0, 0, 1857.517211914062
99, 0, 0, 1821.173828125
100, 0, 0, 1787.771484375
101, 0, 0, 1751.23388671875
102, 0, 0, 1714.986206054688
103, 0, 0, 1687.908325195312
104, 0, 0, 1655.421142578125
105, 0, 0, 1636.163696289062
106, 0, 0, 1601.221313476562
107, 0, 0, 1572.640625
108, 0, 0, 1555.029052734375
109, 0, 0, 1534.756103515625
110, 0, 0, 1509.8994140625
111, 0, 0, 1494.895141601562
112, 0, 0, 1474.884399414062
113, 0, 0, 1452.395874023438
114, 0, 0, 1428.355346679688
115, 0, 0, 1409.588134765625
116, 0, 0, 1400.468383789062
117, 0, 0, 1386.026733398438
118, 0, 0, 1369.16552734375
119, 0, 0, 1359.3212890625
120, 0, 0, 1336.5712890625
121, 0, 0, 1329.700073242188
122, 0, 0, 1317.110717773438
123, 0, 0, 1309.874755859375
124, 0, 0, 1289.040893554688
125, 0, 0, 1279.284790039062
126, 0, 0, 1272.2568359375
127, 0, 0, 1257.84716796875
128, 0, 0, 1241.553833007812
129, 0, 0, 1236.103515625
130, 0, 0, 1229.8125
131, 0, 0, 1215.116577148438
132, 0, 0, 1208.966674804688
133, 0, 0, 1200.027099609375
134, 0, 0, 1190.590942382812
135, 0, 0, 1181.966430664062
136, 0, 0, 1169.747802734375
137, 0, 0, 1164.159545898438
138, 0, 0, 1156.26953125
139, 0, 0, 1145.506225585938
140, 0, 0, 1137.844604492188
141, 0, 0, 1129.062255859375
142, 0, 0, 1125.711669921875
143, 0, 0, 1118.276000976562
144, 0, 0, 1111.806274414062
145, 0, 0, 1106.207275390625
146, 0, 0, 1101.835083007812
147, 0, 0, 1081.182861328125
148, 0, 0, 1087.978149414062
149, 0, 0, 1076.88330078125
150, 0, 0, 1073.351806640625
151, 0, 0, 1071.830078125
152, 0, 0, 1051.987548828125
153, 0, 0, 1057.887939453125
154, 0, 0, 1053.914184570312
155, 0, 0, 1046.176025390625
156, 0, 0, 1038.207153320312
157, 0, 0, 1031.547241210938
158, 0, 0, 1027.398559570312
159, 0, 0, 1027.378173828125
160, 0, 0, 1022.343933105469
161, 0, 0, 1015.327392578125
162, 0, 0, 1005.333679199219
163, 0, 0, 1004.151672363281
164, 0, 0, 996.1762084960938
165, 0, 0, 997.6483764648438
166, 0, 0, 986.1068725585938
167, 0, 0, 986.5343627929688
168, 0, 0, 978.33349609375
169, 0, 0, 981.7565307617188
170, 0, 0, 977.4782104492188
171, 0, 0, 970.4634399414062
172, 0, 0, 971.203369140625
173, 0, 0, 957.327880859375
174, 0, 0, 956.8109741210938
175, 0, 0, 957.543701171875
176, 0, 0, 949.2505493164062
177, 0, 0, 939.2079467773438
178, 0, 0, 938.0274658203125
179, 0, 0, 940.4640502929688
