# TOPAS Version: 3.3.p1
# Parameter File: Test.txt
# Results for scorer MLIC_Scorer
# Scored in component: MLIC
# X in 180 bins of 0.183333 cm
# Y in 1 bin  of 10 cm
# Z in 1 bin  of 10 cm
# EnergyDeposit ( MeV ) : Sum   
0, 0, 0, 0.02547583170235157
1, 0, 0, 0
2, 0, 0, 0
3, 0, 0, 0
4, 0, 0, 0
5, 0, 0, 0
6, 0, 0, 0
7, 0, 0, 0
8, 0, 0, 0
9, 0, 0, 0
10, 0, 0, 0
11, 0, 0, 0
12, 0, 0, 0
13, 0, 0, 0
14, 0, 0, 0
15, 0, 0, 0
16, 0, 0, 0
17, 0, 0, 0
18, 0, 0, 0
19, 0, 0, 0
20, 0, 0, 0
21, 0, 0, 0
22, 0, 0, 0
23, 0, 0, 0.000752270978409797
24, 0, 0, 0
25, 0, 0, 0
26, 0, 0, 0
27, 0, 0, 0
28, 0, 0, 0
29, 0, 0, 0
30, 0, 0, 0.005390376318246126
31, 0, 0, 0.01153970044106245
32, 0, 0, 0
33, 0, 0, 0
34, 0, 0, 0
35, 0, 0, 0.0100879417732358
36, 0, 0, 0.006830679718405008
37, 0, 0, 0
38, 0, 0, 0
39, 0, 0, 0
40, 0, 0, 0
41, 0, 0, 0
42, 0, 0, 0
43, 0, 0, 0
44, 0, 0, 0
45, 0, 0, 0
46, 0, 0, 0
47, 0, 0, 0
48, 0, 0, 0
49, 0, 0, 0
50, 0, 0, 0
51, 0, 0, 0
52, 0, 0, 0
53, 0, 0, 0
54, 0, 0, 0
55, 0, 0, 0
56, 0, 0, 0
57, 0, 0, 0
58, 0, 0, 0
59, 0, 0, 0
60, 0, 0, 0
61, 0, 0, 0
62, 0, 0, 0
63, 0, 0, 0
64, 0, 0, 0
65, 0, 0, 0
66, 0, 0, 0
67, 0, 0, 0
68, 0, 0, 0
69, 0, 0, 0
70, 0, 0, 0
71, 0, 0, 0
72, 0, 0, 0
73, 0, 0, 0
74, 0, 0, 0
75, 0, 0, 0
76, 0, 0, 0
77, 0, 0, 0
78, 0, 0, 0
79, 0, 0, 0
80, 0, 0, 0
81, 0, 0, 0
82, 0, 0, 0.0322997085750103
83, 0, 0, 0.02544528618454933
84, 0, 0, 0
85, 0, 0, 0
86, 0, 0, 11.23823165893555
87, 0, 0, 20.70534324645996
88, 0, 0, 207.0621185302734
89, 0, 0, 655.6278686523438
90, 0, 0, 1687.32421875
91, 0, 0, 3137.304443359375
92, 0, 0, 4360.904296875
93, 0, 0, 5047.55859375
94, 0, 0, 5020.60595703125
95, 0, 0, 4607.4931640625
96, 0, 0, 3990.8798828125
97, 0, 0, 3522.031494140625
98, 0, 0, 3184.193115234375
99, 0, 0, 2944.958740234375
100, 0, 0, 2778.200439453125
101, 0, 0, 2621.982177734375
102, 0, 0, 2488.421630859375
103, 0, 0, 2385.600830078125
104, 0, 0, 2293.872314453125
105, 0, 0, 2221.5390625
106, 0, 0, 2146.19384765625
107, 0, 0, 2075.52490234375
108, 0, 0, 2019.940795898438
109, 0, 0, 1967.028564453125
110, 0, 0, 1913.7626953125
111, 0, 0, 1876.43701171875
112, 0, 0, 1822.1220703125
113, 0, 0, 1796.822387695312
114, 0, 0, 1757.693115234375
115, 0, 0, 1716.059326171875
116, 0, 0, 1696.351318359375
117, 0, 0, 1664.430786132812
118, 0, 0, 1627.569458007812
119, 0, 0, 1609.585083007812
120, 0, 0, 1587.271728515625
121, 0, 0, 1559.616333007812
122, 0, 0, 1539.511474609375
123, 0, 0, 1511.711303710938
124, 0, 0, 1487.911376953125
125, 0, 0, 1476.233520507812
126, 0, 0, 1464.37255859375
127, 0, 0, 1438.635620117188
128, 0, 0, 1424.137451171875
129, 0, 0, 1402.80908203125
130, 0, 0, 1385.515258789062
131, 0, 0, 1370.286987304688
132, 0, 0, 1356.967163085938
133, 0, 0, 1336.598754882812
134, 0, 0, 1335.86865234375
135, 0, 0, 1319.041137695312
136, 0, 0, 1310.07568359375
137, 0, 0, 1305.064819335938
138, 0, 0, 1284.115966796875
139, 0, 0, 1262.783081054688
140, 0, 0, 1263.270141601562
141, 0, 0, 1245.980224609375
142, 0, 0, 1241.919189453125
143, 0, 0, 1229.698364257812
144, 0, 0, 1221.362426757812
145, 0, 0, 1207.308227539062
146, 0, 0, 1202.4267578125
147, 0, 0, 1188.909912109375
148, 0, 0, 1177.98583984375
149, 0, 0, 1177.75244140625
150, 0, 0, 1170.966918945312
151, 0, 0, 1155.541137695312
152, 0, 0, 1151.88427734375
153, 0, 0, 1151.50732421875
154, 0, 0, 1134.569091796875
155, 0, 0, 1124.925903320312
156, 0, 0, 1121.7509765625
157, 0, 0, 1103.694091796875
158, 0, 0, 1099.538818359375
159, 0, 0, 1099.4970703125
160, 0, 0, 1091.791259765625
161, 0, 0, 1088.928588867188
162, 0, 0, 1070.359008789062
163, 0, 0, 1085.2001953125
164, 0, 0, 1070.57080078125
165, 0, 0, 1070.215942382812
166, 0, 0, 1058.146240234375
167, 0, 0, 1048.092407226562
168, 0, 0, 1044.341918945312
169, 0, 0, 1041.373901367188
170, 0, 0, 1031.503173828125
171, 0, 0, 1026.108154296875
172, 0, 0, 1027.346069335938
173, 0, 0, 1022.325012207031
174, 0, 0, 1011.365417480469
175, 0, 0, 1008.138671875
176, 0, 0, 1011.390563964844
177, 0, 0, 997.5449829101562
178, 0, 0, 993.1262817382812
179, 0, 0, 993.4036254882812
