# TOPAS Version: 3.3.p1
# Parameter File: Test.txt
# Results for scorer MLIC_Scorer
# Scored in component: MLIC
# X in 180 bins of 0.183333 cm
# Y in 1 bin  of 10 cm
# Z in 1 bin  of 10 cm
# EnergyDeposit ( MeV ) : Sum   
0, 0, 0, 0.002504300558939576
1, 0, 0, 0
2, 0, 0, 0
3, 0, 0, 0
4, 0, 0, 0
5, 0, 0, 0.01233822759240866
6, 0, 0, 0.003942959941923618
7, 0, 0, 0
8, 0, 0, 0
9, 0, 0, 0
10, 0, 0, 0
11, 0, 0, 0
12, 0, 0, 0
13, 0, 0, 0
14, 0, 0, 0
15, 0, 0, 0
16, 0, 0, 0
17, 0, 0, 0
18, 0, 0, 0
19, 0, 0, 0
20, 0, 0, 0
21, 0, 0, 0
22, 0, 0, 0
23, 0, 0, 0
24, 0, 0, 0
25, 0, 0, 0
26, 0, 0, 0
27, 0, 0, 0
28, 0, 0, 0
29, 0, 0, 0
30, 0, 0, 0
31, 0, 0, 0
32, 0, 0, 0
33, 0, 0, 0
34, 0, 0, 0
35, 0, 0, 0
36, 0, 0, 0
37, 0, 0, 0.03571924939751625
38, 0, 0, 0.0003326017467770725
39, 0, 0, 0
40, 0, 0, 0
41, 0, 0, 0
42, 0, 0, 0
43, 0, 0, 0
44, 0, 0, 0
45, 0, 0, 0
46, 0, 0, 0.03089101240038872
47, 0, 0, 0
48, 0, 0, 0
49, 0, 0, 0
50, 0, 0, 58.15170669555664
51, 0, 0, 228.8597869873047
52, 0, 0, 667.8453369140625
53, 0, 0, 1863.078369140625
54, 0, 0, 3575.435791015625
55, 0, 0, 4827.79150390625
56, 0, 0, 5327.5244140625
57, 0, 0, 5013.4677734375
58, 0, 0, 4325.01123046875
59, 0, 0, 3827.83056640625
60, 0, 0, 3437.00244140625
61, 0, 0, 3110.406982421875
62, 0, 0, 2894.81298828125
63, 0, 0, 2717.38720703125
64, 0, 0, 2584.281005859375
65, 0, 0, 2458.3115234375
66, 0, 0, 2362.008544921875
67, 0, 0, 2277.523193359375
68, 0, 0, 2187.06591796875
69, 0, 0, 2120.267333984375
70, 0, 0, 2070.445556640625
71, 0, 0, 2000.121215820312
72, 0, 0, 1949.568725585938
73, 0, 0, 1911.756713867188
74, 0, 0, 1866.763671875
75, 0, 0, 1816.074340820312
76, 0, 0, 1784.206298828125
77, 0, 0, 1750.44189453125
78, 0, 0, 1715.55419921875
79, 0, 0, 1686.159301757812
80, 0, 0, 1657.518798828125
81, 0, 0, 1615.2626953125
82, 0, 0, 1597.014038085938
83, 0, 0, 1575.140014648438
84, 0, 0, 1547.907348632812
85, 0, 0, 1526.482543945312
86, 0, 0, 1508.05419921875
87, 0, 0, 1488.477661132812
88, 0, 0, 1465.125732421875
89, 0, 0, 1445.246826171875
90, 0, 0, 1436.092895507812
91, 0, 0, 1420.141967773438
92, 0, 0, 1400.446166992188
93, 0, 0, 1383.4248046875
94, 0, 0, 1371.054565429688
95, 0, 0, 1357.1591796875
96, 0, 0, 1341.645263671875
97, 0, 0, 1318.750366210938
98, 0, 0, 1312.01123046875
99, 0, 0, 1310.05029296875
100, 0, 0, 1288.861206054688
101, 0, 0, 1282.235961914062
102, 0, 0, 1263.002807617188
103, 0, 0, 1251.64697265625
104, 0, 0, 1250.00634765625
105, 0, 0, 1226.194580078125
106, 0, 0, 1227.108276367188
107, 0, 0, 1217.16845703125
108, 0, 0, 1210.741088867188
109, 0, 0, 1197.088134765625
110, 0, 0, 1183.604370117188
111, 0, 0, 1178.406127929688
112, 0, 0, 1170.551025390625
113, 0, 0, 1164.248901367188
114, 0, 0, 1144.504272460938
115, 0, 0, 1132.89453125
116, 0, 0, 1134.958862304688
117, 0, 0, 1128.401489257812
118, 0, 0, 1126.606079101562
119, 0, 0, 1123.055297851562
120, 0, 0, 1109.424682617188
121, 0, 0, 1106.916381835938
122, 0, 0, 1092.794677734375
123, 0, 0, 1098.049560546875
124, 0, 0, 1084.974243164062
125, 0, 0, 1073.2568359375
126, 0, 0, 1067.557983398438
127, 0, 0, 1070.932495117188
128, 0, 0, 1057.837646484375
129, 0, 0, 1056.653442382812
130, 0, 0, 1050.500244140625
131, 0, 0, 1045.99951171875
132, 0, 0, 1034.219848632812
133, 0, 0, 1027.345092773438
134, 0, 0, 1020.263061523438
135, 0, 0, 1028.800170898438
136, 0, 0, 1018.312744140625
137, 0, 0, 1007.71630859375
138, 0, 0, 1001.744506835938
139, 0, 0, 1008.127685546875
140, 0, 0, 998.7965698242188
141, 0, 0, 988.7310180664062
142, 0, 0, 994.1785888671875
143, 0, 0, 990.5225830078125
144, 0, 0, 983.150146484375
145, 0, 0, 975.0982055664062
146, 0, 0, 967.729248046875
147, 0, 0, 966.0349731445312
148, 0, 0, 963.2896118164062
149, 0, 0, 959.9474487304688
150, 0, 0, 952.891357421875
151, 0, 0, 956.9530029296875
152, 0, 0, 946.785400390625
153, 0, 0, 946.1876831054688
154, 0, 0, 938.1343994140625
155, 0, 0, 934.4051513671875
156, 0, 0, 932.7198486328125
157, 0, 0, 928.8872680664062
158, 0, 0, 924.6204223632812
159, 0, 0, 929.0894165039062
160, 0, 0, 917.6011352539062
161, 0, 0, 917.3707275390625
162, 0, 0, 910.1790771484375
163, 0, 0, 912.094970703125
164, 0, 0, 899.1107177734375
165, 0, 0, 899.6254272460938
166, 0, 0, 898.1712036132812
167, 0, 0, 899.6066284179688
168, 0, 0, 894.5726928710938
169, 0, 0, 895.6282348632812
170, 0, 0, 887.0762329101562
171, 0, 0, 886.9281005859375
172, 0, 0, 884.4656982421875
173, 0, 0, 879.2332763671875
174, 0, 0, 877.8951416015625
175, 0, 0, 868.3683471679688
176, 0, 0, 869.7694702148438
177, 0, 0, 865.2068481445312
178, 0, 0, 868.8001708984375
179, 0, 0, 860.0894165039062
