# TOPAS Version: 3.3.p1
# Parameter File: Test.txt
# Results for scorer MLIC_Scorer
# Scored in component: MLIC
# X in 180 bins of 0.177778 cm
# Y in 1 bin  of 10 cm
# Z in 1 bin  of 10 cm
# EnergyDeposit ( MeV ) : Sum   
0, 0, 0, 0
1, 0, 0, 0
2, 0, 0, 0
3, 0, 0, 0
4, 0, 0, 0
5, 0, 0, 0
6, 0, 0, 0
7, 0, 0, 0
8, 0, 0, 0
9, 0, 0, 0
10, 0, 0, 0
11, 0, 0, 0
12, 0, 0, 0
13, 0, 0, 0
14, 0, 0, 0
15, 0, 0, 0
16, 0, 0, 0
17, 0, 0, 0
18, 0, 0, 0
19, 0, 0, 0
20, 0, 0, 0
21, 0, 0, 0
22, 0, 0, 0
23, 0, 0, 0
24, 0, 0, 0
25, 0, 0, 0
26, 0, 0, 0
27, 0, 0, 0
28, 0, 0, 0
29, 0, 0, 0
30, 0, 0, 0
31, 0, 0, 0
32, 0, 0, 0
33, 0, 0, 0
34, 0, 0, 0
35, 0, 0, 0
36, 0, 0, 0
37, 0, 0, 0
38, 0, 0, 0
39, 0, 0, 0
40, 0, 0, 0
41, 0, 0, 0
42, 0, 0, 0
43, 0, 0, 0
44, 0, 0, 0
45, 0, 0, 0
46, 0, 0, 0
47, 0, 0, 0
48, 0, 0, 0
49, 0, 0, 0
50, 0, 0, 0
51, 0, 0, 0
52, 0, 0, 0
53, 0, 0, 0
54, 0, 0, 0
55, 0, 0, 0
56, 0, 0, 0
57, 0, 0, 0
58, 0, 0, 0
59, 0, 0, 0
60, 0, 0, 0
61, 0, 0, 0
62, 0, 0, 0
63, 0, 0, 0
64, 0, 0, 0
65, 0, 0, 0
66, 0, 0, 0
67, 0, 0, 0
68, 0, 0, 0
69, 0, 0, 0
70, 0, 0, 0
71, 0, 0, 0
72, 0, 0, 0
73, 0, 0, 0
74, 0, 0, 0
75, 0, 0, 0
76, 0, 0, 0
77, 0, 0, 0
78, 0, 0, 0
79, 0, 0, 0
80, 0, 0, 0
81, 0, 0, 0
82, 0, 0, 0
83, 0, 0, 0
84, 0, 0, 0
85, 0, 0, 0
86, 0, 0, 0
87, 0, 0, 0
88, 0, 0, 0
89, 0, 0, 0
90, 0, 0, 0
91, 0, 0, 0
92, 0, 0, 0
93, 0, 0, 0
94, 0, 0, 0
95, 0, 0, 0
96, 0, 0, 0
97, 0, 0, 0
98, 0, 0, 0
99, 0, 0, 0
100, 0, 0, 0
101, 0, 0, 0
102, 0, 0, 0
103, 0, 0, 0
104, 0, 0, 0
105, 0, 0, 0.006024233065545559
106, 0, 0, 0
107, 0, 0, 0
108, 0, 0, 0
109, 0, 0, 0
110, 0, 0, 0
111, 0, 0, 0
112, 0, 0, 0
113, 0, 0, 0
114, 0, 0, 0
115, 0, 0, 0
116, 0, 0, 0
117, 0, 0, 0
118, 0, 0, 0
119, 0, 0, 0
120, 0, 0, 0
121, 0, 0, 0
122, 0, 0, 0
123, 0, 0, 4.923270225524902
124, 0, 0, 12.63142585754395
125, 0, 0, 38.58979415893555
126, 0, 0, 101.0416793823242
127, 0, 0, 230.1975860595703
128, 0, 0, 269.6589965820312
129, 0, 0, 350.1780700683594
130, 0, 0, 390.5942687988281
131, 0, 0, 398.2565002441406
132, 0, 0, 338.2683410644531
133, 0, 0, 293.0932312011719
134, 0, 0, 264.1025085449219
135, 0, 0, 237.1161499023438
136, 0, 0, 223.1691741943359
137, 0, 0, 212.6919555664062
138, 0, 0, 201.4726257324219
139, 0, 0, 190.5319671630859
140, 0, 0, 184.0698394775391
141, 0, 0, 175.8722534179688
142, 0, 0, 171.3090209960938
143, 0, 0, 166.3301391601562
144, 0, 0, 161.9664611816406
145, 0, 0, 155.8397369384766
146, 0, 0, 150.8411102294922
147, 0, 0, 149.5933990478516
148, 0, 0, 144.9664611816406
149, 0, 0, 141.4962768554688
150, 0, 0, 138.5738067626953
151, 0, 0, 137.7144470214844
152, 0, 0, 136.298583984375
153, 0, 0, 130.3777923583984
154, 0, 0, 131.5879364013672
155, 0, 0, 127.527229309082
156, 0, 0, 126.2218399047852
157, 0, 0, 123.130973815918
158, 0, 0, 122.7664642333984
159, 0, 0, 120.1478729248047
160, 0, 0, 117.8337783813477
161, 0, 0, 114.5538101196289
162, 0, 0, 113.8231735229492
163, 0, 0, 114.8020401000977
164, 0, 0, 115.1320495605469
165, 0, 0, 112.0052642822266
166, 0, 0, 111.5643463134766
167, 0, 0, 107.3947448730469
168, 0, 0, 108.1481857299805
169, 0, 0, 104.730598449707
170, 0, 0, 102.9982528686523
171, 0, 0, 102.7014541625977
172, 0, 0, 104.5655822753906
173, 0, 0, 103.7300491333008
174, 0, 0, 100.8368988037109
175, 0, 0, 100.6399536132812
176, 0, 0, 98.56886291503906
177, 0, 0, 97.47119903564453
178, 0, 0, 96.87450408935547
179, 0, 0, 97.35293579101562
