# TOPAS Version: 3.3.p1
# Parameter File: Test.txt
# Results for scorer MLIC_Scorer
# Scored in component: MLIC
# X in 180 bins of 0.183333 cm
# Y in 1 bin  of 10 cm
# Z in 1 bin  of 10 cm
# EnergyDeposit ( MeV ) : Sum   
0, 0, 0, 0
1, 0, 0, 0
2, 0, 0, 0
3, 0, 0, 0
4, 0, 0, 0
5, 0, 0, 0
6, 0, 0, 0
7, 0, 0, 0
8, 0, 0, 0
9, 0, 0, 0
10, 0, 0, 0
11, 0, 0, 0
12, 0, 0, 0
13, 0, 0, 0
14, 0, 0, 0
15, 0, 0, 0
16, 0, 0, 0
17, 0, 0, 0
18, 0, 0, 0
19, 0, 0, 0
20, 0, 0, 0
21, 0, 0, 0
22, 0, 0, 0
23, 0, 0, 0
24, 0, 0, 0
25, 0, 0, 0
26, 0, 0, 0
27, 0, 0, 0
28, 0, 0, 13.64284896850586
29, 0, 0, 177.5785064697266
30, 0, 0, 645.1796264648438
31, 0, 0, 1510.413940429688
32, 0, 0, 3079.151123046875
33, 0, 0, 4430.36572265625
34, 0, 0, 5055.3154296875
35, 0, 0, 5088.54296875
36, 0, 0, 4625.35107421875
37, 0, 0, 4010.374267578125
38, 0, 0, 3529.465087890625
39, 0, 0, 3190.922119140625
40, 0, 0, 2954.588623046875
41, 0, 0, 2776.739013671875
42, 0, 0, 2627.9716796875
43, 0, 0, 2494.379638671875
44, 0, 0, 2393.236328125
45, 0, 0, 2295.806884765625
46, 0, 0, 2214.12939453125
47, 0, 0, 2142.0341796875
48, 0, 0, 2078.172119140625
49, 0, 0, 2010.761352539062
50, 0, 0, 1971.581420898438
51, 0, 0, 1920.304321289062
52, 0, 0, 1873.137329101562
53, 0, 0, 1841.802612304688
54, 0, 0, 1793.512451171875
55, 0, 0, 1758.503540039062
56, 0, 0, 1721.577270507812
57, 0, 0, 1686.623779296875
58, 0, 0, 1664.886474609375
59, 0, 0, 1640.073120117188
60, 0, 0, 1605.931518554688
61, 0, 0, 1583.635498046875
62, 0, 0, 1563.773315429688
63, 0, 0, 1538.7529296875
64, 0, 0, 1513.51611328125
65, 0, 0, 1497.364868164062
66, 0, 0, 1472.69384765625
67, 0, 0, 1456.948852539062
68, 0, 0, 1432.962768554688
69, 0, 0, 1421.629272460938
70, 0, 0, 1409.76806640625
71, 0, 0, 1393.72314453125
72, 0, 0, 1377.605712890625
73, 0, 0, 1355.854370117188
74, 0, 0, 1346.165649414062
75, 0, 0, 1334.019287109375
76, 0, 0, 1325.20849609375
77, 0, 0, 1313.602783203125
78, 0, 0, 1304.56982421875
79, 0, 0, 1282.7001953125
80, 0, 0, 1273.33447265625
81, 0, 0, 1260.573852539062
82, 0, 0, 1247.727294921875
83, 0, 0, 1228.2666015625
84, 0, 0, 1222.790893554688
85, 0, 0, 1218.699340820312
86, 0, 0, 1207.256713867188
87, 0, 0, 1202.31787109375
88, 0, 0, 1196.148803710938
89, 0, 0, 1182.658935546875
90, 0, 0, 1169.965454101562
91, 0, 0, 1172.4501953125
92, 0, 0, 1157.410034179688
93, 0, 0, 1148.677001953125
94, 0, 0, 1145.050537109375
95, 0, 0, 1131.677612304688
96, 0, 0, 1130.61279296875
97, 0, 0, 1114.228881835938
98, 0, 0, 1115.307373046875
99, 0, 0, 1104.465209960938
100, 0, 0, 1093.028076171875
101, 0, 0, 1090.15771484375
102, 0, 0, 1081.042236328125
103, 0, 0, 1073.120849609375
104, 0, 0, 1073.670043945312
105, 0, 0, 1068.393310546875
106, 0, 0, 1059.529052734375
107, 0, 0, 1060.603637695312
108, 0, 0, 1057.124755859375
109, 0, 0, 1038.022094726562
110, 0, 0, 1041.493896484375
111, 0, 0, 1037.718383789062
112, 0, 0, 1028.23291015625
113, 0, 0, 1025.034912109375
114, 0, 0, 1021.984375
115, 0, 0, 1013.108276367188
116, 0, 0, 1010.658813476562
117, 0, 0, 1009.7529296875
118, 0, 0, 999.840087890625
119, 0, 0, 1001.565002441406
120, 0, 0, 990.5006103515625
121, 0, 0, 979.7731323242188
122, 0, 0, 980.4500732421875
123, 0, 0, 980.9856567382812
124, 0, 0, 973.4402465820312
125, 0, 0, 960.1599731445312
126, 0, 0, 956.9277954101562
127, 0, 0, 958.8633422851562
128, 0, 0, 952.5848388671875
129, 0, 0, 956.4273681640625
130, 0, 0, 952.8541870117188
131, 0, 0, 951.1558837890625
132, 0, 0, 938.0967407226562
133, 0, 0, 938.3639526367188
134, 0, 0, 925.7578125
135, 0, 0, 933.6056518554688
136, 0, 0, 920.6246948242188
137, 0, 0, 928.1278076171875
138, 0, 0, 918.4743041992188
139, 0, 0, 907.3562622070312
140, 0, 0, 908.4888916015625
141, 0, 0, 905.9738159179688
142, 0, 0, 901.3035888671875
143, 0, 0, 905.0182495117188
144, 0, 0, 900.0422973632812
145, 0, 0, 900.1739501953125
146, 0, 0, 900.23876953125
147, 0, 0, 897.6333618164062
148, 0, 0, 892.058837890625
149, 0, 0, 889.8760375976562
150, 0, 0, 885.9092407226562
151, 0, 0, 872.4381103515625
152, 0, 0, 874.9117431640625
153, 0, 0, 870.206298828125
154, 0, 0, 861.0784912109375
155, 0, 0, 874.7167358398438
156, 0, 0, 855.7809448242188
157, 0, 0, 867.043701171875
158, 0, 0, 862.23828125
159, 0, 0, 861.6456298828125
160, 0, 0, 852.842529296875
161, 0, 0, 851.1064453125
162, 0, 0, 850.21142578125
163, 0, 0, 850.6451416015625
164, 0, 0, 841.7532348632812
165, 0, 0, 835.8365478515625
166, 0, 0, 834.641845703125
167, 0, 0, 843.6340942382812
168, 0, 0, 834.1510620117188
169, 0, 0, 826.549560546875
170, 0, 0, 827.7445678710938
171, 0, 0, 825.8843994140625
172, 0, 0, 828.4299926757812
173, 0, 0, 823.02490234375
174, 0, 0, 828.0045166015625
175, 0, 0, 825.077880859375
176, 0, 0, 814.9510498046875
177, 0, 0, 815.8328857421875
178, 0, 0, 815.6465454101562
179, 0, 0, 813.53466796875
