# TOPAS Version: 3.3.p1
# Parameter File: Test.txt
# Results for scorer MLIC_Scorer
# Scored in component: MLIC
# X in 180 bins of 0.183333 cm
# Y in 1 bin  of 10 cm
# Z in 1 bin  of 10 cm
# EnergyDeposit ( MeV ) : Sum   
0, 0, 0, 0
1, 0, 0, 0
2, 0, 0, 0
3, 0, 0, 0
4, 0, 0, 0
5, 0, 0, 0
6, 0, 0, 0
7, 0, 0, 0
8, 0, 0, 0
9, 0, 0, 0
10, 0, 0, 0
11, 0, 0, 0
12, 0, 0, 0
13, 0, 0, 0
14, 0, 0, 0
15, 0, 0, 0
16, 0, 0, 0
17, 0, 0, 0
18, 0, 0, 0
19, 0, 0, 0
20, 0, 0, 0
21, 0, 0, 0.03156815469264984
22, 0, 0, 0
23, 0, 0, 0
24, 0, 0, 0
25, 0, 0, 0
26, 0, 0, 0
27, 0, 0, 0
28, 0, 0, 0
29, 0, 0, 0
30, 0, 0, 0
31, 0, 0, 0
32, 0, 0, 0
33, 0, 0, 0
34, 0, 0, 0
35, 0, 0, 0
36, 0, 0, 0
37, 0, 0, 0
38, 0, 0, 0
39, 0, 0, 0
40, 0, 0, 0
41, 0, 0, 0
42, 0, 0, 0
43, 0, 0, 0
44, 0, 0, 0.0155400363728404
45, 0, 0, 0
46, 0, 0, 0.0009081781608983874
47, 0, 0, 0
48, 0, 0, 0
49, 0, 0, 0
50, 0, 0, 0
51, 0, 0, 0.0006325291469693184
52, 0, 0, 0
53, 0, 0, 0
54, 0, 0, 0
55, 0, 0, 0
56, 0, 0, 0
57, 0, 0, 0
58, 0, 0, 0
59, 0, 0, 0
60, 0, 0, 0
61, 0, 0, 0
62, 0, 0, 0
63, 0, 0, 0
64, 0, 0, 0
65, 0, 0, 19.21515655517578
66, 0, 0, 172.8836975097656
67, 0, 0, 669.2536010742188
68, 0, 0, 1580.215942382812
69, 0, 0, 3252.6572265625
70, 0, 0, 4153.4013671875
71, 0, 0, 4996.94482421875
72, 0, 0, 5028.3330078125
73, 0, 0, 4614.18505859375
74, 0, 0, 3981.784423828125
75, 0, 0, 3544.3564453125
76, 0, 0, 3228.6640625
77, 0, 0, 2980.793212890625
78, 0, 0, 2782.954833984375
79, 0, 0, 2636.034423828125
80, 0, 0, 2504.183349609375
81, 0, 0, 2397.836181640625
82, 0, 0, 2298.56005859375
83, 0, 0, 2216.544189453125
84, 0, 0, 2146.913330078125
85, 0, 0, 2079.80419921875
86, 0, 0, 2021.1904296875
87, 0, 0, 1972.738891601562
88, 0, 0, 1919.74169921875
89, 0, 0, 1878.795532226562
90, 0, 0, 1837.854736328125
91, 0, 0, 1793.029663085938
92, 0, 0, 1763.100830078125
93, 0, 0, 1726.875366210938
94, 0, 0, 1687.635498046875
95, 0, 0, 1663.41064453125
96, 0, 0, 1632.329345703125
97, 0, 0, 1607.80126953125
98, 0, 0, 1588.1220703125
99, 0, 0, 1557.044189453125
100, 0, 0, 1541.293701171875
101, 0, 0, 1510.407958984375
102, 0, 0, 1498.473388671875
103, 0, 0, 1478.198852539062
104, 0, 0, 1464.363403320312
105, 0, 0, 1442.568725585938
106, 0, 0, 1419.836791992188
107, 0, 0, 1404.61474609375
108, 0, 0, 1385.141479492188
109, 0, 0, 1367.3779296875
110, 0, 0, 1363.015380859375
111, 0, 0, 1339.491455078125
112, 0, 0, 1341.67333984375
113, 0, 0, 1313.112060546875
114, 0, 0, 1313.45361328125
115, 0, 0, 1291.590698242188
116, 0, 0, 1286.739990234375
117, 0, 0, 1271.976928710938
118, 0, 0, 1261.694213867188
119, 0, 0, 1247.292358398438
120, 0, 0, 1242.98828125
121, 0, 0, 1223.931274414062
122, 0, 0, 1215.0126953125
123, 0, 0, 1214.158813476562
124, 0, 0, 1201.859741210938
125, 0, 0, 1191.641845703125
126, 0, 0, 1182.443969726562
127, 0, 0, 1173.055786132812
128, 0, 0, 1158.3095703125
129, 0, 0, 1157.385986328125
130, 0, 0, 1143.996948242188
131, 0, 0, 1142.380004882812
132, 0, 0, 1136.707153320312
133, 0, 0, 1131.322509765625
134, 0, 0, 1122.454223632812
135, 0, 0, 1108.728393554688
136, 0, 0, 1101.178588867188
137, 0, 0, 1097.068725585938
138, 0, 0, 1095.53125
139, 0, 0, 1081.373168945312
140, 0, 0, 1075.918212890625
141, 0, 0, 1076.83056640625
142, 0, 0, 1068.9287109375
143, 0, 0, 1056.126220703125
144, 0, 0, 1063.423706054688
145, 0, 0, 1051.44384765625
146, 0, 0, 1040.153076171875
147, 0, 0, 1043.708374023438
148, 0, 0, 1030.618408203125
149, 0, 0, 1030.610107421875
150, 0, 0, 1019.722412109375
151, 0, 0, 1011.2431640625
152, 0, 0, 1016.464416503906
153, 0, 0, 1016.186218261719
154, 0, 0, 1002.322448730469
155, 0, 0, 997.7478637695312
156, 0, 0, 991.6309814453125
157, 0, 0, 990.5260009765625
158, 0, 0, 984.8585205078125
159, 0, 0, 983.642333984375
160, 0, 0, 978.4859008789062
161, 0, 0, 968.841064453125
162, 0, 0, 972.8353881835938
163, 0, 0, 967.4270629882812
164, 0, 0, 953.0437622070312
165, 0, 0, 964.9728393554688
166, 0, 0, 953.184326171875
167, 0, 0, 946.6516723632812
168, 0, 0, 943.064453125
169, 0, 0, 937.885498046875
170, 0, 0, 927.5927734375
171, 0, 0, 941.1679077148438
172, 0, 0, 924.8642578125
173, 0, 0, 930.0029296875
174, 0, 0, 922.0765380859375
175, 0, 0, 919.16455078125
176, 0, 0, 913.1871337890625
177, 0, 0, 915.3759155273438
178, 0, 0, 909.6326904296875
179, 0, 0, 907.3499755859375
