# TOPAS Version: 3.3.p1
# Parameter File: Test.txt
# Results for scorer MLIC_Scorer
# Scored in component: MLIC
# X in 180 bins of 0.177778 cm
# Y in 1 bin  of 10 cm
# Z in 1 bin  of 10 cm
# EnergyDeposit ( MeV ) : Sum   
0, 0, 0, 0
1, 0, 0, 0
2, 0, 0, 0
3, 0, 0, 0
4, 0, 0, 0
5, 0, 0, 0
6, 0, 0, 0
7, 0, 0, 0
8, 0, 0, 0
9, 0, 0, 0
10, 0, 0, 0
11, 0, 0, 0
12, 0, 0, 0
13, 0, 0, 0
14, 0, 0, 0
15, 0, 0, 0
16, 0, 0, 0
17, 0, 0, 0
18, 0, 0, 0
19, 0, 0, 0
20, 0, 0, 0
21, 0, 0, 0
22, 0, 0, 0
23, 0, 0, 0
24, 0, 0, 0
25, 0, 0, 0
26, 0, 0, 0
27, 0, 0, 0
28, 0, 0, 0
29, 0, 0, 0
30, 0, 0, 0
31, 0, 0, 0
32, 0, 0, 0
33, 0, 0, 0
34, 0, 0, 0
35, 0, 0, 0
36, 0, 0, 0
37, 0, 0, 0
38, 0, 0, 0
39, 0, 0, 0
40, 0, 0, 0
41, 0, 0, 0
42, 0, 0, 0
43, 0, 0, 0
44, 0, 0, 0
45, 0, 0, 0
46, 0, 0, 0
47, 0, 0, 0
48, 0, 0, 0
49, 0, 0, 8.238654136657715
50, 0, 0, 37.3405876159668
51, 0, 0, 83.14995574951172
52, 0, 0, 152.9182891845703
53, 0, 0, 306.1509399414062
54, 0, 0, 397.3406677246094
55, 0, 0, 350.3091735839844
56, 0, 0, 323.6171875
57, 0, 0, 278.221923828125
58, 0, 0, 256.2901306152344
59, 0, 0, 226.1533660888672
60, 0, 0, 209.3033294677734
61, 0, 0, 196.4468383789062
62, 0, 0, 185.3441467285156
63, 0, 0, 176.0747985839844
64, 0, 0, 167.1677856445312
65, 0, 0, 160.0822143554688
66, 0, 0, 156.0039978027344
67, 0, 0, 151.0680236816406
68, 0, 0, 145.8478240966797
69, 0, 0, 139.9591827392578
70, 0, 0, 138.3619689941406
71, 0, 0, 133.70458984375
72, 0, 0, 133.4895782470703
73, 0, 0, 128.1164703369141
74, 0, 0, 125.9920043945312
75, 0, 0, 122.4671936035156
76, 0, 0, 121.1571197509766
77, 0, 0, 118.9904556274414
78, 0, 0, 116.166374206543
79, 0, 0, 113.4950332641602
80, 0, 0, 112.2696838378906
81, 0, 0, 110.4835205078125
82, 0, 0, 110.4797210693359
83, 0, 0, 107.9403762817383
84, 0, 0, 103.5421295166016
85, 0, 0, 104.3165130615234
86, 0, 0, 104.754768371582
87, 0, 0, 102.4992980957031
88, 0, 0, 98.12802886962891
89, 0, 0, 100.5050735473633
90, 0, 0, 100.3481826782227
91, 0, 0, 97.29533386230469
92, 0, 0, 95.85794067382812
93, 0, 0, 95.18389892578125
94, 0, 0, 93.15476989746094
95, 0, 0, 92.8311767578125
96, 0, 0, 91.06346130371094
97, 0, 0, 91.24515533447266
98, 0, 0, 91.73681640625
99, 0, 0, 92.31339263916016
100, 0, 0, 87.38131713867188
101, 0, 0, 87.96597290039062
102, 0, 0, 87.28608703613281
103, 0, 0, 87.18011474609375
104, 0, 0, 85.78693389892578
105, 0, 0, 83.6187744140625
106, 0, 0, 83.24057769775391
107, 0, 0, 85.08332824707031
108, 0, 0, 84.67014312744141
109, 0, 0, 84.19143676757812
110, 0, 0, 80.97046661376953
111, 0, 0, 79.86621856689453
112, 0, 0, 81.06697082519531
113, 0, 0, 80.97348785400391
114, 0, 0, 77.34247589111328
115, 0, 0, 80.44955444335938
116, 0, 0, 79.11837768554688
117, 0, 0, 78.65449523925781
118, 0, 0, 77.86775207519531
119, 0, 0, 76.17508697509766
120, 0, 0, 76.43045806884766
121, 0, 0, 74.64950561523438
122, 0, 0, 76.20503234863281
123, 0, 0, 75.9605712890625
124, 0, 0, 74.15999603271484
125, 0, 0, 73.51090240478516
126, 0, 0, 74.77698516845703
127, 0, 0, 73.50135040283203
128, 0, 0, 71.91914367675781
129, 0, 0, 72.23462677001953
130, 0, 0, 73.47116851806641
131, 0, 0, 72.39222717285156
132, 0, 0, 72.61652374267578
133, 0, 0, 69.69489288330078
134, 0, 0, 71.07063293457031
135, 0, 0, 70.23491668701172
136, 0, 0, 71.57431793212891
137, 0, 0, 70.66944122314453
138, 0, 0, 67.9403076171875
139, 0, 0, 68.40787506103516
140, 0, 0, 67.73577880859375
141, 0, 0, 69.97290802001953
142, 0, 0, 68.43233489990234
143, 0, 0, 69.21169281005859
144, 0, 0, 67.57814788818359
145, 0, 0, 66.79126739501953
146, 0, 0, 68.01638793945312
147, 0, 0, 68.32244110107422
148, 0, 0, 68.18133544921875
149, 0, 0, 66.64325714111328
150, 0, 0, 65.56217193603516
151, 0, 0, 68.25078582763672
152, 0, 0, 64.82904815673828
153, 0, 0, 65.18421173095703
154, 0, 0, 65.17638397216797
155, 0, 0, 66.20810699462891
156, 0, 0, 64.46334075927734
157, 0, 0, 64.91828918457031
158, 0, 0, 64.33712768554688
159, 0, 0, 63.82914352416992
160, 0, 0, 63.33097457885742
161, 0, 0, 62.53059387207031
162, 0, 0, 61.52732086181641
163, 0, 0, 61.6091423034668
164, 0, 0, 61.6317253112793
165, 0, 0, 62.38238525390625
166, 0, 0, 61.47381591796875
167, 0, 0, 61.46669387817383
168, 0, 0, 61.12063598632812
169, 0, 0, 61.10628128051758
170, 0, 0, 62.93064498901367
171, 0, 0, 64.01992034912109
172, 0, 0, 61.7277946472168
173, 0, 0, 62.33370971679688
174, 0, 0, 61.18058395385742
175, 0, 0, 60.17052841186523
176, 0, 0, 61.69677734375
177, 0, 0, 61.25705718994141
178, 0, 0, 59.93156814575195
179, 0, 0, 58.64800262451172
