# TOPAS Version: 3.3.p1
# Parameter File: Test.txt
# Results for scorer MLIC_Scorer
# Scored in component: MLIC
# X in 180 bins of 0.177778 cm
# Y in 1 bin  of 10 cm
# Z in 1 bin  of 10 cm
# EnergyDeposit ( MeV ) : Sum   
0, 0, 0, 0
1, 0, 0, 0
2, 0, 0, 0
3, 0, 0, 0
4, 0, 0, 0
5, 0, 0, 0
6, 0, 0, 0
7, 0, 0, 0
8, 0, 0, 0
9, 0, 0, 0
10, 0, 0, 0
11, 0, 0, 0
12, 0, 0, 0
13, 0, 0, 0
14, 0, 0, 0
15, 0, 0, 0.002023216569796205
16, 0, 0, 0
17, 0, 0, 0
18, 0, 0, 0
19, 0, 0, 0
20, 0, 0, 0
21, 0, 0, 0
22, 0, 0, 0
23, 0, 0, 0
24, 0, 0, 0
25, 0, 0, 0
26, 0, 0, 0.0309457927942276
27, 0, 0, 0
28, 0, 0, 0
29, 0, 0, 0
30, 0, 0, 0
31, 0, 0, 0
32, 0, 0, 0
33, 0, 0, 0
34, 0, 0, 0
35, 0, 0, 0
36, 0, 0, 0
37, 0, 0, 0
38, 0, 0, 0
39, 0, 0, 0.001645960845053196
40, 0, 0, 13.61093807220459
41, 0, 0, 60.6549186706543
42, 0, 0, 290.8233337402344
43, 0, 0, 832.6220092773438
44, 0, 0, 1941.330932617188
45, 0, 0, 3276.2666015625
46, 0, 0, 4683.0498046875
47, 0, 0, 5220.77734375
48, 0, 0, 4758.15771484375
49, 0, 0, 4300.77392578125
50, 0, 0, 3780.087158203125
51, 0, 0, 3385.555908203125
52, 0, 0, 3073.157470703125
53, 0, 0, 2849.88818359375
54, 0, 0, 2680.110107421875
55, 0, 0, 2537.789794921875
56, 0, 0, 2425.23779296875
57, 0, 0, 2333.79638671875
58, 0, 0, 2235.150634765625
59, 0, 0, 2154.914794921875
60, 0, 0, 2087.592529296875
61, 0, 0, 2029.60400390625
62, 0, 0, 1975.23779296875
63, 0, 0, 1917.759643554688
64, 0, 0, 1876.815307617188
65, 0, 0, 1825.506225585938
66, 0, 0, 1787.814208984375
67, 0, 0, 1745.626831054688
68, 0, 0, 1715.270385742188
69, 0, 0, 1681.361206054688
70, 0, 0, 1652.572875976562
71, 0, 0, 1625.33154296875
72, 0, 0, 1600.957397460938
73, 0, 0, 1574.303588867188
74, 0, 0, 1553.006469726562
75, 0, 0, 1527.619506835938
76, 0, 0, 1498.44384765625
77, 0, 0, 1482.638061523438
78, 0, 0, 1462.12548828125
79, 0, 0, 1452.421875
80, 0, 0, 1428.58984375
81, 0, 0, 1402.911376953125
82, 0, 0, 1393.797485351562
83, 0, 0, 1375.51904296875
84, 0, 0, 1357.750122070312
85, 0, 0, 1342.625366210938
86, 0, 0, 1330.603271484375
87, 0, 0, 1315.915649414062
88, 0, 0, 1302.880859375
89, 0, 0, 1290.455932617188
90, 0, 0, 1275.136474609375
91, 0, 0, 1266.457397460938
92, 0, 0, 1253.953491210938
93, 0, 0, 1245.700073242188
94, 0, 0, 1237.543212890625
95, 0, 0, 1213.06201171875
96, 0, 0, 1215.447387695312
97, 0, 0, 1208.712280273438
98, 0, 0, 1196.4736328125
99, 0, 0, 1183.000854492188
100, 0, 0, 1170.878540039062
101, 0, 0, 1166.496215820312
102, 0, 0, 1157.156005859375
103, 0, 0, 1154.48974609375
104, 0, 0, 1138.880493164062
105, 0, 0, 1136.123657226562
106, 0, 0, 1120.82275390625
107, 0, 0, 1117.04150390625
108, 0, 0, 1110.1650390625
109, 0, 0, 1108.555297851562
110, 0, 0, 1090.499267578125
111, 0, 0, 1087.573364257812
112, 0, 0, 1080.821411132812
113, 0, 0, 1077.973999023438
114, 0, 0, 1073.956787109375
115, 0, 0, 1064.3974609375
116, 0, 0, 1058.797119140625
117, 0, 0, 1060.4140625
118, 0, 0, 1038.447143554688
119, 0, 0, 1040.250854492188
120, 0, 0, 1035.721557617188
121, 0, 0, 1030.610717773438
122, 0, 0, 1029.477172851562
123, 0, 0, 1014.910888671875
124, 0, 0, 1008.464660644531
125, 0, 0, 1006.327941894531
126, 0, 0, 1006.389343261719
127, 0, 0, 995.7860107421875
128, 0, 0, 991.2186279296875
129, 0, 0, 993.7850952148438
130, 0, 0, 986.8135986328125
131, 0, 0, 975.2075805664062
132, 0, 0, 972.5669555664062
133, 0, 0, 967.6099853515625
134, 0, 0, 968.541015625
135, 0, 0, 954.2290649414062
136, 0, 0, 955.7089233398438
137, 0, 0, 946.877685546875
138, 0, 0, 949.3228759765625
139, 0, 0, 943.5318603515625
140, 0, 0, 947.3850708007812
141, 0, 0, 936.7579956054688
142, 0, 0, 939.2612915039062
143, 0, 0, 928.1978759765625
144, 0, 0, 930.8278198242188
145, 0, 0, 925.894775390625
146, 0, 0, 918.7308959960938
147, 0, 0, 915.2158813476562
148, 0, 0, 905.0608520507812
149, 0, 0, 906.3383178710938
150, 0, 0, 915.2262573242188
151, 0, 0, 910.9937133789062
152, 0, 0, 899.5250244140625
153, 0, 0, 894.5922241210938
154, 0, 0, 884.1011962890625
155, 0, 0, 890.091796875
156, 0, 0, 886.5379638671875
157, 0, 0, 882.2559204101562
158, 0, 0, 878.0166625976562
159, 0, 0, 878.5708618164062
160, 0, 0, 878.9204711914062
161, 0, 0, 863.6275634765625
162, 0, 0, 865.71728515625
163, 0, 0, 860.1110229492188
164, 0, 0, 863.4320678710938
165, 0, 0, 857.4381103515625
166, 0, 0, 853.274658203125
167, 0, 0, 845.39306640625
168, 0, 0, 844.9102172851562
169, 0, 0, 841.9855346679688
170, 0, 0, 848.1766967773438
171, 0, 0, 841.3511352539062
172, 0, 0, 845.0535888671875
173, 0, 0, 835.3270263671875
174, 0, 0, 839.329833984375
175, 0, 0, 842.9214477539062
176, 0, 0, 832.0842895507812
177, 0, 0, 833.5248413085938
178, 0, 0, 824.9954223632812
179, 0, 0, 819.724365234375
