# TOPAS Version: 3.3.p1
# Parameter File: Test.txt
# Results for scorer MLIC_Scorer
# Scored in component: MLIC
# X in 180 bins of 0.222222 cm
# Y in 1 bin  of 10 cm
# Z in 1 bin  of 10 cm
# EnergyDeposit ( MeV ) : Sum   
0, 0, 0, 0
1, 0, 0, 0
2, 0, 0, 0
3, 0, 0, 0
4, 0, 0, 0
5, 0, 0, 0
6, 0, 0, 0
7, 0, 0, 0
8, 0, 0, 0
9, 0, 0, 0
10, 0, 0, 0
11, 0, 0, 0
12, 0, 0, 0
13, 0, 0, 0
14, 0, 0, 0
15, 0, 0, 0
16, 0, 0, 0
17, 0, 0, 0
18, 0, 0, 0
19, 0, 0, 0
20, 0, 0, 0
21, 0, 0, 0
22, 0, 0, 0
23, 0, 0, 0
24, 0, 0, 0
25, 0, 0, 0
26, 0, 0, 0
27, 0, 0, 0
28, 0, 0, 0
29, 0, 0, 0
30, 0, 0, 0
31, 0, 0, 0
32, 0, 0, 0
33, 0, 0, 0
34, 0, 0, 0
35, 0, 0, 0
36, 0, 0, 0
37, 0, 0, 0
38, 0, 0, 0
39, 0, 0, 0
40, 0, 0, 0
41, 0, 0, 0
42, 0, 0, 0
43, 0, 0, 0
44, 0, 0, 0
45, 0, 0, 0
46, 0, 0, 0
47, 0, 0, 0
48, 0, 0, 0
49, 0, 0, 0
50, 0, 0, 0
51, 0, 0, 0
52, 0, 0, 0
53, 0, 0, 0
54, 0, 0, 0
55, 0, 0, 0
56, 0, 0, 0
57, 0, 0, 0
58, 0, 0, 0
59, 0, 0, 0
60, 0, 0, 0
61, 0, 0, 0
62, 0, 0, 0
63, 0, 0, 0
64, 0, 0, 0
65, 0, 0, 0
66, 0, 0, 0
67, 0, 0, 0
68, 0, 0, 0
69, 0, 0, 0
70, 0, 0, 0
71, 0, 0, 35.31849670410156
72, 0, 0, 160.5591125488281
73, 0, 0, 726.3787841796875
74, 0, 0, 2180.00830078125
75, 0, 0, 4463.92431640625
76, 0, 0, 5872.02099609375
77, 0, 0, 6139.169921875
78, 0, 0, 5558.8310546875
79, 0, 0, 4702.41162109375
80, 0, 0, 4092.288330078125
81, 0, 0, 3694.959228515625
82, 0, 0, 3389.626220703125
83, 0, 0, 3166.802734375
84, 0, 0, 2993.743408203125
85, 0, 0, 2838.96533203125
86, 0, 0, 2715
87, 0, 0, 2609.41796875
88, 0, 0, 2508.03076171875
89, 0, 0, 2427.28857421875
90, 0, 0, 2358.882568359375
91, 0, 0, 2285.36376953125
92, 0, 0, 2223.61279296875
93, 0, 0, 2166.97900390625
94, 0, 0, 2111.47998046875
95, 0, 0, 2061.748779296875
96, 0, 0, 2022.26171875
97, 0, 0, 1973.655639648438
98, 0, 0, 1931.853759765625
99, 0, 0, 1906.443359375
100, 0, 0, 1873.800903320312
101, 0, 0, 1831.142333984375
102, 0, 0, 1812.0302734375
103, 0, 0, 1786.86083984375
104, 0, 0, 1752.308349609375
105, 0, 0, 1737.600341796875
106, 0, 0, 1707.506469726562
107, 0, 0, 1677.140380859375
108, 0, 0, 1654.51220703125
109, 0, 0, 1639.489013671875
110, 0, 0, 1619.099731445312
111, 0, 0, 1603.4443359375
112, 0, 0, 1580.121459960938
113, 0, 0, 1556.19091796875
114, 0, 0, 1548.358642578125
115, 0, 0, 1528.903686523438
116, 0, 0, 1519.368041992188
117, 0, 0, 1495.97509765625
118, 0, 0, 1478.98681640625
119, 0, 0, 1465.847045898438
120, 0, 0, 1460.466918945312
121, 0, 0, 1444.607299804688
122, 0, 0, 1425.801635742188
123, 0, 0, 1421.788696289062
124, 0, 0, 1407.140258789062
125, 0, 0, 1398.471801757812
126, 0, 0, 1384.213012695312
127, 0, 0, 1366.470092773438
128, 0, 0, 1357.2353515625
129, 0, 0, 1349.781494140625
130, 0, 0, 1337.5673828125
131, 0, 0, 1330.33447265625
132, 0, 0, 1318.061279296875
133, 0, 0, 1318.935546875
134, 0, 0, 1298.915283203125
135, 0, 0, 1290.625
136, 0, 0, 1295.273071289062
137, 0, 0, 1272.998413085938
138, 0, 0, 1273.9912109375
139, 0, 0, 1263.072265625
140, 0, 0, 1259.61962890625
141, 0, 0, 1247.069702148438
142, 0, 0, 1241.24560546875
143, 0, 0, 1228.669799804688
144, 0, 0, 1225.275268554688
145, 0, 0, 1219.653076171875
146, 0, 0, 1207.140991210938
147, 0, 0, 1204.4052734375
148, 0, 0, 1197.858154296875
149, 0, 0, 1186.780151367188
150, 0, 0, 1185.585205078125
151, 0, 0, 1171.310302734375
152, 0, 0, 1165.581787109375
153, 0, 0, 1160.640014648438
154, 0, 0, 1157.177124023438
155, 0, 0, 1147.763793945312
156, 0, 0, 1149.508666992188
157, 0, 0, 1139.050903320312
158, 0, 0, 1136.150634765625
159, 0, 0, 1127.424926757812
160, 0, 0, 1126.998779296875
161, 0, 0, 1119.455200195312
162, 0, 0, 1111.704956054688
163, 0, 0, 1103.82177734375
164, 0, 0, 1106.307006835938
165, 0, 0, 1098.627807617188
166, 0, 0, 1091.290649414062
167, 0, 0, 1089.38330078125
168, 0, 0, 1082.881591796875
169, 0, 0, 1078.206909179688
170, 0, 0, 1084.153686523438
171, 0, 0, 1072.31298828125
172, 0, 0, 1068.295654296875
173, 0, 0, 1056.759521484375
174, 0, 0, 1064.113037109375
175, 0, 0, 1052.220947265625
176, 0, 0, 1059.221557617188
177, 0, 0, 1051.437744140625
178, 0, 0, 1050.47119140625
179, 0, 0, 1036.28955078125
