# TOPAS Version: 3.3.p1
# Parameter File: Test.txt
# Results for scorer MLIC_Scorer
# Scored in component: MLIC
# X in 180 bins of 0.222222 cm
# Y in 1 bin  of 10 cm
# Z in 1 bin  of 10 cm
# EnergyDeposit ( MeV ) : Sum   
0, 0, 0, 0
1, 0, 0, 0
2, 0, 0, 0
3, 0, 0, 0
4, 0, 0, 0
5, 0, 0, 0
6, 0, 0, 0
7, 0, 0, 0
8, 0, 0, 0
9, 0, 0, 0
10, 0, 0, 0
11, 0, 0, 0
12, 0, 0, 0
13, 0, 0, 0
14, 0, 0, 0
15, 0, 0, 0
16, 0, 0, 0
17, 0, 0, 0
18, 0, 0, 0
19, 0, 0, 0
20, 0, 0, 0
21, 0, 0, 0
22, 0, 0, 0
23, 0, 0, 0
24, 0, 0, 0
25, 0, 0, 0
26, 0, 0, 0
27, 0, 0, 0
28, 0, 0, 0
29, 0, 0, 0
30, 0, 0, 0
31, 0, 0, 0
32, 0, 0, 0
33, 0, 0, 0
34, 0, 0, 0
35, 0, 0, 0
36, 0, 0, 0
37, 0, 0, 0
38, 0, 0, 0
39, 0, 0, 0
40, 0, 0, 0
41, 0, 0, 0
42, 0, 0, 0
43, 0, 0, 0
44, 0, 0, 0
45, 0, 0, 0
46, 0, 0, 0
47, 0, 0, 0
48, 0, 0, 0
49, 0, 0, 0
50, 0, 0, 0
51, 0, 0, 0
52, 0, 0, 0
53, 0, 0, 0
54, 0, 0, 0
55, 0, 0, 0
56, 0, 0, 0
57, 0, 0, 0
58, 0, 0, 0
59, 0, 0, 0
60, 0, 0, 0
61, 0, 0, 0
62, 0, 0, 0
63, 0, 0, 0
64, 0, 0, 0
65, 0, 0, 0
66, 0, 0, 0
67, 0, 0, 0.004466665908694267
68, 0, 0, 0
69, 0, 0, 0
70, 0, 0, 0
71, 0, 0, 0
72, 0, 0, 0
73, 0, 0, 0
74, 0, 0, 0
75, 0, 0, 0
76, 0, 0, 0
77, 0, 0, 0.005716009065508842
78, 0, 0, 0
79, 0, 0, 0
80, 0, 0, 0
81, 0, 0, 0.03719453141093254
82, 0, 0, 0.006109562702476978
83, 0, 0, 0
84, 0, 0, 0
85, 0, 0, 0
86, 0, 0, 0
87, 0, 0, 0.001775641227141023
88, 0, 0, 0
89, 0, 0, 3.299222230911255
90, 0, 0, 129.0614013671875
91, 0, 0, 903.8612060546875
92, 0, 0, 2425.159423828125
93, 0, 0, 4323.93896484375
94, 0, 0, 6006.044921875
95, 0, 0, 6094.333984375
96, 0, 0, 5498.0302734375
97, 0, 0, 4660.79150390625
98, 0, 0, 4080.95703125
99, 0, 0, 3674.766845703125
100, 0, 0, 3371.760009765625
101, 0, 0, 3160.270751953125
102, 0, 0, 2977.95458984375
103, 0, 0, 2830.5458984375
104, 0, 0, 2711.249267578125
105, 0, 0, 2591.73193359375
106, 0, 0, 2506.481201171875
107, 0, 0, 2428.688232421875
108, 0, 0, 2340.5068359375
109, 0, 0, 2283.05810546875
110, 0, 0, 2216.194580078125
111, 0, 0, 2166.9111328125
112, 0, 0, 2108.755859375
113, 0, 0, 2064.830810546875
114, 0, 0, 2021.52587890625
115, 0, 0, 1979.1962890625
116, 0, 0, 1935.079956054688
117, 0, 0, 1900.384643554688
118, 0, 0, 1875.3154296875
119, 0, 0, 1839.947387695312
120, 0, 0, 1811.762573242188
121, 0, 0, 1770.76318359375
122, 0, 0, 1754.54638671875
123, 0, 0, 1729.423583984375
124, 0, 0, 1700.639404296875
125, 0, 0, 1677.847534179688
126, 0, 0, 1665.549682617188
127, 0, 0, 1640.445678710938
128, 0, 0, 1621.344482421875
129, 0, 0, 1603.532958984375
130, 0, 0, 1581.64404296875
131, 0, 0, 1563.884765625
132, 0, 0, 1536.427978515625
133, 0, 0, 1521.619506835938
134, 0, 0, 1502.377685546875
135, 0, 0, 1499.195922851562
136, 0, 0, 1481.821411132812
137, 0, 0, 1466.380737304688
138, 0, 0, 1457.0185546875
139, 0, 0, 1436.421020507812
140, 0, 0, 1428.034545898438
141, 0, 0, 1417.933715820312
142, 0, 0, 1393.28076171875
143, 0, 0, 1393.882202148438
144, 0, 0, 1385.965087890625
145, 0, 0, 1374.04638671875
146, 0, 0, 1359.324829101562
147, 0, 0, 1350.454956054688
148, 0, 0, 1347.023559570312
149, 0, 0, 1333.175659179688
150, 0, 0, 1314.274169921875
151, 0, 0, 1308.101806640625
152, 0, 0, 1302.941284179688
153, 0, 0, 1292.538330078125
154, 0, 0, 1283.509643554688
155, 0, 0, 1279.143798828125
156, 0, 0, 1268.181030273438
157, 0, 0, 1251.45361328125
158, 0, 0, 1254.742309570312
159, 0, 0, 1244.265625
160, 0, 0, 1238.583618164062
161, 0, 0, 1233.96630859375
162, 0, 0, 1220.712646484375
163, 0, 0, 1215.53271484375
164, 0, 0, 1203.482666015625
165, 0, 0, 1205.993896484375
166, 0, 0, 1196.827880859375
167, 0, 0, 1192.945190429688
168, 0, 0, 1174.966918945312
169, 0, 0, 1161.317626953125
170, 0, 0, 1171.429565429688
171, 0, 0, 1162.063354492188
172, 0, 0, 1158.315063476562
173, 0, 0, 1160.487548828125
174, 0, 0, 1145.520629882812
175, 0, 0, 1132.421508789062
176, 0, 0, 1132.289794921875
177, 0, 0, 1130.942626953125
178, 0, 0, 1127.832153320312
179, 0, 0, 1105.33740234375
