# TOPAS Version: 3.3.p1
# Parameter File: Test.txt
# Results for scorer MLIC_Scorer
# Scored in component: MLIC
# X in 180 bins of 0.183333 cm
# Y in 1 bin  of 10 cm
# Z in 1 bin  of 10 cm
# EnergyDeposit ( MeV ) : Sum   
0, 0, 0, 0
1, 0, 0, 0
2, 0, 0, 0
3, 0, 0, 0
4, 0, 0, 0
5, 0, 0, 0
6, 0, 0, 0
7, 0, 0, 0
8, 0, 0, 0
9, 0, 0, 0
10, 0, 0, 0
11, 0, 0, 0
12, 0, 0, 0
13, 0, 0, 0
14, 0, 0, 0
15, 0, 0, 2.8417067527771
16, 0, 0, 36.95794677734375
17, 0, 0, 175.0873260498047
18, 0, 0, 629.1458129882812
19, 0, 0, 1710.275024414062
20, 0, 0, 3163.85986328125
21, 0, 0, 4550.994140625
22, 0, 0, 5183.47412109375
23, 0, 0, 5010.35009765625
24, 0, 0, 4476.47216796875
25, 0, 0, 3955.883544921875
26, 0, 0, 3501.15673828125
27, 0, 0, 3182.039794921875
28, 0, 0, 2945.80712890625
29, 0, 0, 2759.826904296875
30, 0, 0, 2620.40478515625
31, 0, 0, 2500.70556640625
32, 0, 0, 2387.40869140625
33, 0, 0, 2296.74658203125
34, 0, 0, 2204.56591796875
35, 0, 0, 2136.584716796875
36, 0, 0, 2072.018310546875
37, 0, 0, 2018.57421875
38, 0, 0, 1965.73486328125
39, 0, 0, 1909.9228515625
40, 0, 0, 1867.566772460938
41, 0, 0, 1821.922973632812
42, 0, 0, 1796.286743164062
43, 0, 0, 1757.560668945312
44, 0, 0, 1712.291625976562
45, 0, 0, 1687.332153320312
46, 0, 0, 1664.065063476562
47, 0, 0, 1636.113891601562
48, 0, 0, 1602.088623046875
49, 0, 0, 1585.291381835938
50, 0, 0, 1554.556274414062
51, 0, 0, 1534.96533203125
52, 0, 0, 1517.81640625
53, 0, 0, 1492.657958984375
54, 0, 0, 1473.890014648438
55, 0, 0, 1455.775634765625
56, 0, 0, 1435.343383789062
57, 0, 0, 1428.242309570312
58, 0, 0, 1407.901489257812
59, 0, 0, 1389.121948242188
60, 0, 0, 1379.347778320312
61, 0, 0, 1368.723999023438
62, 0, 0, 1341.055541992188
63, 0, 0, 1337.174682617188
64, 0, 0, 1321.556884765625
65, 0, 0, 1313.092895507812
66, 0, 0, 1296.590087890625
67, 0, 0, 1279.235229492188
68, 0, 0, 1263.826904296875
69, 0, 0, 1255.89892578125
70, 0, 0, 1246.158203125
71, 0, 0, 1236.404541015625
72, 0, 0, 1226.607543945312
73, 0, 0, 1216.46923828125
74, 0, 0, 1214.466674804688
75, 0, 0, 1192.218505859375
76, 0, 0, 1187.695434570312
77, 0, 0, 1175.706176757812
78, 0, 0, 1165.97998046875
79, 0, 0, 1165.157104492188
80, 0, 0, 1160.0830078125
81, 0, 0, 1143.799438476562
82, 0, 0, 1144.4169921875
83, 0, 0, 1135.241333007812
84, 0, 0, 1123.786987304688
85, 0, 0, 1114.550170898438
86, 0, 0, 1100.826293945312
87, 0, 0, 1110.283935546875
88, 0, 0, 1098.682983398438
89, 0, 0, 1089.835815429688
90, 0, 0, 1086.613891601562
91, 0, 0, 1082.657470703125
92, 0, 0, 1077.397094726562
93, 0, 0, 1063.060791015625
94, 0, 0, 1062.128540039062
95, 0, 0, 1055.379150390625
96, 0, 0, 1058.191040039062
97, 0, 0, 1051.133056640625
98, 0, 0, 1031.852294921875
99, 0, 0, 1032.732543945312
100, 0, 0, 1019.363891601562
101, 0, 0, 1025.755737304688
102, 0, 0, 1010.090454101562
103, 0, 0, 1010.541564941406
104, 0, 0, 1013.146850585938
105, 0, 0, 1001.979614257812
106, 0, 0, 1006.872009277344
107, 0, 0, 993.12255859375
108, 0, 0, 997.5867309570312
109, 0, 0, 975.7033081054688
110, 0, 0, 980.3775024414062
111, 0, 0, 984.0108032226562
112, 0, 0, 966.470947265625
113, 0, 0, 970.238037109375
114, 0, 0, 962.7477416992188
115, 0, 0, 955.529541015625
116, 0, 0, 956.8411865234375
117, 0, 0, 951.5201416015625
118, 0, 0, 947.3936157226562
119, 0, 0, 940.8572998046875
120, 0, 0, 940.6983032226562
121, 0, 0, 926.36474609375
122, 0, 0, 925.76953125
123, 0, 0, 931.2012939453125
124, 0, 0, 920.1815185546875
125, 0, 0, 918.632568359375
126, 0, 0, 920.1895141601562
127, 0, 0, 912.8676147460938
128, 0, 0, 914.95458984375
129, 0, 0, 909.40673828125
130, 0, 0, 916.6522216796875
131, 0, 0, 901.4603881835938
132, 0, 0, 895.466796875
133, 0, 0, 898.1754150390625
134, 0, 0, 891.2023315429688
135, 0, 0, 889.9821166992188
136, 0, 0, 885.7461547851562
137, 0, 0, 886.153564453125
138, 0, 0, 882.710693359375
139, 0, 0, 874.031494140625
140, 0, 0, 872.8785400390625
141, 0, 0, 878.7059326171875
142, 0, 0, 866.0731811523438
143, 0, 0, 866.8668823242188
144, 0, 0, 861.5501708984375
145, 0, 0, 865.0491333007812
146, 0, 0, 856.9789428710938
147, 0, 0, 859.266845703125
148, 0, 0, 857.575439453125
149, 0, 0, 854.9594116210938
150, 0, 0, 849.4796752929688
151, 0, 0, 849.4036254882812
152, 0, 0, 844.364990234375
153, 0, 0, 844.7208251953125
154, 0, 0, 835.0769653320312
155, 0, 0, 842.0006103515625
156, 0, 0, 837.1941528320312
157, 0, 0, 827.6625366210938
158, 0, 0, 839.223388671875
159, 0, 0, 825.41748046875
160, 0, 0, 826.9490356445312
161, 0, 0, 825.5095825195312
162, 0, 0, 814.790771484375
163, 0, 0, 816.466064453125
164, 0, 0, 823.0241088867188
165, 0, 0, 818.4887084960938
166, 0, 0, 817.9442138671875
167, 0, 0, 810.2332153320312
168, 0, 0, 808.6627197265625
169, 0, 0, 808.4801025390625
170, 0, 0, 803.5409545898438
171, 0, 0, 799.4296264648438
172, 0, 0, 801.9948120117188
173, 0, 0, 796.30419921875
174, 0, 0, 798.75439453125
175, 0, 0, 795.5054931640625
176, 0, 0, 795.5567626953125
177, 0, 0, 784.9365844726562
178, 0, 0, 789.1141357421875
179, 0, 0, 791.2692260742188
