# TOPAS Version: 3.3.p1
# Parameter File: Test.txt
# Results for scorer MLIC_Scorer
# Scored in component: MLIC
# X in 180 bins of 0.177778 cm
# Y in 1 bin  of 10 cm
# Z in 1 bin  of 10 cm
# EnergyDeposit ( MeV ) : Sum   
0, 0, 0, 0
1, 0, 0, 0
2, 0, 0, 0
3, 0, 0, 0
4, 0, 0, 0
5, 0, 0, 0
6, 0, 0, 0
7, 0, 0, 0
8, 0, 0, 0
9, 0, 0, 0
10, 0, 0, 0
11, 0, 0, 0
12, 0, 0, 0
13, 0, 0, 0
14, 0, 0, 0
15, 0, 0, 0
16, 0, 0, 0
17, 0, 0, 0
18, 0, 0, 0
19, 0, 0, 0
20, 0, 0, 0
21, 0, 0, 0
22, 0, 0, 0
23, 0, 0, 0
24, 0, 0, 0
25, 0, 0, 0.001959936926141381
26, 0, 0, 0
27, 0, 0, 0
28, 0, 0, 0
29, 0, 0, 0
30, 0, 0, 0
31, 0, 0, 0
32, 0, 0, 0
33, 0, 0, 0
34, 0, 0, 0
35, 0, 0, 0
36, 0, 0, 0
37, 0, 0, 0
38, 0, 0, 0
39, 0, 0, 0
40, 0, 0, 0
41, 0, 0, 0
42, 0, 0, 0
43, 0, 0, 0
44, 0, 0, 0
45, 0, 0, 0
46, 0, 0, 0
47, 0, 0, 0
48, 0, 0, 0
49, 0, 0, 0
50, 0, 0, 0
51, 0, 0, 0
52, 0, 0, 0
53, 0, 0, 0
54, 0, 0, 0
55, 0, 0, 0
56, 0, 0, 0
57, 0, 0, 0
58, 0, 0, 0
59, 0, 0, 0
60, 0, 0, 0
61, 0, 0, 0
62, 0, 0, 0
63, 0, 0, 0.001436279038898647
64, 0, 0, 0
65, 0, 0, 0
66, 0, 0, 0
67, 0, 0, 0
68, 0, 0, 0
69, 0, 0, 19.26864624023438
70, 0, 0, 112.066764831543
71, 0, 0, 419.8614807128906
72, 0, 0, 1073.070434570312
73, 0, 0, 2149.972412109375
74, 0, 0, 3753.00537109375
75, 0, 0, 4564.74560546875
76, 0, 0, 5123.97412109375
77, 0, 0, 4890.69140625
78, 0, 0, 4195.68359375
79, 0, 0, 3678.623291015625
80, 0, 0, 3287.563720703125
81, 0, 0, 3014.656494140625
82, 0, 0, 2811.201904296875
83, 0, 0, 2641.489013671875
84, 0, 0, 2513.73388671875
85, 0, 0, 2396.162353515625
86, 0, 0, 2305.548095703125
87, 0, 0, 2221.205078125
88, 0, 0, 2139.625732421875
89, 0, 0, 2069.443359375
90, 0, 0, 2016.158203125
91, 0, 0, 1950.392578125
92, 0, 0, 1908.172607421875
93, 0, 0, 1868.756469726562
94, 0, 0, 1813.249145507812
95, 0, 0, 1783.2421875
96, 0, 0, 1741.84765625
97, 0, 0, 1711.153442382812
98, 0, 0, 1675.973388671875
99, 0, 0, 1657.087280273438
100, 0, 0, 1616.979248046875
101, 0, 0, 1591.19140625
102, 0, 0, 1577.14501953125
103, 0, 0, 1541.782958984375
104, 0, 0, 1517.001831054688
105, 0, 0, 1507.777954101562
106, 0, 0, 1487.472412109375
107, 0, 0, 1453.012084960938
108, 0, 0, 1436.530029296875
109, 0, 0, 1423.453735351562
110, 0, 0, 1405.486206054688
111, 0, 0, 1385.989135742188
112, 0, 0, 1376.12451171875
113, 0, 0, 1353.1494140625
114, 0, 0, 1350.501586914062
115, 0, 0, 1329.285522460938
116, 0, 0, 1314.849975585938
117, 0, 0, 1302.468994140625
118, 0, 0, 1295.904663085938
119, 0, 0, 1273.908569335938
120, 0, 0, 1263.623291015625
121, 0, 0, 1263.872680664062
122, 0, 0, 1249.06494140625
123, 0, 0, 1231.013305664062
124, 0, 0, 1225.9375
125, 0, 0, 1217.404907226562
126, 0, 0, 1206.431518554688
127, 0, 0, 1184.430297851562
128, 0, 0, 1183.071166992188
129, 0, 0, 1170.811279296875
130, 0, 0, 1164.63525390625
131, 0, 0, 1159.962036132812
132, 0, 0, 1144.363403320312
133, 0, 0, 1142.602294921875
134, 0, 0, 1134.827270507812
135, 0, 0, 1120.5625
136, 0, 0, 1117.051391601562
137, 0, 0, 1106.217529296875
138, 0, 0, 1099.42529296875
139, 0, 0, 1095.121215820312
140, 0, 0, 1093.409423828125
141, 0, 0, 1085.098388671875
142, 0, 0, 1077.544799804688
143, 0, 0, 1066.046020507812
144, 0, 0, 1062.406616210938
145, 0, 0, 1055.916015625
146, 0, 0, 1049.96484375
147, 0, 0, 1041.103393554688
148, 0, 0, 1037.945190429688
149, 0, 0, 1035.757446289062
150, 0, 0, 1025.259399414062
151, 0, 0, 1023.375793457031
152, 0, 0, 1017.158935546875
153, 0, 0, 1013.640075683594
154, 0, 0, 1008.347290039062
155, 0, 0, 996.1465454101562
156, 0, 0, 994.275634765625
157, 0, 0, 994.779541015625
158, 0, 0, 985.8172607421875
159, 0, 0, 978.5568237304688
160, 0, 0, 980.2140502929688
161, 0, 0, 969.810546875
162, 0, 0, 960.8792724609375
163, 0, 0, 964.8496704101562
164, 0, 0, 961.1842041015625
165, 0, 0, 953.763427734375
166, 0, 0, 950.2332153320312
167, 0, 0, 948.705322265625
168, 0, 0, 949.3449096679688
169, 0, 0, 939.6365966796875
170, 0, 0, 938.2539672851562
171, 0, 0, 933.6303100585938
172, 0, 0, 927.3045654296875
173, 0, 0, 925.5107421875
174, 0, 0, 914.6842651367188
175, 0, 0, 915.2389526367188
176, 0, 0, 909.7201538085938
177, 0, 0, 905.4168701171875
178, 0, 0, 909.3532104492188
179, 0, 0, 904.86279296875
