# TOPAS Version: 3.3.p1
# Parameter File: Test.txt
# Results for scorer MLIC_Scorer
# Scored in component: MLIC
# X in 180 bins of 0.177778 cm
# Y in 1 bin  of 10 cm
# Z in 1 bin  of 10 cm
# EnergyDeposit ( MeV ) : Sum   
0, 0, 0, 0
1, 0, 0, 0
2, 0, 0, 0
3, 0, 0, 0
4, 0, 0, 0
5, 0, 0, 0
6, 0, 0, 0
7, 0, 0, 0
8, 0, 0, 0
9, 0, 0, 0
10, 0, 0, 0
11, 0, 0, 0
12, 0, 0, 0
13, 0, 0, 0
14, 0, 0, 0
15, 0, 0, 0
16, 0, 0, 0
17, 0, 0, 0
18, 0, 0, 0
19, 0, 0, 0
20, 0, 0, 0
21, 0, 0, 0
22, 0, 0, 0
23, 0, 0, 0
24, 0, 0, 0
25, 0, 0, 0
26, 0, 0, 0
27, 0, 0, 0
28, 0, 0, 0
29, 0, 0, 0
30, 0, 0, 0
31, 0, 0, 0
32, 0, 0, 0
33, 0, 0, 0
34, 0, 0, 0
35, 0, 0, 0
36, 0, 0, 0
37, 0, 0, 0
38, 0, 0, 0
39, 0, 0, 0
40, 0, 0, 0
41, 0, 0, 0
42, 0, 0, 0
43, 0, 0, 0
44, 0, 0, 0
45, 0, 0, 0
46, 0, 0, 0
47, 0, 0, 0
48, 0, 0, 0
49, 0, 0, 2.466541528701782
50, 0, 0, 19.1680736541748
51, 0, 0, 12.40265941619873
52, 0, 0, 109.2961349487305
53, 0, 0, 242.5826416015625
54, 0, 0, 312.7117004394531
55, 0, 0, 414.53173828125
56, 0, 0, 391.2133178710938
57, 0, 0, 357.6473083496094
58, 0, 0, 309.992431640625
59, 0, 0, 272.6563110351562
60, 0, 0, 246.1687469482422
61, 0, 0, 228.2688446044922
62, 0, 0, 213.5542449951172
63, 0, 0, 201.0302886962891
64, 0, 0, 190.9546661376953
65, 0, 0, 182.8552093505859
66, 0, 0, 176.8901519775391
67, 0, 0, 170.1682281494141
68, 0, 0, 164.0652618408203
69, 0, 0, 158.9314575195312
70, 0, 0, 153.3194732666016
71, 0, 0, 150.9834899902344
72, 0, 0, 149.3248291015625
73, 0, 0, 145.5958557128906
74, 0, 0, 139.6563568115234
75, 0, 0, 137.3651885986328
76, 0, 0, 133.2703094482422
77, 0, 0, 133.7136383056641
78, 0, 0, 128.8950653076172
79, 0, 0, 127.176513671875
80, 0, 0, 125.4647521972656
81, 0, 0, 122.89453125
82, 0, 0, 121.2336654663086
83, 0, 0, 118.4413681030273
84, 0, 0, 116.412109375
85, 0, 0, 117.8744277954102
86, 0, 0, 113.8097915649414
87, 0, 0, 113.156379699707
88, 0, 0, 110.9973678588867
89, 0, 0, 108.6735229492188
90, 0, 0, 107.6133651733398
91, 0, 0, 107.2749481201172
92, 0, 0, 107.8381118774414
93, 0, 0, 105.8235244750977
94, 0, 0, 106.2008743286133
95, 0, 0, 102.7360000610352
96, 0, 0, 102.4009017944336
97, 0, 0, 103.9172134399414
98, 0, 0, 97.59223175048828
99, 0, 0, 100.5518493652344
100, 0, 0, 100.0095977783203
101, 0, 0, 95.47927093505859
102, 0, 0, 96.39336395263672
103, 0, 0, 96.71833801269531
104, 0, 0, 91.85746002197266
105, 0, 0, 94.14501953125
106, 0, 0, 94.07817077636719
107, 0, 0, 92.54422760009766
108, 0, 0, 90.09627532958984
109, 0, 0, 92.34605407714844
110, 0, 0, 90.44668579101562
111, 0, 0, 89.17926788330078
112, 0, 0, 89.80763244628906
113, 0, 0, 88.33510589599609
114, 0, 0, 86.95832061767578
115, 0, 0, 85.74816131591797
116, 0, 0, 87.28038024902344
117, 0, 0, 85.78359985351562
118, 0, 0, 85.87863922119141
119, 0, 0, 85.32725524902344
120, 0, 0, 83.20995330810547
121, 0, 0, 84.93434906005859
122, 0, 0, 83.41082000732422
123, 0, 0, 83.33779907226562
124, 0, 0, 82.34846496582031
125, 0, 0, 83.11899566650391
126, 0, 0, 82.25681304931641
127, 0, 0, 81.75422668457031
128, 0, 0, 80.87055969238281
129, 0, 0, 81.09153747558594
130, 0, 0, 79.68666839599609
131, 0, 0, 80.10234832763672
132, 0, 0, 79.87883758544922
133, 0, 0, 79.74577331542969
134, 0, 0, 79.48396301269531
135, 0, 0, 79.91326141357422
136, 0, 0, 79.15708160400391
137, 0, 0, 76.71574401855469
138, 0, 0, 79.13453674316406
139, 0, 0, 76.29820251464844
140, 0, 0, 74.46587371826172
141, 0, 0, 74.64397430419922
142, 0, 0, 74.25533294677734
143, 0, 0, 75.60173034667969
144, 0, 0, 76.05816650390625
145, 0, 0, 73.55509185791016
146, 0, 0, 75.16844177246094
147, 0, 0, 75.2227783203125
148, 0, 0, 71.2808837890625
149, 0, 0, 71.66777038574219
150, 0, 0, 72.84589385986328
151, 0, 0, 72.10785675048828
152, 0, 0, 73.97282409667969
153, 0, 0, 72.38367462158203
154, 0, 0, 71.29132843017578
155, 0, 0, 72.04167175292969
156, 0, 0, 70.58148956298828
157, 0, 0, 72.91668701171875
158, 0, 0, 72.47377777099609
159, 0, 0, 70.35255432128906
160, 0, 0, 69.52268981933594
161, 0, 0, 70.49582672119141
162, 0, 0, 69.90436553955078
163, 0, 0, 69.50358581542969
164, 0, 0, 70.82485961914062
165, 0, 0, 68.49228668212891
166, 0, 0, 67.89578247070312
167, 0, 0, 68.17844390869141
168, 0, 0, 65.65424346923828
169, 0, 0, 67.28052520751953
170, 0, 0, 69.07987976074219
171, 0, 0, 66.327392578125
172, 0, 0, 70.03900909423828
173, 0, 0, 66.87916564941406
174, 0, 0, 64.55670166015625
175, 0, 0, 64.39322662353516
176, 0, 0, 64.30517578125
177, 0, 0, 65.45301818847656
178, 0, 0, 65.96903228759766
179, 0, 0, 65.32126617431641
