# TOPAS Version: 3.3.p1
# Parameter File: Test.txt
# Results for scorer MLIC_Scorer
# Scored in component: MLIC
# X in 180 bins of 0.183333 cm
# Y in 1 bin  of 10 cm
# Z in 1 bin  of 10 cm
# EnergyDeposit ( MeV ) : Sum   
0, 0, 0, 0
1, 0, 0, 0
2, 0, 0, 0
3, 0, 0, 0
4, 0, 0, 0
5, 0, 0, 0
6, 0, 0, 0
7, 0, 0, 0
8, 0, 0, 0
9, 0, 0, 0
10, 0, 0, 0
11, 0, 0, 0
12, 0, 0, 0
13, 0, 0, 0
14, 0, 0, 0
15, 0, 0, 0.003789833746850491
16, 0, 0, 0
17, 0, 0, 0
18, 0, 0, 0
19, 0, 0, 0.03221694380044937
20, 0, 0, 0
21, 0, 0, 0
22, 0, 0, 0
23, 0, 0, 0
24, 0, 0, 0
25, 0, 0, 0
26, 0, 0, 0
27, 0, 0, 0
28, 0, 0, 0
29, 0, 0, 0
30, 0, 0, 0
31, 0, 0, 0
32, 0, 0, 0
33, 0, 0, 0
34, 0, 0, 0
35, 0, 0, 0
36, 0, 0, 0
37, 0, 0, 0
38, 0, 0, 0
39, 0, 0, 0.03144668415188789
40, 0, 0, 0
41, 0, 0, 0
42, 0, 0, 0
43, 0, 0, 0
44, 0, 0, 0
45, 0, 0, 0.00343154976144433
46, 0, 0, 0
47, 0, 0, 0
48, 0, 0, 0.0001106795461964794
49, 0, 0, 0
50, 0, 0, 0
51, 0, 0, 0
52, 0, 0, 0
53, 0, 0, 0.0251760222017765
54, 0, 0, 0.001450752490200102
55, 0, 0, 0
56, 0, 0, 0.03254060447216034
57, 0, 0, 0
58, 0, 0, 0
59, 0, 0, 0
60, 0, 0, 0
61, 0, 0, 0
62, 0, 0, 0
63, 0, 0, 0
64, 0, 0, 0
65, 0, 0, 6.930649757385254
66, 0, 0, 17.95673370361328
67, 0, 0, 147.4630126953125
68, 0, 0, 640.3198852539062
69, 0, 0, 1551.472412109375
70, 0, 0, 2865.809814453125
71, 0, 0, 4179.912109375
72, 0, 0, 5130.8046875
73, 0, 0, 5116.17041015625
74, 0, 0, 4621.94677734375
75, 0, 0, 4035.449951171875
76, 0, 0, 3561.783203125
77, 0, 0, 3238.673095703125
78, 0, 0, 2975.750732421875
79, 0, 0, 2790.994140625
80, 0, 0, 2629.415283203125
81, 0, 0, 2504.701171875
82, 0, 0, 2401.60693359375
83, 0, 0, 2307.19775390625
84, 0, 0, 2230.495849609375
85, 0, 0, 2150.98046875
86, 0, 0, 2087.438232421875
87, 0, 0, 2025.625732421875
88, 0, 0, 1965.036865234375
89, 0, 0, 1919.646362304688
90, 0, 0, 1883.904296875
91, 0, 0, 1830.96875
92, 0, 0, 1791.017211914062
93, 0, 0, 1760.197998046875
94, 0, 0, 1723.828002929688
95, 0, 0, 1692.986694335938
96, 0, 0, 1658.616943359375
97, 0, 0, 1634.861450195312
98, 0, 0, 1607.030029296875
99, 0, 0, 1583.245361328125
100, 0, 0, 1565.604736328125
101, 0, 0, 1544.469970703125
102, 0, 0, 1519.472900390625
103, 0, 0, 1493.887451171875
104, 0, 0, 1479.789306640625
105, 0, 0, 1455.438842773438
106, 0, 0, 1436.275512695312
107, 0, 0, 1415.592651367188
108, 0, 0, 1413.653930664062
109, 0, 0, 1390.696411132812
110, 0, 0, 1378.815795898438
111, 0, 0, 1360.660888671875
112, 0, 0, 1345.455810546875
113, 0, 0, 1334.078002929688
114, 0, 0, 1322.738525390625
115, 0, 0, 1307.234008789062
116, 0, 0, 1290.965698242188
117, 0, 0, 1283.32958984375
118, 0, 0, 1274.693359375
119, 0, 0, 1259.91357421875
120, 0, 0, 1244.842163085938
121, 0, 0, 1237.210327148438
122, 0, 0, 1225.004760742188
123, 0, 0, 1214.271728515625
124, 0, 0, 1213.8154296875
125, 0, 0, 1198.444946289062
126, 0, 0, 1190.257690429688
127, 0, 0, 1178.400146484375
128, 0, 0, 1170.112060546875
129, 0, 0, 1164.399047851562
130, 0, 0, 1157.503784179688
131, 0, 0, 1152.508911132812
132, 0, 0, 1144.16015625
133, 0, 0, 1139.97607421875
134, 0, 0, 1133.9248046875
135, 0, 0, 1119.860229492188
136, 0, 0, 1107.953735351562
137, 0, 0, 1101.778198242188
138, 0, 0, 1105.920654296875
139, 0, 0, 1096.323120117188
140, 0, 0, 1086.505859375
141, 0, 0, 1087.011840820312
142, 0, 0, 1084.8037109375
143, 0, 0, 1070.823974609375
144, 0, 0, 1056.07958984375
145, 0, 0, 1053.83935546875
146, 0, 0, 1054.730834960938
147, 0, 0, 1047.540649414062
148, 0, 0, 1041.394653320312
149, 0, 0, 1036.128662109375
150, 0, 0, 1027.41162109375
151, 0, 0, 1025.04443359375
152, 0, 0, 1017.37353515625
153, 0, 0, 1006.394897460938
154, 0, 0, 1009.433959960938
155, 0, 0, 1006.673828125
156, 0, 0, 1001.752990722656
157, 0, 0, 995.6893310546875
158, 0, 0, 983.3331298828125
159, 0, 0, 993.318359375
160, 0, 0, 980.2173461914062
161, 0, 0, 974.1565551757812
162, 0, 0, 967.86181640625
163, 0, 0, 968.9105224609375
164, 0, 0, 971.49462890625
165, 0, 0, 956.4970703125
166, 0, 0, 961.7830200195312
167, 0, 0, 945.5829467773438
168, 0, 0, 947.9674072265625
169, 0, 0, 943.9164428710938
170, 0, 0, 940.0813598632812
171, 0, 0, 934.7272338867188
172, 0, 0, 933.6966552734375
173, 0, 0, 921.4797973632812
174, 0, 0, 936.770751953125
175, 0, 0, 917.2806396484375
176, 0, 0, 918.8709716796875
177, 0, 0, 913.498779296875
178, 0, 0, 917.1046142578125
179, 0, 0, 912.1469116210938
