# TOPAS Version: 3.3.p1
# Parameter File: Test.txt
# Results for scorer MLIC_Scorer
# Scored in component: MLIC
# X in 180 bins of 0.177778 cm
# Y in 1 bin  of 10 cm
# Z in 1 bin  of 10 cm
# EnergyDeposit ( MeV ) : Sum   
0, 0, 0, 0
1, 0, 0, 0
2, 0, 0, 0
3, 0, 0, 0
4, 0, 0, 0
5, 0, 0, 0
6, 0, 0, 0
7, 0, 0, 0
8, 0, 0, 0
9, 0, 0, 0
10, 0, 0, 0
11, 0, 0, 0.03957120701670647
12, 0, 0, 0
13, 0, 0, 0
14, 0, 0, 0
15, 0, 0, 0.002138083335012197
16, 0, 0, 0
17, 0, 0, 3.772392749786377
18, 0, 0, 32.76496505737305
19, 0, 0, 120.3544311523438
20, 0, 0, 486.6325988769531
21, 0, 0, 1331.305297851562
22, 0, 0, 2487.43359375
23, 0, 0, 3895.125
24, 0, 0, 4744.728515625
25, 0, 0, 4978.7802734375
26, 0, 0, 4635.349609375
27, 0, 0, 4168.50439453125
28, 0, 0, 3615.4423828125
29, 0, 0, 3255.829345703125
30, 0, 0, 2984.7880859375
31, 0, 0, 2788.9560546875
32, 0, 0, 2628.59423828125
33, 0, 0, 2496.486083984375
34, 0, 0, 2378.888671875
35, 0, 0, 2287.150634765625
36, 0, 0, 2203.431396484375
37, 0, 0, 2128.8642578125
38, 0, 0, 2062.405029296875
39, 0, 0, 2006.552978515625
40, 0, 0, 1953.783081054688
41, 0, 0, 1897.017333984375
42, 0, 0, 1856.044067382812
43, 0, 0, 1811.231323242188
44, 0, 0, 1772.027587890625
45, 0, 0, 1745.65087890625
46, 0, 0, 1708.899536132812
47, 0, 0, 1673.312744140625
48, 0, 0, 1639.327514648438
49, 0, 0, 1622.962036132812
50, 0, 0, 1594.091186523438
51, 0, 0, 1567.890380859375
52, 0, 0, 1542.563232421875
53, 0, 0, 1523.626220703125
54, 0, 0, 1496.858520507812
55, 0, 0, 1475.920776367188
56, 0, 0, 1454.753295898438
57, 0, 0, 1439.764038085938
58, 0, 0, 1419.140991210938
59, 0, 0, 1408.45947265625
60, 0, 0, 1386.755493164062
61, 0, 0, 1369.821166992188
62, 0, 0, 1348.807006835938
63, 0, 0, 1344.890625
64, 0, 0, 1324.003295898438
65, 0, 0, 1313.989624023438
66, 0, 0, 1298.55078125
67, 0, 0, 1282.719970703125
68, 0, 0, 1279.099365234375
69, 0, 0, 1256.840698242188
70, 0, 0, 1248.4404296875
71, 0, 0, 1240.153442382812
72, 0, 0, 1226.731567382812
73, 0, 0, 1219.710815429688
74, 0, 0, 1208.513793945312
75, 0, 0, 1193.921875
76, 0, 0, 1188.287963867188
77, 0, 0, 1178.5009765625
78, 0, 0, 1159.602416992188
79, 0, 0, 1161.605224609375
80, 0, 0, 1149.977416992188
81, 0, 0, 1145.47314453125
82, 0, 0, 1135.64501953125
83, 0, 0, 1132.128540039062
84, 0, 0, 1124.381958007812
85, 0, 0, 1122.244873046875
86, 0, 0, 1109.724487304688
87, 0, 0, 1101.64111328125
88, 0, 0, 1098.103881835938
89, 0, 0, 1085.521240234375
90, 0, 0, 1076.7470703125
91, 0, 0, 1075.43798828125
92, 0, 0, 1066.087036132812
93, 0, 0, 1066.986328125
94, 0, 0, 1052.80615234375
95, 0, 0, 1052.230102539062
96, 0, 0, 1038.66552734375
97, 0, 0, 1040.928588867188
98, 0, 0, 1025.39892578125
99, 0, 0, 1028.160034179688
100, 0, 0, 1018.75244140625
101, 0, 0, 1017.144592285156
102, 0, 0, 1014.267639160156
103, 0, 0, 1013.3828125
104, 0, 0, 998.5855102539062
105, 0, 0, 994.4395141601562
106, 0, 0, 990.51611328125
107, 0, 0, 983.8828735351562
108, 0, 0, 973.1586303710938
109, 0, 0, 969.3279418945312
110, 0, 0, 978.0581665039062
111, 0, 0, 965.8744506835938
112, 0, 0, 968.34228515625
113, 0, 0, 959.8648681640625
114, 0, 0, 957.7728881835938
115, 0, 0, 959.636962890625
116, 0, 0, 943.6851196289062
117, 0, 0, 943.4390869140625
118, 0, 0, 941.9607543945312
119, 0, 0, 934.9100952148438
120, 0, 0, 926.1575927734375
121, 0, 0, 928.1915283203125
122, 0, 0, 933.6245727539062
123, 0, 0, 923.509765625
124, 0, 0, 926.5261840820312
125, 0, 0, 918.4237060546875
126, 0, 0, 907.3877563476562
127, 0, 0, 908.691162109375
128, 0, 0, 902.7207641601562
129, 0, 0, 900.9371948242188
130, 0, 0, 897.0872192382812
131, 0, 0, 897.5595703125
132, 0, 0, 883.5967407226562
133, 0, 0, 892.1499633789062
134, 0, 0, 893.1353759765625
135, 0, 0, 882.71875
136, 0, 0, 882.1227416992188
137, 0, 0, 874.4860229492188
138, 0, 0, 866.8538818359375
139, 0, 0, 869.6157836914062
140, 0, 0, 873.0782470703125
141, 0, 0, 866.9826049804688
142, 0, 0, 857.2484130859375
143, 0, 0, 866.0687866210938
144, 0, 0, 849.5306396484375
145, 0, 0, 853.6251831054688
146, 0, 0, 850.7532958984375
147, 0, 0, 847.2069091796875
148, 0, 0, 844.7354125976562
149, 0, 0, 842.411376953125
150, 0, 0, 838.7393188476562
151, 0, 0, 831.5493774414062
152, 0, 0, 835.4575805664062
153, 0, 0, 837.637939453125
154, 0, 0, 834.1940307617188
155, 0, 0, 826.5982666015625
156, 0, 0, 824.8958740234375
157, 0, 0, 819.8838500976562
158, 0, 0, 824.960205078125
159, 0, 0, 821.6172485351562
160, 0, 0, 821.3208618164062
161, 0, 0, 809.7086181640625
162, 0, 0, 806.0220336914062
163, 0, 0, 810.6710815429688
164, 0, 0, 804.8186645507812
165, 0, 0, 797.72900390625
166, 0, 0, 812.573486328125
167, 0, 0, 802.5061645507812
168, 0, 0, 789.9437866210938
169, 0, 0, 801.234619140625
170, 0, 0, 796.04833984375
171, 0, 0, 793.9071044921875
172, 0, 0, 795.3147583007812
173, 0, 0, 795.9735107421875
174, 0, 0, 787.4142456054688
175, 0, 0, 776.1309204101562
176, 0, 0, 778.64697265625
177, 0, 0, 785.4478759765625
178, 0, 0, 782.9215698242188
179, 0, 0, 774.8994140625
