# TOPAS Version: 3.3.p1
# Parameter File: Test.txt
# Results for scorer MLIC_Scorer
# Scored in component: MLIC
# X in 180 bins of 0.177778 cm
# Y in 1 bin  of 10 cm
# Z in 1 bin  of 10 cm
# EnergyDeposit ( MeV ) : Sum   
0, 0, 0, 0
1, 0, 0, 0
2, 0, 0, 0
3, 0, 0, 0
4, 0, 0, 0
5, 0, 0, 0
6, 0, 0, 0
7, 0, 0, 0
8, 0, 0, 0
9, 0, 0, 0
10, 0, 0, 0
11, 0, 0, 0
12, 0, 0, 0
13, 0, 0, 0
14, 0, 0, 0
15, 0, 0, 0.02787761762738228
16, 0, 0, 0.02839656919240952
17, 0, 0, 0.002023800741881132
18, 0, 0, 0.00128084875177592
19, 0, 0, 0
20, 0, 0, 0
21, 0, 0, 0.0003479212464299053
22, 0, 0, 0
23, 0, 0, 0
24, 0, 0, 0.0009223657543770969
25, 0, 0, 0
26, 0, 0, 0
27, 0, 0, 0
28, 0, 0, 46.06918334960938
29, 0, 0, 179.7384948730469
30, 0, 0, 486.9440612792969
31, 0, 0, 1362.423583984375
32, 0, 0, 2477.20458984375
33, 0, 0, 4046.46728515625
34, 0, 0, 4819.28369140625
35, 0, 0, 5006.44384765625
36, 0, 0, 4691.181640625
37, 0, 0, 4111.73095703125
38, 0, 0, 3599.5888671875
39, 0, 0, 3219.22412109375
40, 0, 0, 2961.00244140625
41, 0, 0, 2771.026611328125
42, 0, 0, 2609.18212890625
43, 0, 0, 2489.117919921875
44, 0, 0, 2375.619384765625
45, 0, 0, 2279.845947265625
46, 0, 0, 2197.7900390625
47, 0, 0, 2121.732177734375
48, 0, 0, 2061.429443359375
49, 0, 0, 1999.123046875
50, 0, 0, 1950.3994140625
51, 0, 0, 1892.978271484375
52, 0, 0, 1849.6103515625
53, 0, 0, 1811.257446289062
54, 0, 0, 1770.716918945312
55, 0, 0, 1729.490234375
56, 0, 0, 1700.912719726562
57, 0, 0, 1663.207397460938
58, 0, 0, 1642.031127929688
59, 0, 0, 1610.19921875
60, 0, 0, 1588.883056640625
61, 0, 0, 1560.195068359375
62, 0, 0, 1539.294189453125
63, 0, 0, 1515.41552734375
64, 0, 0, 1485.75439453125
65, 0, 0, 1471.494018554688
66, 0, 0, 1460.1728515625
67, 0, 0, 1439.421264648438
68, 0, 0, 1416.855224609375
69, 0, 0, 1397.31787109375
70, 0, 0, 1386.841186523438
71, 0, 0, 1364.994873046875
72, 0, 0, 1353.10595703125
73, 0, 0, 1343.192138671875
74, 0, 0, 1332.960327148438
75, 0, 0, 1305.944580078125
76, 0, 0, 1298.7421875
77, 0, 0, 1293.831298828125
78, 0, 0, 1273.410278320312
79, 0, 0, 1258.888793945312
80, 0, 0, 1248.929931640625
81, 0, 0, 1242.640991210938
82, 0, 0, 1222.862426757812
83, 0, 0, 1216.749877929688
84, 0, 0, 1207.7744140625
85, 0, 0, 1205.862915039062
86, 0, 0, 1190.637817382812
87, 0, 0, 1178.84228515625
88, 0, 0, 1170.383422851562
89, 0, 0, 1160.720825195312
90, 0, 0, 1149.012817382812
91, 0, 0, 1145.157470703125
92, 0, 0, 1131.9365234375
93, 0, 0, 1126.160400390625
94, 0, 0, 1121.968994140625
95, 0, 0, 1115.662109375
96, 0, 0, 1101.826049804688
97, 0, 0, 1101.268188476562
98, 0, 0, 1097.28955078125
99, 0, 0, 1082.6015625
100, 0, 0, 1082.647094726562
101, 0, 0, 1078.773193359375
102, 0, 0, 1067.566284179688
103, 0, 0, 1066.716796875
104, 0, 0, 1050.6875
105, 0, 0, 1050.654541015625
106, 0, 0, 1051.257446289062
107, 0, 0, 1030.001220703125
108, 0, 0, 1032.2978515625
109, 0, 0, 1032.666015625
110, 0, 0, 1026.518188476562
111, 0, 0, 1010.086975097656
112, 0, 0, 1009.376037597656
113, 0, 0, 1002.244384765625
114, 0, 0, 1000.962646484375
115, 0, 0, 991.4127197265625
116, 0, 0, 989.3540649414062
117, 0, 0, 992.952880859375
118, 0, 0, 984.8362426757812
119, 0, 0, 978.4362182617188
120, 0, 0, 973.5387573242188
121, 0, 0, 961.674072265625
122, 0, 0, 963.6613159179688
123, 0, 0, 961.9591674804688
124, 0, 0, 959.2446899414062
125, 0, 0, 955.0617065429688
126, 0, 0, 944.1903686523438
127, 0, 0, 938.1005249023438
128, 0, 0, 942.4410400390625
129, 0, 0, 932.7732543945312
130, 0, 0, 936.5816650390625
131, 0, 0, 925.7578735351562
132, 0, 0, 920.4635009765625
133, 0, 0, 921.7161254882812
134, 0, 0, 919.7861328125
135, 0, 0, 912.3092651367188
136, 0, 0, 903.785400390625
137, 0, 0, 908.3121948242188
138, 0, 0, 903.1522827148438
139, 0, 0, 904.8696899414062
140, 0, 0, 896.3644409179688
141, 0, 0, 891.5371704101562
142, 0, 0, 892.3744506835938
143, 0, 0, 883.1834106445312
144, 0, 0, 879.5419311523438
145, 0, 0, 881.8494873046875
146, 0, 0, 879.618408203125
147, 0, 0, 867.4401245117188
148, 0, 0, 876.5572509765625
149, 0, 0, 873.839599609375
150, 0, 0, 851.9031372070312
151, 0, 0, 867.4952392578125
152, 0, 0, 855.1597900390625
153, 0, 0, 849.1466064453125
154, 0, 0, 853.7869262695312
155, 0, 0, 845.0442504882812
156, 0, 0, 848.9146118164062
157, 0, 0, 847.0147094726562
158, 0, 0, 839.30029296875
159, 0, 0, 844.397705078125
160, 0, 0, 843.7994384765625
161, 0, 0, 842.988525390625
162, 0, 0, 836.1198120117188
163, 0, 0, 837.9147338867188
164, 0, 0, 832.697265625
165, 0, 0, 824.79345703125
166, 0, 0, 819.1209106445312
167, 0, 0, 821.7379150390625
168, 0, 0, 818.4151000976562
169, 0, 0, 813.009521484375
170, 0, 0, 816.7518310546875
171, 0, 0, 815.4024047851562
172, 0, 0, 808.5013427734375
173, 0, 0, 806.7955322265625
174, 0, 0, 807.0018920898438
175, 0, 0, 803.2063598632812
176, 0, 0, 808.5690307617188
177, 0, 0, 804.1990356445312
178, 0, 0, 797.7094116210938
179, 0, 0, 794.84228515625
