# TOPAS Version: 3.3.p1
# Parameter File: Test.txt
# Results for scorer MLIC_Scorer
# Scored in component: MLIC
# X in 180 bins of 0.177778 cm
# Y in 1 bin  of 10 cm
# Z in 1 bin  of 10 cm
# EnergyDeposit ( MeV ) : Sum   
0, 0, 0, 0
1, 0, 0, 0
2, 0, 0, 0
3, 0, 0, 0
4, 0, 0, 0
5, 0, 0, 0
6, 0, 0, 0
7, 0, 0, 0
8, 0, 0, 0
9, 0, 0, 0
10, 0, 0, 0
11, 0, 0, 0
12, 0, 0, 0
13, 0, 0, 0
14, 0, 0, 0
15, 0, 0, 0
16, 0, 0, 0
17, 0, 0, 0
18, 0, 0, 0
19, 0, 0, 0
20, 0, 0, 0
21, 0, 0, 0
22, 0, 0, 0
23, 0, 0, 0
24, 0, 0, 0
25, 0, 0, 0
26, 0, 0, 0
27, 0, 0, 0
28, 0, 0, 0
29, 0, 0, 0
30, 0, 0, 0
31, 0, 0, 0
32, 0, 0, 0
33, 0, 0, 0
34, 0, 0, 0
35, 0, 0, 0
36, 0, 0, 0
37, 0, 0, 0
38, 0, 0, 0
39, 0, 0, 0
40, 0, 0, 0
41, 0, 0, 0
42, 0, 0, 0
43, 0, 0, 0
44, 0, 0, 0
45, 0, 0, 0
46, 0, 0, 0
47, 0, 0, 0
48, 0, 0, 0
49, 0, 0, 0
50, 0, 0, 0
51, 0, 0, 0
52, 0, 0, 0
53, 0, 0, 0
54, 0, 0, 0
55, 0, 0, 0
56, 0, 0, 0
57, 0, 0, 0
58, 0, 0, 0
59, 0, 0, 0
60, 0, 0, 0
61, 0, 0, 0
62, 0, 0, 0
63, 0, 0, 0
64, 0, 0, 0
65, 0, 0, 0
66, 0, 0, 0
67, 0, 0, 0
68, 0, 0, 0
69, 0, 0, 0
70, 0, 0, 0
71, 0, 0, 0
72, 0, 0, 0
73, 0, 0, 0
74, 0, 0, 0
75, 0, 0, 0
76, 0, 0, 0
77, 0, 0, 0
78, 0, 0, 0
79, 0, 0, 0
80, 0, 0, 0
81, 0, 0, 0
82, 0, 0, 0
83, 0, 0, 0
84, 0, 0, 0
85, 0, 0, 0
86, 0, 0, 0
87, 0, 0, 0
88, 0, 0, 0
89, 0, 0, 0
90, 0, 0, 0
91, 0, 0, 0
92, 0, 0, 0
93, 0, 0, 0
94, 0, 0, 0
95, 0, 0, 0
96, 0, 0, 0
97, 0, 0, 0
98, 0, 0, 0
99, 0, 0, 0
100, 0, 0, 0
101, 0, 0, 0
102, 0, 0, 0
103, 0, 0, 0
104, 0, 0, 0
105, 0, 0, 0
106, 0, 0, 0
107, 0, 0, 0
108, 0, 0, 0
109, 0, 0, 0
110, 0, 0, 0
111, 0, 0, 0
112, 0, 0, 0
113, 0, 0, 0
114, 0, 0, 0
115, 0, 0, 0
116, 0, 0, 0
117, 0, 0, 0
118, 0, 0, 0
119, 0, 0, 0
120, 0, 0, 0
121, 0, 0, 0
122, 0, 0, 0
123, 0, 0, 0
124, 0, 0, 4.664360046386719
125, 0, 0, 20.65489768981934
126, 0, 0, 39.53841781616211
127, 0, 0, 98.55789184570312
128, 0, 0, 232.6228790283203
129, 0, 0, 351.595458984375
130, 0, 0, 383.3469543457031
131, 0, 0, 398.8616943359375
132, 0, 0, 355.8543701171875
133, 0, 0, 323.0606384277344
134, 0, 0, 285.0552062988281
135, 0, 0, 255.8635406494141
136, 0, 0, 235.4360961914062
137, 0, 0, 221.8647613525391
138, 0, 0, 207.8883209228516
139, 0, 0, 196.9955139160156
140, 0, 0, 189.8700866699219
141, 0, 0, 180.478515625
142, 0, 0, 175.9591217041016
143, 0, 0, 169.0849304199219
144, 0, 0, 164.0697784423828
145, 0, 0, 159.6598205566406
146, 0, 0, 155.1812591552734
147, 0, 0, 150.3263549804688
148, 0, 0, 146.8218841552734
149, 0, 0, 143.9242858886719
150, 0, 0, 141.1379547119141
151, 0, 0, 138.3116149902344
152, 0, 0, 134.7621917724609
153, 0, 0, 132.5324859619141
154, 0, 0, 131.4745178222656
155, 0, 0, 128.2534484863281
156, 0, 0, 124.3488998413086
157, 0, 0, 123.2084197998047
158, 0, 0, 123.2630996704102
159, 0, 0, 120.8927841186523
160, 0, 0, 118.6636734008789
161, 0, 0, 117.7715911865234
162, 0, 0, 113.5907135009766
163, 0, 0, 116.0458908081055
164, 0, 0, 113.3426666259766
165, 0, 0, 112.6992263793945
166, 0, 0, 111.0005187988281
167, 0, 0, 109.9321899414062
168, 0, 0, 107.4255676269531
169, 0, 0, 106.8295822143555
170, 0, 0, 105.2406692504883
171, 0, 0, 107.3563537597656
172, 0, 0, 104.2028732299805
173, 0, 0, 100.8947830200195
174, 0, 0, 101.5523376464844
175, 0, 0, 101.1258239746094
176, 0, 0, 101.2180557250977
177, 0, 0, 100.9483032226562
178, 0, 0, 99.5850830078125
179, 0, 0, 98.52862548828125
