# TOPAS Version: 3.3.p1
# Parameter File: Test.txt
# Results for scorer MLIC_Scorer
# Scored in component: MLIC
# X in 180 bins of 0.177778 cm
# Y in 1 bin  of 10 cm
# Z in 1 bin  of 10 cm
# EnergyDeposit ( MeV ) : Sum   
0, 0, 0, 0
1, 0, 0, 0
2, 0, 0, 0
3, 0, 0, 0
4, 0, 0, 0
5, 0, 0, 0
6, 0, 0, 0.04702399671077728
7, 0, 0, 0
8, 0, 0, 0
9, 0, 0, 0
10, 0, 0, 0
11, 0, 0, 0
12, 0, 0, 0
13, 0, 0, 0
14, 0, 0, 0
15, 0, 0, 9.327547073364258
16, 0, 0, 36.72796249389648
17, 0, 0, 260.3751220703125
18, 0, 0, 870.4467163085938
19, 0, 0, 1997.00244140625
20, 0, 0, 3477.3115234375
21, 0, 0, 4559.11376953125
22, 0, 0, 4958.96630859375
23, 0, 0, 4869.34228515625
24, 0, 0, 4379.98486328125
25, 0, 0, 3790.787353515625
26, 0, 0, 3382.637939453125
27, 0, 0, 3069.37060546875
28, 0, 0, 2846.148193359375
29, 0, 0, 2674.760498046875
30, 0, 0, 2532.912841796875
31, 0, 0, 2422.5341796875
32, 0, 0, 2316.047607421875
33, 0, 0, 2230.072265625
34, 0, 0, 2159.16552734375
35, 0, 0, 2087.942138671875
36, 0, 0, 2022.334594726562
37, 0, 0, 1966.463012695312
38, 0, 0, 1916.084106445312
39, 0, 0, 1870.225219726562
40, 0, 0, 1824.356567382812
41, 0, 0, 1781.094970703125
42, 0, 0, 1751.685302734375
43, 0, 0, 1717.48095703125
44, 0, 0, 1681.881958007812
45, 0, 0, 1647.999877929688
46, 0, 0, 1618.942504882812
47, 0, 0, 1602.397338867188
48, 0, 0, 1574.4365234375
49, 0, 0, 1549.02001953125
50, 0, 0, 1524.864379882812
51, 0, 0, 1501.770629882812
52, 0, 0, 1479.8330078125
53, 0, 0, 1461.950805664062
54, 0, 0, 1443.607421875
55, 0, 0, 1422.042236328125
56, 0, 0, 1408.451049804688
57, 0, 0, 1398.357788085938
58, 0, 0, 1380.22509765625
59, 0, 0, 1363.189697265625
60, 0, 0, 1345.07470703125
61, 0, 0, 1332.564086914062
62, 0, 0, 1316.370727539062
63, 0, 0, 1309.827026367188
64, 0, 0, 1293.51513671875
65, 0, 0, 1283.001220703125
66, 0, 0, 1269.417114257812
67, 0, 0, 1245.9150390625
68, 0, 0, 1245.062866210938
69, 0, 0, 1235.31396484375
70, 0, 0, 1218.7138671875
71, 0, 0, 1209.850708007812
72, 0, 0, 1204.844970703125
73, 0, 0, 1195.366088867188
74, 0, 0, 1178.734985351562
75, 0, 0, 1172.266479492188
76, 0, 0, 1164.211181640625
77, 0, 0, 1153.1708984375
78, 0, 0, 1146.484252929688
79, 0, 0, 1138.99169921875
80, 0, 0, 1132.899780273438
81, 0, 0, 1126.669067382812
82, 0, 0, 1114.307373046875
83, 0, 0, 1114.106567382812
84, 0, 0, 1105.805786132812
85, 0, 0, 1103.6943359375
86, 0, 0, 1087.718994140625
87, 0, 0, 1081.205078125
88, 0, 0, 1077.12548828125
89, 0, 0, 1070.009643554688
90, 0, 0, 1064.657470703125
91, 0, 0, 1056.51513671875
92, 0, 0, 1048.587768554688
93, 0, 0, 1049.618774414062
94, 0, 0, 1039.577270507812
95, 0, 0, 1038.38671875
96, 0, 0, 1028.955688476562
97, 0, 0, 1027.24169921875
98, 0, 0, 1014.318176269531
99, 0, 0, 1012.958190917969
100, 0, 0, 1005.668762207031
101, 0, 0, 1007.196044921875
102, 0, 0, 994.4512329101562
103, 0, 0, 998.5488891601562
104, 0, 0, 989.0806884765625
105, 0, 0, 982.633056640625
106, 0, 0, 974.0408325195312
107, 0, 0, 982.9231567382812
108, 0, 0, 969.9315185546875
109, 0, 0, 961.1993408203125
110, 0, 0, 961.71435546875
111, 0, 0, 954.080322265625
112, 0, 0, 955.1895751953125
113, 0, 0, 958.1382446289062
114, 0, 0, 944.7807006835938
115, 0, 0, 938.68017578125
116, 0, 0, 937.4192504882812
117, 0, 0, 940.9200439453125
118, 0, 0, 928.4777221679688
119, 0, 0, 920.296875
120, 0, 0, 921.227294921875
121, 0, 0, 917.6918334960938
122, 0, 0, 927.005859375
123, 0, 0, 912.122802734375
124, 0, 0, 907.893310546875
125, 0, 0, 904.997802734375
126, 0, 0, 898.6675415039062
127, 0, 0, 894.0524291992188
128, 0, 0, 900.3121948242188
129, 0, 0, 895.7125244140625
130, 0, 0, 888.1747436523438
131, 0, 0, 883.3411865234375
132, 0, 0, 883.3125
133, 0, 0, 875.0293579101562
134, 0, 0, 876.7639770507812
135, 0, 0, 873.8665161132812
136, 0, 0, 868.3267211914062
137, 0, 0, 865.0363159179688
138, 0, 0, 865.243408203125
139, 0, 0, 856.2254638671875
140, 0, 0, 863.6441040039062
141, 0, 0, 856.0425415039062
142, 0, 0, 858.8706665039062
143, 0, 0, 861.6050415039062
144, 0, 0, 852.3673095703125
145, 0, 0, 848.5895385742188
146, 0, 0, 846.3591918945312
147, 0, 0, 841.4204711914062
148, 0, 0, 835.572265625
149, 0, 0, 838.3732299804688
150, 0, 0, 833.7666015625
151, 0, 0, 835.2736206054688
152, 0, 0, 823.9371337890625
153, 0, 0, 823.9400024414062
154, 0, 0, 824.2717895507812
155, 0, 0, 824.2648315429688
156, 0, 0, 832.20556640625
157, 0, 0, 818.1477661132812
158, 0, 0, 811.959716796875
159, 0, 0, 819.523193359375
160, 0, 0, 816.241943359375
161, 0, 0, 804.8955688476562
162, 0, 0, 808.3450927734375
163, 0, 0, 801.9639282226562
164, 0, 0, 802.375732421875
165, 0, 0, 798.6604614257812
166, 0, 0, 797.9212646484375
167, 0, 0, 786.5774536132812
168, 0, 0, 792.4036254882812
169, 0, 0, 797.3445434570312
170, 0, 0, 788.4208984375
171, 0, 0, 784.7008666992188
172, 0, 0, 785.6558227539062
173, 0, 0, 781.7010498046875
174, 0, 0, 780.5249633789062
175, 0, 0, 772.2175903320312
176, 0, 0, 776.9908447265625
177, 0, 0, 771.5409545898438
178, 0, 0, 773.5135498046875
179, 0, 0, 773.809814453125
