# TOPAS Version: 3.3.p1
# Parameter File: Test.txt
# Results for scorer MLIC_Scorer
# Scored in component: MLIC
# X in 165 bins of 0.2 cm
# Y in 1 bin  of 10 cm
# Z in 1 bin  of 10 cm
# EnergyDeposit ( MeV ) : Sum   
0, 0, 0, 0
1, 0, 0, 0
2, 0, 0, 0
3, 0, 0, 0
4, 0, 0, 0
5, 0, 0, 0
6, 0, 0, 0
7, 0, 0, 0
8, 0, 0, 0
9, 0, 0, 0
10, 0, 0, 0
11, 0, 0, 0
12, 0, 0, 0
13, 0, 0, 0
14, 0, 0, 0
15, 0, 0, 0
16, 0, 0, 0
17, 0, 0, 0
18, 0, 0, 0
19, 0, 0, 0
20, 0, 0, 0
21, 0, 0, 0
22, 0, 0, 0
23, 0, 0, 0
24, 0, 0, 0
25, 0, 0, 0
26, 0, 0, 0
27, 0, 0, 0
28, 0, 0, 0
29, 0, 0, 0
30, 0, 0, 0
31, 0, 0, 0
32, 0, 0, 0
33, 0, 0, 0
34, 0, 0, 0
35, 0, 0, 0
36, 0, 0, 0
37, 0, 0, 0
38, 0, 0, 0
39, 0, 0, 0
40, 0, 0, 0
41, 0, 0, 0
42, 0, 0, 0
43, 0, 0, 0
44, 0, 0, 0
45, 0, 0, 0
46, 0, 0, 0
47, 0, 0, 0
48, 0, 0, 0
49, 0, 0, 0
50, 0, 0, 0
51, 0, 0, 0
52, 0, 0, 0
53, 0, 0, 0
54, 0, 0, 0
55, 0, 0, 0
56, 0, 0, 0.004051473923027515
57, 0, 0, 0
58, 0, 0, 0
59, 0, 0, 0
60, 0, 0, 0
61, 0, 0, 0
62, 0, 0, 0
63, 0, 0, 0
64, 0, 0, 0
65, 0, 0, 0
66, 0, 0, 0.04848304763436317
67, 0, 0, 0.02021480351686478
68, 0, 0, 0
69, 0, 0, 0
70, 0, 0, 21.67901611328125
71, 0, 0, 141.1509094238281
72, 0, 0, 595.9393310546875
73, 0, 0, 1409.064575195312
74, 0, 0, 3003.052490234375
75, 0, 0, 4417.572265625
76, 0, 0, 5334.82861328125
77, 0, 0, 5429.2216796875
78, 0, 0, 4874.10791015625
79, 0, 0, 4249.93701171875
80, 0, 0, 3764.277099609375
81, 0, 0, 3410.892333984375
82, 0, 0, 3137.401611328125
83, 0, 0, 2934.33642578125
84, 0, 0, 2777.5283203125
85, 0, 0, 2643.834716796875
86, 0, 0, 2526.30859375
87, 0, 0, 2425.250732421875
88, 0, 0, 2340.21337890625
89, 0, 0, 2259.583984375
90, 0, 0, 2193.52783203125
91, 0, 0, 2122.9248046875
92, 0, 0, 2071.843017578125
93, 0, 0, 2019.79443359375
94, 0, 0, 1974.932250976562
95, 0, 0, 1925.858276367188
96, 0, 0, 1900.8369140625
97, 0, 0, 1847.145385742188
98, 0, 0, 1815.298095703125
99, 0, 0, 1780.931640625
100, 0, 0, 1750.354125976562
101, 0, 0, 1723.10595703125
102, 0, 0, 1697.833862304688
103, 0, 0, 1670.968383789062
104, 0, 0, 1642.256591796875
105, 0, 0, 1627.854248046875
106, 0, 0, 1594.144409179688
107, 0, 0, 1570.880249023438
108, 0, 0, 1556.911743164062
109, 0, 0, 1528.572998046875
110, 0, 0, 1510.924072265625
111, 0, 0, 1497.865356445312
112, 0, 0, 1486.759765625
113, 0, 0, 1456.20263671875
114, 0, 0, 1442.406494140625
115, 0, 0, 1428.735107421875
116, 0, 0, 1425.352416992188
117, 0, 0, 1406.190795898438
118, 0, 0, 1394.264282226562
119, 0, 0, 1378.17236328125
120, 0, 0, 1360.293090820312
121, 0, 0, 1358.618041992188
122, 0, 0, 1339.959838867188
123, 0, 0, 1327.101196289062
124, 0, 0, 1311.054077148438
125, 0, 0, 1302.463745117188
126, 0, 0, 1293.80078125
127, 0, 0, 1285.209716796875
128, 0, 0, 1272.536865234375
129, 0, 0, 1259.473388671875
130, 0, 0, 1255.430053710938
131, 0, 0, 1241.192016601562
132, 0, 0, 1237.037841796875
133, 0, 0, 1218.443481445312
134, 0, 0, 1223.124389648438
135, 0, 0, 1208.510131835938
136, 0, 0, 1206.7001953125
137, 0, 0, 1189.25390625
138, 0, 0, 1182.264282226562
139, 0, 0, 1188.355834960938
140, 0, 0, 1172.418090820312
141, 0, 0, 1162.84130859375
142, 0, 0, 1157.382934570312
143, 0, 0, 1155.801513671875
144, 0, 0, 1156.525756835938
145, 0, 0, 1138.154052734375
146, 0, 0, 1137.185302734375
147, 0, 0, 1126.2216796875
148, 0, 0, 1122.76611328125
149, 0, 0, 1106.394409179688
150, 0, 0, 1109.820068359375
151, 0, 0, 1097.339111328125
152, 0, 0, 1094.003540039062
153, 0, 0, 1088.440673828125
154, 0, 0, 1084.311279296875
155, 0, 0, 1080.194702148438
156, 0, 0, 1083.2333984375
157, 0, 0, 1065.151000976562
158, 0, 0, 1063.859130859375
159, 0, 0, 1059.464477539062
160, 0, 0, 1054.967407226562
161, 0, 0, 1041.70947265625
162, 0, 0, 1041.005737304688
163, 0, 0, 1045.509155273438
164, 0, 0, 1029.935668945312
