# TOPAS Version: 3.3.p1
# Parameter File: Test.txt
# Results for scorer MLIC_Scorer
# Scored in component: MLIC
# X in 180 bins of 0.177778 cm
# Y in 1 bin  of 10 cm
# Z in 1 bin  of 10 cm
# EnergyDeposit ( MeV ) : Sum   
0, 0, 0, 0
1, 0, 0, 0
2, 0, 0, 0
3, 0, 0, 0
4, 0, 0, 0
5, 0, 0, 0
6, 0, 0, 0
7, 0, 0, 0
8, 0, 0, 0
9, 0, 0, 0
10, 0, 0, 0
11, 0, 0, 0
12, 0, 0, 0
13, 0, 0, 0
14, 0, 0, 0
15, 0, 0, 0
16, 0, 0, 0
17, 0, 0, 0
18, 0, 0, 0
19, 0, 0, 0
20, 0, 0, 0.0003063232870772481
21, 0, 0, 0
22, 0, 0, 0
23, 0, 0, 8.575148582458496
24, 0, 0, 137.16455078125
25, 0, 0, 469.0340576171875
26, 0, 0, 1284.993530273438
27, 0, 0, 2686.9990234375
28, 0, 0, 4154.31982421875
29, 0, 0, 4997.140625
30, 0, 0, 5059.509765625
31, 0, 0, 4654.24072265625
32, 0, 0, 4011.2666015625
33, 0, 0, 3547.34619140625
34, 0, 0, 3198.142333984375
35, 0, 0, 2942.360595703125
36, 0, 0, 2753.811279296875
37, 0, 0, 2603.45068359375
38, 0, 0, 2479.230224609375
39, 0, 0, 2364.064208984375
40, 0, 0, 2272.424560546875
41, 0, 0, 2189.01513671875
42, 0, 0, 2124.92431640625
43, 0, 0, 2058.687255859375
44, 0, 0, 1997.325439453125
45, 0, 0, 1942.715576171875
46, 0, 0, 1891.461669921875
47, 0, 0, 1852.157958984375
48, 0, 0, 1807.708618164062
49, 0, 0, 1765.096557617188
50, 0, 0, 1733.9091796875
51, 0, 0, 1696.974609375
52, 0, 0, 1668.364501953125
53, 0, 0, 1643.884033203125
54, 0, 0, 1601.421508789062
55, 0, 0, 1581.780029296875
56, 0, 0, 1553.135131835938
57, 0, 0, 1536.3310546875
58, 0, 0, 1511.4677734375
59, 0, 0, 1491.888671875
60, 0, 0, 1475.14990234375
61, 0, 0, 1454.247680664062
62, 0, 0, 1439.139770507812
63, 0, 0, 1419.424194335938
64, 0, 0, 1394.725708007812
65, 0, 0, 1382.79296875
66, 0, 0, 1364.722900390625
67, 0, 0, 1350.06787109375
68, 0, 0, 1339.4287109375
69, 0, 0, 1318.056396484375
70, 0, 0, 1310.873779296875
71, 0, 0, 1300.589599609375
72, 0, 0, 1282.113159179688
73, 0, 0, 1272.682250976562
74, 0, 0, 1263.234375
75, 0, 0, 1247.755004882812
76, 0, 0, 1246.828491210938
77, 0, 0, 1229.107788085938
78, 0, 0, 1217.898193359375
79, 0, 0, 1207.065307617188
80, 0, 0, 1197.583862304688
81, 0, 0, 1192.033935546875
82, 0, 0, 1189.153930664062
83, 0, 0, 1170.776123046875
84, 0, 0, 1159.025390625
85, 0, 0, 1156.837646484375
86, 0, 0, 1145.69140625
87, 0, 0, 1136.265502929688
88, 0, 0, 1127.286376953125
89, 0, 0, 1118.40087890625
90, 0, 0, 1114.510009765625
91, 0, 0, 1109.121337890625
92, 0, 0, 1099.324951171875
93, 0, 0, 1091.965698242188
94, 0, 0, 1091.003295898438
95, 0, 0, 1082.34716796875
96, 0, 0, 1076.609497070312
97, 0, 0, 1069.007202148438
98, 0, 0, 1062.695922851562
99, 0, 0, 1048.96337890625
100, 0, 0, 1050.34765625
101, 0, 0, 1046.92578125
102, 0, 0, 1041.626342773438
103, 0, 0, 1032.854736328125
104, 0, 0, 1025.691284179688
105, 0, 0, 1020.201843261719
106, 0, 0, 1013.52490234375
107, 0, 0, 1009.886596679688
108, 0, 0, 1004.302124023438
109, 0, 0, 994.5580444335938
110, 0, 0, 999.0819702148438
111, 0, 0, 989.30859375
112, 0, 0, 993.1356201171875
113, 0, 0, 977.9900512695312
114, 0, 0, 972.53759765625
115, 0, 0, 973.4541625976562
116, 0, 0, 969.0221557617188
117, 0, 0, 960.7135620117188
118, 0, 0, 968.7802734375
119, 0, 0, 954.583740234375
120, 0, 0, 954.3232421875
121, 0, 0, 948.9625244140625
122, 0, 0, 945.6849975585938
123, 0, 0, 941.5050048828125
124, 0, 0, 931.8222045898438
125, 0, 0, 924.7948608398438
126, 0, 0, 923.7903442382812
127, 0, 0, 920.1659545898438
128, 0, 0, 920.8401489257812
129, 0, 0, 919.3262939453125
130, 0, 0, 910.2390747070312
131, 0, 0, 906.6702880859375
132, 0, 0, 909.1825561523438
133, 0, 0, 902.8392944335938
134, 0, 0, 896.961669921875
135, 0, 0, 894.6557006835938
136, 0, 0, 889.3137817382812
137, 0, 0, 891.134033203125
138, 0, 0, 882.4146728515625
139, 0, 0, 883.6669921875
140, 0, 0, 885.0376586914062
141, 0, 0, 880.9099731445312
142, 0, 0, 873.9187622070312
143, 0, 0, 863.7562866210938
144, 0, 0, 864.333251953125
145, 0, 0, 875.4309692382812
146, 0, 0, 861.217041015625
147, 0, 0, 864.4993286132812
148, 0, 0, 858.0746459960938
149, 0, 0, 852.419677734375
150, 0, 0, 856.9249877929688
151, 0, 0, 843.5695190429688
152, 0, 0, 850.9754638671875
153, 0, 0, 844.7720947265625
154, 0, 0, 846.04150390625
155, 0, 0, 840.880126953125
156, 0, 0, 833.71337890625
157, 0, 0, 839.7144775390625
158, 0, 0, 826.8619995117188
159, 0, 0, 828.1051635742188
160, 0, 0, 827.6886596679688
161, 0, 0, 822.6204833984375
162, 0, 0, 822.260498046875
163, 0, 0, 816.00244140625
164, 0, 0, 820.2959594726562
165, 0, 0, 818.4794311523438
166, 0, 0, 815.2423706054688
167, 0, 0, 816.6087646484375
168, 0, 0, 809.2252197265625
169, 0, 0, 803.1649780273438
170, 0, 0, 805.794677734375
171, 0, 0, 796.44775390625
172, 0, 0, 803.7763671875
173, 0, 0, 797.0224609375
174, 0, 0, 798.2168579101562
175, 0, 0, 790.3497924804688
176, 0, 0, 794.4268188476562
177, 0, 0, 782.19482421875
178, 0, 0, 788.7166137695312
179, 0, 0, 782.1882934570312
