# TOPAS Version: 3.3.p1
# Parameter File: Test.txt
# Results for scorer MLIC_Scorer
# Scored in component: MLIC
# X in 180 bins of 0.183333 cm
# Y in 1 bin  of 10 cm
# Z in 1 bin  of 10 cm
# EnergyDeposit ( MeV ) : Sum   
0, 0, 0, 0
1, 0, 0, 0
2, 0, 0, 0
3, 0, 0, 0
4, 0, 0, 0
5, 0, 0, 0
6, 0, 0, 0
7, 0, 0, 0
8, 0, 0, 0
9, 0, 0, 0
10, 0, 0, 0
11, 0, 0, 0
12, 0, 0, 0
13, 0, 0, 0
14, 0, 0, 0
15, 0, 0, 0
16, 0, 0, 0
17, 0, 0, 0
18, 0, 0, 0
19, 0, 0, 0
20, 0, 0, 0
21, 0, 0, 0
22, 0, 0, 0
23, 0, 0, 0
24, 0, 0, 0
25, 0, 0, 0
26, 0, 0, 0
27, 0, 0, 0
28, 0, 0, 0
29, 0, 0, 0
30, 0, 0, 0
31, 0, 0, 0
32, 0, 0, 0
33, 0, 0, 0
34, 0, 0, 0
35, 0, 0, 0
36, 0, 0, 0
37, 0, 0, 0
38, 0, 0, 0
39, 0, 0, 0
40, 0, 0, 0
41, 0, 0, 0.03677503764629364
42, 0, 0, 0
43, 0, 0, 0
44, 0, 0, 0.001184497028589249
45, 0, 0, 0
46, 0, 0, 0
47, 0, 0, 0
48, 0, 0, 0
49, 0, 0, 0
50, 0, 0, 0
51, 0, 0, 0
52, 0, 0, 0
53, 0, 0, 0
54, 0, 0, 0
55, 0, 0, 0
56, 0, 0, 0
57, 0, 0, 0
58, 0, 0, 0
59, 0, 0, 0
60, 0, 0, 0
61, 0, 0, 0
62, 0, 0, 0
63, 0, 0, 0
64, 0, 0, 0
65, 0, 0, 0
66, 0, 0, 0
67, 0, 0, 0
68, 0, 0, 0
69, 0, 0, 12.08873176574707
70, 0, 0, 83.31486511230469
71, 0, 0, 417.6360168457031
72, 0, 0, 1218.852294921875
73, 0, 0, 2313.45263671875
74, 0, 0, 3579.400634765625
75, 0, 0, 4717.37451171875
76, 0, 0, 5226.6357421875
77, 0, 0, 4940.626953125
78, 0, 0, 4272.880859375
79, 0, 0, 3710.7236328125
80, 0, 0, 3336.146728515625
81, 0, 0, 3089.511474609375
82, 0, 0, 2853.048095703125
83, 0, 0, 2696.979248046875
84, 0, 0, 2555.22509765625
85, 0, 0, 2434.964111328125
86, 0, 0, 2338.6015625
87, 0, 0, 2254.681884765625
88, 0, 0, 2174.5244140625
89, 0, 0, 2111.027587890625
90, 0, 0, 2046.284545898438
91, 0, 0, 1991.759521484375
92, 0, 0, 1946.630615234375
93, 0, 0, 1893.7783203125
94, 0, 0, 1848.649169921875
95, 0, 0, 1808.258056640625
96, 0, 0, 1770.392211914062
97, 0, 0, 1739.480590820312
98, 0, 0, 1704.792236328125
99, 0, 0, 1672.974487304688
100, 0, 0, 1644.597045898438
101, 0, 0, 1620.742919921875
102, 0, 0, 1590.670043945312
103, 0, 0, 1568.263061523438
104, 0, 0, 1549.382568359375
105, 0, 0, 1527.204223632812
106, 0, 0, 1506.415405273438
107, 0, 0, 1486.97119140625
108, 0, 0, 1468.157470703125
109, 0, 0, 1450.400268554688
110, 0, 0, 1431.597045898438
111, 0, 0, 1412.655151367188
112, 0, 0, 1401.479248046875
113, 0, 0, 1376.155029296875
114, 0, 0, 1367.408203125
115, 0, 0, 1354.151000976562
116, 0, 0, 1342.091064453125
117, 0, 0, 1326.03515625
118, 0, 0, 1301.915893554688
119, 0, 0, 1295.296020507812
120, 0, 0, 1295.178100585938
121, 0, 0, 1282.66064453125
122, 0, 0, 1266.745483398438
123, 0, 0, 1256.236450195312
124, 0, 0, 1243.015502929688
125, 0, 0, 1235.888671875
126, 0, 0, 1223.803588867188
127, 0, 0, 1214.38916015625
128, 0, 0, 1208.6474609375
129, 0, 0, 1197.407470703125
130, 0, 0, 1192.493896484375
131, 0, 0, 1169.642211914062
132, 0, 0, 1165.71533203125
133, 0, 0, 1161.189575195312
134, 0, 0, 1149.82421875
135, 0, 0, 1149.126708984375
136, 0, 0, 1139.676391601562
137, 0, 0, 1128.683471679688
138, 0, 0, 1124.261962890625
139, 0, 0, 1114.114013671875
140, 0, 0, 1107.423706054688
141, 0, 0, 1100.618896484375
142, 0, 0, 1091.932983398438
143, 0, 0, 1096.404174804688
144, 0, 0, 1085.928100585938
145, 0, 0, 1077.76904296875
146, 0, 0, 1069.4189453125
147, 0, 0, 1063.489379882812
148, 0, 0, 1061.173461914062
149, 0, 0, 1052.072998046875
150, 0, 0, 1045.559936523438
151, 0, 0, 1039.704711914062
152, 0, 0, 1032.669799804688
153, 0, 0, 1025.969116210938
154, 0, 0, 1028.24365234375
155, 0, 0, 1018.968505859375
156, 0, 0, 1016.724609375
157, 0, 0, 1011.822204589844
158, 0, 0, 1010.543029785156
159, 0, 0, 999.1785888671875
160, 0, 0, 999.7479858398438
161, 0, 0, 992.6089477539062
162, 0, 0, 989.9481811523438
163, 0, 0, 981.3828735351562
164, 0, 0, 982.9591674804688
165, 0, 0, 967.624755859375
166, 0, 0, 970.2738037109375
167, 0, 0, 971.8975219726562
168, 0, 0, 959.3759155273438
169, 0, 0, 963.9075927734375
170, 0, 0, 953.1128540039062
171, 0, 0, 948.8533325195312
172, 0, 0, 943.592529296875
173, 0, 0, 944.1546630859375
174, 0, 0, 939.559326171875
175, 0, 0, 938.08056640625
176, 0, 0, 924.038330078125
177, 0, 0, 932.103515625
178, 0, 0, 921.8119506835938
179, 0, 0, 923.3997802734375
