# TOPAS Version: 3.3.p1
# Parameter File: Test.txt
# Results for scorer MLIC_Scorer
# Scored in component: MLIC
# X in 180 bins of 0.177778 cm
# Y in 1 bin  of 10 cm
# Z in 1 bin  of 10 cm
# EnergyDeposit ( MeV ) : Sum   
0, 0, 0, 0
1, 0, 0, 0
2, 0, 0, 0
3, 0, 0, 0
4, 0, 0, 0
5, 0, 0, 0
6, 0, 0, 0
7, 0, 0, 0
8, 0, 0, 0
9, 0, 0, 0
10, 0, 0, 0
11, 0, 0, 0
12, 0, 0, 0
13, 0, 0, 0
14, 0, 0, 0
15, 0, 0, 0
16, 0, 0, 0
17, 0, 0, 0
18, 0, 0, 0
19, 0, 0, 0
20, 0, 0, 0
21, 0, 0, 0
22, 0, 0, 0
23, 0, 0, 0
24, 0, 0, 0
25, 0, 0, 0
26, 0, 0, 0
27, 0, 0, 0
28, 0, 0, 0
29, 0, 0, 0
30, 0, 0, 0
31, 0, 0, 0
32, 0, 0, 0
33, 0, 0, 0
34, 0, 0, 0
35, 0, 0, 0
36, 0, 0, 0
37, 0, 0, 0
38, 0, 0, 0
39, 0, 0, 0
40, 0, 0, 0
41, 0, 0, 0
42, 0, 0, 0
43, 0, 0, 0
44, 0, 0, 0
45, 0, 0, 0
46, 0, 0, 0
47, 0, 0, 0
48, 0, 0, 0
49, 0, 0, 0
50, 0, 0, 0
51, 0, 0, 0
52, 0, 0, 0
53, 0, 0, 0
54, 0, 0, 0
55, 0, 0, 0
56, 0, 0, 0
57, 0, 0, 0
58, 0, 0, 0
59, 0, 0, 0
60, 0, 0, 0
61, 0, 0, 0
62, 0, 0, 0
63, 0, 0, 0
64, 0, 0, 0
65, 0, 0, 0
66, 0, 0, 0
67, 0, 0, 0
68, 0, 0, 0
69, 0, 0, 0
70, 0, 0, 0
71, 0, 0, 0
72, 0, 0, 0
73, 0, 0, 0
74, 0, 0, 0
75, 0, 0, 0
76, 0, 0, 0
77, 0, 0, 0
78, 0, 0, 0
79, 0, 0, 0
80, 0, 0, 0
81, 0, 0, 0
82, 0, 0, 0
83, 0, 0, 0
84, 0, 0, 0
85, 0, 0, 0
86, 0, 0, 0
87, 0, 0, 0
88, 0, 0, 0
89, 0, 0, 0
90, 0, 0, 0
91, 0, 0, 0
92, 0, 0, 0
93, 0, 0, 0
94, 0, 0, 0
95, 0, 0, 0
96, 0, 0, 0
97, 0, 0, 0
98, 0, 0, 16.92132377624512
99, 0, 0, 53.5550651550293
100, 0, 0, 120.7824401855469
101, 0, 0, 215.1695251464844
102, 0, 0, 333.1898803710938
103, 0, 0, 383.4953002929688
104, 0, 0, 392.9141540527344
105, 0, 0, 339.2342224121094
106, 0, 0, 311.3953247070312
107, 0, 0, 277.4825439453125
108, 0, 0, 248.8370056152344
109, 0, 0, 228.5084838867188
110, 0, 0, 213.030517578125
111, 0, 0, 203.5347290039062
112, 0, 0, 191.8064270019531
113, 0, 0, 184.8452606201172
114, 0, 0, 178.2194519042969
115, 0, 0, 169.0817108154297
116, 0, 0, 167.9422302246094
117, 0, 0, 159.1021575927734
118, 0, 0, 153.0052337646484
119, 0, 0, 151.9724731445312
120, 0, 0, 146.5451812744141
121, 0, 0, 142.7311096191406
122, 0, 0, 140.2633819580078
123, 0, 0, 137.83837890625
124, 0, 0, 132.6429595947266
125, 0, 0, 131.7441864013672
126, 0, 0, 130.2571716308594
127, 0, 0, 129.4926910400391
128, 0, 0, 125.7050476074219
129, 0, 0, 124.9570541381836
130, 0, 0, 120.1482772827148
131, 0, 0, 120.6365280151367
132, 0, 0, 117.9741363525391
133, 0, 0, 114.9819793701172
134, 0, 0, 112.7581329345703
135, 0, 0, 114.1783828735352
136, 0, 0, 112.6088562011719
137, 0, 0, 111.7435302734375
138, 0, 0, 108.5684509277344
139, 0, 0, 110.3563690185547
140, 0, 0, 105.8906631469727
141, 0, 0, 103.3984451293945
142, 0, 0, 106.5410690307617
143, 0, 0, 104.3058624267578
144, 0, 0, 101.4552993774414
145, 0, 0, 100.6239318847656
146, 0, 0, 99.98001861572266
147, 0, 0, 97.71199035644531
148, 0, 0, 97.4595947265625
149, 0, 0, 96.52535247802734
150, 0, 0, 96.37311553955078
151, 0, 0, 94.71617889404297
152, 0, 0, 94.8629150390625
153, 0, 0, 93.20528411865234
154, 0, 0, 93.65725708007812
155, 0, 0, 91.9249267578125
156, 0, 0, 92.27344512939453
157, 0, 0, 90.97006988525391
158, 0, 0, 92.09506225585938
159, 0, 0, 89.36842346191406
160, 0, 0, 88.81329345703125
161, 0, 0, 86.58688354492188
162, 0, 0, 88.26567077636719
163, 0, 0, 86.30328369140625
164, 0, 0, 86.79066467285156
165, 0, 0, 85.49948120117188
166, 0, 0, 84.984619140625
167, 0, 0, 85.08369445800781
168, 0, 0, 85.50527191162109
169, 0, 0, 82.24600219726562
170, 0, 0, 83.86341857910156
171, 0, 0, 82.86036682128906
172, 0, 0, 81.92855072021484
173, 0, 0, 81.67035675048828
174, 0, 0, 80.6224365234375
175, 0, 0, 81.32965850830078
176, 0, 0, 82.67884826660156
177, 0, 0, 81.30726623535156
178, 0, 0, 79.48897552490234
179, 0, 0, 80.74659729003906
