# TOPAS Version: 3.3.p1
# Parameter File: Test.txt
# Results for scorer MLIC_Scorer
# Scored in component: MLIC
# X in 180 bins of 0.177778 cm
# Y in 1 bin  of 10 cm
# Z in 1 bin  of 10 cm
# EnergyDeposit ( MeV ) : Sum   
0, 0, 0, 0
1, 0, 0, 0
2, 0, 0, 0
3, 0, 0, 0
4, 0, 0, 0
5, 0, 0, 0
6, 0, 0, 0
7, 0, 0, 0
8, 0, 0, 0
9, 0, 0, 0
10, 0, 0, 0
11, 0, 0, 0
12, 0, 0, 0
13, 0, 0, 0
14, 0, 0, 0
15, 0, 0, 0
16, 0, 0, 0
17, 0, 0, 0
18, 0, 0, 0
19, 0, 0, 0
20, 0, 0, 0
21, 0, 0, 0
22, 0, 0, 0
23, 0, 0, 0
24, 0, 0, 0
25, 0, 0, 0
26, 0, 0, 0
27, 0, 0, 0
28, 0, 0, 0
29, 0, 0, 0
30, 0, 0, 0
31, 0, 0, 0
32, 0, 0, 0
33, 0, 0, 0
34, 0, 0, 0
35, 0, 0, 0
36, 0, 0, 0
37, 0, 0, 0
38, 0, 0, 0
39, 0, 0, 0
40, 0, 0, 0
41, 0, 0, 0
42, 0, 0, 0
43, 0, 0, 0
44, 0, 0, 0
45, 0, 0, 0
46, 0, 0, 0
47, 0, 0, 0
48, 0, 0, 0
49, 0, 0, 0
50, 0, 0, 0
51, 0, 0, 0
52, 0, 0, 0
53, 0, 0, 0
54, 0, 0, 0
55, 0, 0, 0
56, 0, 0, 0
57, 0, 0, 0
58, 0, 0, 0
59, 0, 0, 0
60, 0, 0, 0
61, 0, 0, 0
62, 0, 0, 0
63, 0, 0, 0
64, 0, 0, 0
65, 0, 0, 0
66, 0, 0, 0
67, 0, 0, 0
68, 0, 0, 0
69, 0, 0, 0
70, 0, 0, 0
71, 0, 0, 0
72, 0, 0, 0
73, 0, 0, 0
74, 0, 0, 0
75, 0, 0, 0
76, 0, 0, 0
77, 0, 0, 0
78, 0, 0, 0
79, 0, 0, 0
80, 0, 0, 0
81, 0, 0, 0
82, 0, 0, 0
83, 0, 0, 0
84, 0, 0, 0
85, 0, 0, 0
86, 0, 0, 0
87, 0, 0, 0
88, 0, 0, 0
89, 0, 0, 0
90, 0, 0, 0
91, 0, 0, 0
92, 0, 0, 0
93, 0, 0, 0
94, 0, 0, 0
95, 0, 0, 0
96, 0, 0, 0
97, 0, 0, 0
98, 0, 0, 0
99, 0, 0, 0
100, 0, 0, 0
101, 0, 0, 0
102, 0, 0, 0
103, 0, 0, 0
104, 0, 0, 0
105, 0, 0, 0
106, 0, 0, 0
107, 0, 0, 0
108, 0, 0, 0
109, 0, 0, 0
110, 0, 0, 0
111, 0, 0, 0
112, 0, 0, 0
113, 0, 0, 0
114, 0, 0, 0
115, 0, 0, 0
116, 0, 0, 0
117, 0, 0, 0
118, 0, 0, 0
119, 0, 0, 0
120, 0, 0, 0
121, 0, 0, 0
122, 0, 0, 0
123, 0, 0, 6.523600101470947
124, 0, 0, 33.46496200561523
125, 0, 0, 89.47281646728516
126, 0, 0, 226.9984130859375
127, 0, 0, 332.2388610839844
128, 0, 0, 409.796630859375
129, 0, 0, 356.1993408203125
130, 0, 0, 365.4631958007812
131, 0, 0, 312.1964111328125
132, 0, 0, 284.2620544433594
133, 0, 0, 260.4497375488281
134, 0, 0, 237.0557861328125
135, 0, 0, 219.3309326171875
136, 0, 0, 205.87939453125
137, 0, 0, 196.7160034179688
138, 0, 0, 187.4697875976562
139, 0, 0, 181.621337890625
140, 0, 0, 174.6105194091797
141, 0, 0, 168.1795501708984
142, 0, 0, 162.8392028808594
143, 0, 0, 159.2053680419922
144, 0, 0, 152.64453125
145, 0, 0, 151.3070373535156
146, 0, 0, 146.2372589111328
147, 0, 0, 142.7566680908203
148, 0, 0, 140.5687103271484
149, 0, 0, 137.0671691894531
150, 0, 0, 136.7644653320312
151, 0, 0, 133.6364593505859
152, 0, 0, 129.1980133056641
153, 0, 0, 127.6997680664062
154, 0, 0, 123.9559631347656
155, 0, 0, 122.4988174438477
156, 0, 0, 120.3245697021484
157, 0, 0, 119.5829696655273
158, 0, 0, 119.1840591430664
159, 0, 0, 117.9667358398438
160, 0, 0, 114.4109420776367
161, 0, 0, 111.4023590087891
162, 0, 0, 112.6377334594727
163, 0, 0, 110.3263778686523
164, 0, 0, 112.3379821777344
165, 0, 0, 107.3553619384766
166, 0, 0, 104.9471893310547
167, 0, 0, 105.5995559692383
168, 0, 0, 105.7348175048828
169, 0, 0, 104.7491073608398
170, 0, 0, 101.989013671875
171, 0, 0, 102.751579284668
172, 0, 0, 100.6004028320312
173, 0, 0, 99.95925903320312
174, 0, 0, 99.02009582519531
175, 0, 0, 98.56532287597656
176, 0, 0, 98.17658996582031
177, 0, 0, 95.57708740234375
178, 0, 0, 95.25852203369141
179, 0, 0, 95.91957092285156
