# TOPAS Version: 3.3.p1
# Parameter File: Test.txt
# Results for scorer MLIC_Scorer
# Scored in component: MLIC
# X in 180 bins of 0.177778 cm
# Y in 1 bin  of 10 cm
# Z in 1 bin  of 10 cm
# EnergyDeposit ( MeV ) : Sum   
0, 0, 0, 0
1, 0, 0, 0
2, 0, 0, 0
3, 0, 0, 0
4, 0, 0, 0
5, 0, 0, 0
6, 0, 0, 0
7, 0, 0, 0
8, 0, 0, 0
9, 0, 0, 0
10, 0, 0, 0
11, 0, 0, 0
12, 0, 0, 0
13, 0, 0, 0
14, 0, 0, 0
15, 0, 0, 0
16, 0, 0, 0
17, 0, 0, 0
18, 0, 0, 0
19, 0, 0, 0
20, 0, 0, 0
21, 0, 0, 0
22, 0, 0, 0
23, 0, 0, 0
24, 0, 0, 0
25, 0, 0, 0
26, 0, 0, 0
27, 0, 0, 0
28, 0, 0, 0
29, 0, 0, 0
30, 0, 0, 0
31, 0, 0, 0
32, 0, 0, 0
33, 0, 0, 0
34, 0, 0, 0
35, 0, 0, 0
36, 0, 0, 0
37, 0, 0, 0
38, 0, 0, 0
39, 0, 0, 0
40, 0, 0, 0
41, 0, 0, 0
42, 0, 0, 0
43, 0, 0, 0
44, 0, 0, 0
45, 0, 0, 0
46, 0, 0, 0
47, 0, 0, 0
48, 0, 0, 0
49, 0, 0, 0
50, 0, 0, 0
51, 0, 0, 0
52, 0, 0, 0
53, 0, 0, 0
54, 0, 0, 0
55, 0, 0, 0
56, 0, 0, 0
57, 0, 0, 0
58, 0, 0, 0
59, 0, 0, 0
60, 0, 0, 0
61, 0, 0, 0
62, 0, 0, 0
63, 0, 0, 0
64, 0, 0, 0
65, 0, 0, 0
66, 0, 0, 0
67, 0, 0, 0
68, 0, 0, 0
69, 0, 0, 0
70, 0, 0, 0
71, 0, 0, 0
72, 0, 0, 0
73, 0, 0, 0
74, 0, 0, 0
75, 0, 0, 0
76, 0, 0, 0
77, 0, 0, 0
78, 0, 0, 0
79, 0, 0, 0
80, 0, 0, 0
81, 0, 0, 0
82, 0, 0, 0
83, 0, 0, 0
84, 0, 0, 0
85, 0, 0, 0
86, 0, 0, 0
87, 0, 0, 0
88, 0, 0, 0
89, 0, 0, 0
90, 0, 0, 0
91, 0, 0, 0
92, 0, 0, 0
93, 0, 0, 0
94, 0, 0, 0
95, 0, 0, 0
96, 0, 0, 0
97, 0, 0, 0
98, 0, 0, 0
99, 0, 0, 0
100, 0, 0, 0
101, 0, 0, 0.01541281398385763
102, 0, 0, 0
103, 0, 0, 0
104, 0, 0, 0
105, 0, 0, 0
106, 0, 0, 0
107, 0, 0, 0
108, 0, 0, 0
109, 0, 0, 0
110, 0, 0, 0
111, 0, 0, 0
112, 0, 0, 0
113, 0, 0, 0
114, 0, 0, 0
115, 0, 0, 0
116, 0, 0, 0.04494132101535797
117, 0, 0, 0
118, 0, 0, 0
119, 0, 0, 0
120, 0, 0, 11.83243083953857
121, 0, 0, 27.90507316589355
122, 0, 0, 224.5312805175781
123, 0, 0, 767.1195678710938
124, 0, 0, 1899.261596679688
125, 0, 0, 3416.0771484375
126, 0, 0, 4531.818359375
127, 0, 0, 5059.18505859375
128, 0, 0, 4905.8408203125
129, 0, 0, 4270.56884765625
130, 0, 0, 3792.408935546875
131, 0, 0, 3409.71337890625
132, 0, 0, 3095.12548828125
133, 0, 0, 2865.818603515625
134, 0, 0, 2688.4052734375
135, 0, 0, 2547.2158203125
136, 0, 0, 2427.248291015625
137, 0, 0, 2323.486083984375
138, 0, 0, 2236.45556640625
139, 0, 0, 2157.188232421875
140, 0, 0, 2092.3330078125
141, 0, 0, 2029.598754882812
142, 0, 0, 1974.215454101562
143, 0, 0, 1916.312622070312
144, 0, 0, 1868.500122070312
145, 0, 0, 1826.8662109375
146, 0, 0, 1792.30908203125
147, 0, 0, 1751.667724609375
148, 0, 0, 1714.588500976562
149, 0, 0, 1683.045654296875
150, 0, 0, 1651.735107421875
151, 0, 0, 1627.890991210938
152, 0, 0, 1594.130859375
153, 0, 0, 1581.250854492188
154, 0, 0, 1546.415771484375
155, 0, 0, 1522.941284179688
156, 0, 0, 1501.832641601562
157, 0, 0, 1489.072143554688
158, 0, 0, 1467.35986328125
159, 0, 0, 1447.616577148438
160, 0, 0, 1425.852661132812
161, 0, 0, 1409.3837890625
162, 0, 0, 1394.35302734375
163, 0, 0, 1377.766723632812
164, 0, 0, 1362.3505859375
165, 0, 0, 1339.928833007812
166, 0, 0, 1334.759887695312
167, 0, 0, 1315.552978515625
168, 0, 0, 1299.661743164062
169, 0, 0, 1300.158203125
170, 0, 0, 1280.947875976562
171, 0, 0, 1271.330078125
172, 0, 0, 1260.452392578125
173, 0, 0, 1236.20947265625
174, 0, 0, 1232.630493164062
175, 0, 0, 1219.016235351562
176, 0, 0, 1216.40283203125
177, 0, 0, 1207.324584960938
178, 0, 0, 1205.74462890625
179, 0, 0, 1186.73193359375
