# TOPAS Version: 3.3.p1
# Parameter File: Test.txt
# Results for scorer MLIC_Scorer
# Scored in component: MLIC
# X in 180 bins of 0.183333 cm
# Y in 1 bin  of 10 cm
# Z in 1 bin  of 10 cm
# EnergyDeposit ( MeV ) : Sum   
0, 0, 0, 0
1, 0, 0, 0
2, 0, 0, 0
3, 0, 0, 0
4, 0, 0, 0
5, 0, 0, 0
6, 0, 0, 0
7, 0, 0, 0
8, 0, 0, 0
9, 0, 0, 0
10, 0, 0, 0
11, 0, 0, 0
12, 0, 0, 0
13, 0, 0, 0
14, 0, 0, 0
15, 0, 0, 0
16, 0, 0, 0
17, 0, 0, 0
18, 0, 0, 0
19, 0, 0, 0
20, 0, 0, 0
21, 0, 0, 0
22, 0, 0, 0
23, 0, 0, 0
24, 0, 0, 0
25, 0, 0, 0
26, 0, 0, 0
27, 0, 0, 0
28, 0, 0, 0
29, 0, 0, 0
30, 0, 0, 0
31, 0, 0, 0
32, 0, 0, 0
33, 0, 0, 0
34, 0, 0, 0
35, 0, 0, 0
36, 0, 0, 0
37, 0, 0, 0
38, 0, 0, 0
39, 0, 0, 0
40, 0, 0, 0
41, 0, 0, 0
42, 0, 0, 0
43, 0, 0, 0
44, 0, 0, 0
45, 0, 0, 0
46, 0, 0, 0
47, 0, 0, 0
48, 0, 0, 0
49, 0, 0, 0
50, 0, 0, 0
51, 0, 0, 0
52, 0, 0, 0
53, 0, 0, 0
54, 0, 0, 0
55, 0, 0, 0
56, 0, 0, 0
57, 0, 0, 0
58, 0, 0, 0
59, 0, 0, 0
60, 0, 0, 0
61, 0, 0, 0
62, 0, 0, 0
63, 0, 0, 0
64, 0, 0, 0
65, 0, 0, 0.01250243000686169
66, 0, 0, 0
67, 0, 0, 0
68, 0, 0, 0
69, 0, 0, 0
70, 0, 0, 0
71, 0, 0, 0
72, 0, 0, 0
73, 0, 0, 0
74, 0, 0, 0
75, 0, 0, 0.01198490429669619
76, 0, 0, 0
77, 0, 0, 12.40440082550049
78, 0, 0, 17.59891700744629
79, 0, 0, 95.80525207519531
80, 0, 0, 435.8886108398438
81, 0, 0, 1307.634033203125
82, 0, 0, 2562.859619140625
83, 0, 0, 4261.43408203125
84, 0, 0, 5191.85791015625
85, 0, 0, 5150.79541015625
86, 0, 0, 4680.3837890625
87, 0, 0, 4101.1962890625
88, 0, 0, 3592.696044921875
89, 0, 0, 3266.79638671875
90, 0, 0, 3006.134033203125
91, 0, 0, 2813.944091796875
92, 0, 0, 2657.119873046875
93, 0, 0, 2532.9423828125
94, 0, 0, 2408.019775390625
95, 0, 0, 2316.386474609375
96, 0, 0, 2227.603271484375
97, 0, 0, 2155.197998046875
98, 0, 0, 2087.233154296875
99, 0, 0, 2029.866943359375
100, 0, 0, 1974.767211914062
101, 0, 0, 1935.939086914062
102, 0, 0, 1886.772583007812
103, 0, 0, 1837.962036132812
104, 0, 0, 1795.921264648438
105, 0, 0, 1758.828125
106, 0, 0, 1731.659790039062
107, 0, 0, 1705.330444335938
108, 0, 0, 1676.470947265625
109, 0, 0, 1638.1943359375
110, 0, 0, 1613.914428710938
111, 0, 0, 1575.024291992188
112, 0, 0, 1562.97314453125
113, 0, 0, 1538.271728515625
114, 0, 0, 1521.118774414062
115, 0, 0, 1497.427490234375
116, 0, 0, 1479.351440429688
117, 0, 0, 1459.527221679688
118, 0, 0, 1446.371948242188
119, 0, 0, 1424.718017578125
120, 0, 0, 1408.761962890625
121, 0, 0, 1392.14501953125
122, 0, 0, 1381.190063476562
123, 0, 0, 1363.06396484375
124, 0, 0, 1355.033203125
125, 0, 0, 1338.123168945312
126, 0, 0, 1326.247680664062
127, 0, 0, 1305.483032226562
128, 0, 0, 1301.110961914062
129, 0, 0, 1276.785400390625
130, 0, 0, 1263.883911132812
131, 0, 0, 1263.797729492188
132, 0, 0, 1253.68359375
133, 0, 0, 1244.014038085938
134, 0, 0, 1228.636596679688
135, 0, 0, 1218.767944335938
136, 0, 0, 1214.922607421875
137, 0, 0, 1199.981811523438
138, 0, 0, 1195.006469726562
139, 0, 0, 1181.130493164062
140, 0, 0, 1172.728637695312
141, 0, 0, 1164.414794921875
142, 0, 0, 1156.7939453125
143, 0, 0, 1145.292114257812
144, 0, 0, 1141.163818359375
145, 0, 0, 1132.9326171875
146, 0, 0, 1133.264892578125
147, 0, 0, 1113.329223632812
148, 0, 0, 1114.143920898438
149, 0, 0, 1107.704467773438
150, 0, 0, 1097.6123046875
151, 0, 0, 1094.780151367188
152, 0, 0, 1085.959594726562
153, 0, 0, 1079.89306640625
154, 0, 0, 1070.129028320312
155, 0, 0, 1068.6787109375
156, 0, 0, 1055.243041992188
157, 0, 0, 1052.136840820312
158, 0, 0, 1065.440795898438
159, 0, 0, 1049.120849609375
160, 0, 0, 1042.34423828125
161, 0, 0, 1043.136108398438
162, 0, 0, 1032.09423828125
163, 0, 0, 1029.627685546875
164, 0, 0, 1020.312622070312
165, 0, 0, 1018.300476074219
166, 0, 0, 1014.318664550781
167, 0, 0, 1007.739685058594
168, 0, 0, 988.8970336914062
169, 0, 0, 999.8416137695312
170, 0, 0, 987.6481323242188
171, 0, 0, 983.1830444335938
172, 0, 0, 982.6509399414062
173, 0, 0, 981.57958984375
174, 0, 0, 976.70556640625
175, 0, 0, 968.6229858398438
176, 0, 0, 965.0941772460938
177, 0, 0, 963.600341796875
178, 0, 0, 956.3514404296875
179, 0, 0, 960.90966796875
