# TOPAS Version: 3.3.p1
# Parameter File: Test.txt
# Results for scorer MLIC_Scorer
# Scored in component: MLIC
# X in 180 bins of 0.177778 cm
# Y in 1 bin  of 10 cm
# Z in 1 bin  of 10 cm
# EnergyDeposit ( MeV ) : Sum   
0, 0, 0, 0
1, 0, 0, 0
2, 0, 0, 0
3, 0, 0, 0
4, 0, 0, 0
5, 0, 0, 0
6, 0, 0, 0
7, 0, 0, 0
8, 0, 0, 0
9, 0, 0, 0
10, 0, 0, 0
11, 0, 0, 0
12, 0, 0, 0
13, 0, 0, 0
14, 0, 0, 0
15, 0, 0, 0
16, 0, 0, 0
17, 0, 0, 0
18, 0, 0, 0
19, 0, 0, 0
20, 0, 0, 0
21, 0, 0, 0
22, 0, 0, 0
23, 0, 0, 0
24, 0, 0, 0
25, 0, 0, 0
26, 0, 0, 0
27, 0, 0, 0
28, 0, 0, 0
29, 0, 0, 0
30, 0, 0, 0
31, 0, 0, 0
32, 0, 0, 0
33, 0, 0, 0
34, 0, 0, 0
35, 0, 0, 0
36, 0, 0, 0
37, 0, 0, 0
38, 0, 0, 0
39, 0, 0, 0
40, 0, 0, 0
41, 0, 0, 0
42, 0, 0, 0
43, 0, 0, 0
44, 0, 0, 0
45, 0, 0, 0
46, 0, 0, 0
47, 0, 0, 0
48, 0, 0, 0
49, 0, 0, 0
50, 0, 0, 0
51, 0, 0, 0
52, 0, 0, 0
53, 0, 0, 0
54, 0, 0, 0
55, 0, 0, 0
56, 0, 0, 0
57, 0, 0, 0
58, 0, 0, 0
59, 0, 0, 0
60, 0, 0, 0
61, 0, 0, 0
62, 0, 0, 0
63, 0, 0, 0
64, 0, 0, 0
65, 0, 0, 0
66, 0, 0, 0
67, 0, 0, 0
68, 0, 0, 0
69, 0, 0, 0
70, 0, 0, 0
71, 0, 0, 0
72, 0, 0, 0
73, 0, 0, 0
74, 0, 0, 0
75, 0, 0, 0
76, 0, 0, 0
77, 0, 0, 0
78, 0, 0, 0
79, 0, 0, 0
80, 0, 0, 0
81, 0, 0, 4.847150325775146
82, 0, 0, 8.831565856933594
83, 0, 0, 5.436675548553467
84, 0, 0, 79.55081939697266
85, 0, 0, 160.7564086914062
86, 0, 0, 220.7107543945312
87, 0, 0, 360.2968139648438
88, 0, 0, 413.3696594238281
89, 0, 0, 408.0134582519531
90, 0, 0, 354.4196472167969
91, 0, 0, 307.6421813964844
92, 0, 0, 269.8759460449219
93, 0, 0, 245.0200653076172
94, 0, 0, 229.1109008789062
95, 0, 0, 215.3402404785156
96, 0, 0, 201.0264739990234
97, 0, 0, 193.2704772949219
98, 0, 0, 186.1159973144531
99, 0, 0, 179.2669982910156
100, 0, 0, 173.1950225830078
101, 0, 0, 166.9664916992188
102, 0, 0, 162.9235687255859
103, 0, 0, 156.5743255615234
104, 0, 0, 153.3613739013672
105, 0, 0, 150.4159545898438
106, 0, 0, 146.8151702880859
107, 0, 0, 141.6129913330078
108, 0, 0, 141.5840606689453
109, 0, 0, 135.4864959716797
110, 0, 0, 133.1013031005859
111, 0, 0, 132.2599792480469
112, 0, 0, 129.7941436767578
113, 0, 0, 127.6129913330078
114, 0, 0, 126.3979721069336
115, 0, 0, 123.6031188964844
116, 0, 0, 122.0603332519531
117, 0, 0, 119.4367294311523
118, 0, 0, 119.4392929077148
119, 0, 0, 117.3959274291992
120, 0, 0, 116.5990447998047
121, 0, 0, 112.3967666625977
122, 0, 0, 110.5163345336914
123, 0, 0, 111.4955596923828
124, 0, 0, 109.6855163574219
125, 0, 0, 108.0696182250977
126, 0, 0, 106.3858947753906
127, 0, 0, 108.0417938232422
128, 0, 0, 104.4311904907227
129, 0, 0, 103.2345657348633
130, 0, 0, 103.5069885253906
131, 0, 0, 102.2129821777344
132, 0, 0, 101.39892578125
133, 0, 0, 98.77585601806641
134, 0, 0, 100.4495620727539
135, 0, 0, 98.95090484619141
136, 0, 0, 96.73252105712891
137, 0, 0, 98.53394317626953
138, 0, 0, 96.27058410644531
139, 0, 0, 96.10830688476562
140, 0, 0, 96.48668670654297
141, 0, 0, 94.18024444580078
142, 0, 0, 94.09941101074219
143, 0, 0, 93.03430938720703
144, 0, 0, 91.84304046630859
145, 0, 0, 94.02111053466797
146, 0, 0, 90.11013031005859
147, 0, 0, 92.06069946289062
148, 0, 0, 88.28356170654297
149, 0, 0, 89.27159881591797
150, 0, 0, 88.80150604248047
151, 0, 0, 86.99417877197266
152, 0, 0, 87.15744018554688
153, 0, 0, 86.44591522216797
154, 0, 0, 86.59489440917969
155, 0, 0, 86.70295715332031
156, 0, 0, 84.0008544921875
157, 0, 0, 85.88442993164062
158, 0, 0, 83.58724212646484
159, 0, 0, 83.35536193847656
160, 0, 0, 83.78118896484375
161, 0, 0, 82.97689056396484
162, 0, 0, 82.13839721679688
163, 0, 0, 81.82506561279297
164, 0, 0, 82.43998718261719
165, 0, 0, 82.23439788818359
166, 0, 0, 79.78243255615234
167, 0, 0, 80.49797821044922
168, 0, 0, 80.40468597412109
169, 0, 0, 80.22880554199219
170, 0, 0, 78.36614990234375
171, 0, 0, 77.19625854492188
172, 0, 0, 77.26796722412109
173, 0, 0, 78.76393890380859
174, 0, 0, 75.22290802001953
175, 0, 0, 78.80349731445312
176, 0, 0, 76.63531494140625
177, 0, 0, 78.53451538085938
178, 0, 0, 75.35498046875
179, 0, 0, 74.84693908691406
