# TOPAS Version: 3.3.p1
# Parameter File: Test.txt
# Results for scorer MLIC_Scorer
# Scored in component: MLIC
# X in 180 bins of 0.177778 cm
# Y in 1 bin  of 10 cm
# Z in 1 bin  of 10 cm
# EnergyDeposit ( MeV ) : Sum   
0, 0, 0, 0
1, 0, 0, 0
2, 0, 0, 0
3, 0, 0, 0
4, 0, 0, 0
5, 0, 0, 0
6, 0, 0, 0
7, 0, 0, 0
8, 0, 0, 0
9, 0, 0, 0
10, 0, 0, 0
11, 0, 0, 0
12, 0, 0, 0
13, 0, 0, 0
14, 0, 0, 0
15, 0, 0, 0
16, 0, 0, 6.55388355255127
17, 0, 0, 48.09015274047852
18, 0, 0, 313.5364379882812
19, 0, 0, 679.9655151367188
20, 0, 0, 1398.447143554688
21, 0, 0, 2773.484375
22, 0, 0, 4286.06103515625
23, 0, 0, 4839.935546875
24, 0, 0, 4745.69580078125
25, 0, 0, 4474.39306640625
26, 0, 0, 4057.961181640625
27, 0, 0, 3571.384521484375
28, 0, 0, 3192.455078125
29, 0, 0, 2941.57763671875
30, 0, 0, 2748.847412109375
31, 0, 0, 2591.5146484375
32, 0, 0, 2469.12451171875
33, 0, 0, 2358.190185546875
34, 0, 0, 2264.099365234375
35, 0, 0, 2182.48095703125
36, 0, 0, 2111.739990234375
37, 0, 0, 2046.317016601562
38, 0, 0, 1990.261108398438
39, 0, 0, 1933.736572265625
40, 0, 0, 1885.46826171875
41, 0, 0, 1836.29345703125
42, 0, 0, 1805.825317382812
43, 0, 0, 1766.128173828125
44, 0, 0, 1727.0673828125
45, 0, 0, 1694.703735351562
46, 0, 0, 1660.269165039062
47, 0, 0, 1631.82958984375
48, 0, 0, 1604.489990234375
49, 0, 0, 1574.963500976562
50, 0, 0, 1558.016479492188
51, 0, 0, 1534.950927734375
52, 0, 0, 1505.9873046875
53, 0, 0, 1490.777709960938
54, 0, 0, 1474.857299804688
55, 0, 0, 1451.255249023438
56, 0, 0, 1432.81396484375
57, 0, 0, 1420.131469726562
58, 0, 0, 1398.153564453125
59, 0, 0, 1382.066162109375
60, 0, 0, 1371.395385742188
61, 0, 0, 1351.24658203125
62, 0, 0, 1336.313354492188
63, 0, 0, 1322.578247070312
64, 0, 0, 1307.318481445312
65, 0, 0, 1298.336303710938
66, 0, 0, 1274.763671875
67, 0, 0, 1271.486206054688
68, 0, 0, 1268.298950195312
69, 0, 0, 1251.9697265625
70, 0, 0, 1238.09033203125
71, 0, 0, 1233.933837890625
72, 0, 0, 1220.232299804688
73, 0, 0, 1198.971313476562
74, 0, 0, 1206.549194335938
75, 0, 0, 1187.26025390625
76, 0, 0, 1181.054443359375
77, 0, 0, 1167.969482421875
78, 0, 0, 1169.158081054688
79, 0, 0, 1159.258544921875
80, 0, 0, 1145.481323242188
81, 0, 0, 1131.298828125
82, 0, 0, 1128.203979492188
83, 0, 0, 1124.29833984375
84, 0, 0, 1120.022705078125
85, 0, 0, 1110.2587890625
86, 0, 0, 1100.924682617188
87, 0, 0, 1094.186767578125
88, 0, 0, 1082.889282226562
89, 0, 0, 1079.465209960938
90, 0, 0, 1078.468994140625
91, 0, 0, 1072.12109375
92, 0, 0, 1062.200073242188
93, 0, 0, 1052.052124023438
94, 0, 0, 1048.96728515625
95, 0, 0, 1040.595581054688
96, 0, 0, 1040.887573242188
97, 0, 0, 1028.246459960938
98, 0, 0, 1028.837158203125
99, 0, 0, 1026.517822265625
100, 0, 0, 1018.08935546875
101, 0, 0, 1008.61865234375
102, 0, 0, 1007.098449707031
103, 0, 0, 997.350341796875
104, 0, 0, 999.1010131835938
105, 0, 0, 990.1751708984375
106, 0, 0, 981.286865234375
107, 0, 0, 982.5166015625
108, 0, 0, 976.9024047851562
109, 0, 0, 965.8347778320312
110, 0, 0, 972.727783203125
111, 0, 0, 959.3679809570312
112, 0, 0, 960.0928344726562
113, 0, 0, 959.1179809570312
114, 0, 0, 951.2211303710938
115, 0, 0, 945.5772094726562
116, 0, 0, 950.4257202148438
117, 0, 0, 935.5328979492188
118, 0, 0, 934.0855712890625
119, 0, 0, 933.9052734375
120, 0, 0, 925.3639526367188
121, 0, 0, 923.2964477539062
122, 0, 0, 925.2024536132812
123, 0, 0, 916.4422607421875
124, 0, 0, 912.6295776367188
125, 0, 0, 908.8335571289062
126, 0, 0, 911.2111206054688
127, 0, 0, 906.06298828125
128, 0, 0, 895.3561401367188
129, 0, 0, 893.9540405273438
130, 0, 0, 894.3653564453125
131, 0, 0, 889.5968627929688
132, 0, 0, 891.2177734375
133, 0, 0, 885.3005981445312
134, 0, 0, 885.0104370117188
135, 0, 0, 878.2605590820312
136, 0, 0, 879.8264770507812
137, 0, 0, 870.1307373046875
138, 0, 0, 873.5286254882812
139, 0, 0, 870.2987060546875
140, 0, 0, 861.4265747070312
141, 0, 0, 864.8634033203125
142, 0, 0, 861.4190063476562
143, 0, 0, 846.4766235351562
144, 0, 0, 854.1146240234375
145, 0, 0, 856.2918701171875
146, 0, 0, 844.1961059570312
147, 0, 0, 847.3541870117188
148, 0, 0, 834.1775512695312
149, 0, 0, 846.166748046875
150, 0, 0, 845.3519287109375
151, 0, 0, 840.1026000976562
152, 0, 0, 833.17919921875
153, 0, 0, 837.4178466796875
154, 0, 0, 836.8360595703125
155, 0, 0, 824.9871826171875
156, 0, 0, 819.5083618164062
157, 0, 0, 817.58740234375
158, 0, 0, 814.4435424804688
159, 0, 0, 817.1991577148438
160, 0, 0, 818.0247192382812
161, 0, 0, 810.4873046875
162, 0, 0, 812.0062255859375
163, 0, 0, 805.0910034179688
164, 0, 0, 810.5338134765625
165, 0, 0, 803.7097778320312
166, 0, 0, 804.0200805664062
167, 0, 0, 797.37841796875
168, 0, 0, 799.2825317382812
169, 0, 0, 799.34228515625
170, 0, 0, 791.7813110351562
171, 0, 0, 787.2639770507812
172, 0, 0, 781.564697265625
173, 0, 0, 775.1869506835938
174, 0, 0, 794.3226318359375
175, 0, 0, 778.0706787109375
176, 0, 0, 777.82568359375
177, 0, 0, 777.9224853515625
178, 0, 0, 775.8988647460938
179, 0, 0, 772.44189453125
