# TOPAS Version: 3.3.p1
# Parameter File: Test.txt
# Results for scorer MLIC_Scorer
# Scored in component: MLIC
# X in 180 bins of 0.177778 cm
# Y in 1 bin  of 10 cm
# Z in 1 bin  of 10 cm
# EnergyDeposit ( MeV ) : Sum   
0, 0, 0, 0
1, 0, 0, 0
2, 0, 0, 0
3, 0, 0, 0
4, 0, 0, 0
5, 0, 0, 0
6, 0, 0, 0
7, 0, 0, 0
8, 0, 0, 0
9, 0, 0, 0
10, 0, 0, 0
11, 0, 0, 0
12, 0, 0, 0
13, 0, 0, 0
14, 0, 0, 0
15, 0, 0, 0
16, 0, 0, 0
17, 0, 0, 0
18, 0, 0, 0
19, 0, 0, 0
20, 0, 0, 0
21, 0, 0, 0
22, 0, 0, 0
23, 0, 0, 0
24, 0, 0, 0
25, 0, 0, 0
26, 0, 0, 0
27, 0, 0, 0
28, 0, 0, 0
29, 0, 0, 0
30, 0, 0, 0
31, 0, 0, 0
32, 0, 0, 0
33, 0, 0, 0
34, 0, 0, 0
35, 0, 0, 0
36, 0, 0, 0
37, 0, 0, 0
38, 0, 0, 0
39, 0, 0, 0
40, 0, 0, 0
41, 0, 0, 0
42, 0, 0, 0
43, 0, 0, 0
44, 0, 0, 0
45, 0, 0, 0
46, 0, 0, 0
47, 0, 0, 0
48, 0, 0, 0
49, 0, 0, 8.06102180480957
50, 0, 0, 97.12631225585938
51, 0, 0, 170.5187835693359
52, 0, 0, 254.1013641357422
53, 0, 0, 303.3275756835938
54, 0, 0, 261.9537048339844
55, 0, 0, 242.0130920410156
56, 0, 0, 217.5259094238281
57, 0, 0, 188.8244018554688
58, 0, 0, 172.5299224853516
59, 0, 0, 158.7773132324219
60, 0, 0, 150.0052947998047
61, 0, 0, 142.7125701904297
62, 0, 0, 135.3736877441406
63, 0, 0, 130.7394714355469
64, 0, 0, 122.9871520996094
65, 0, 0, 119.2894515991211
66, 0, 0, 116.798095703125
67, 0, 0, 113.4476318359375
68, 0, 0, 108.8522644042969
69, 0, 0, 105.6949920654297
70, 0, 0, 103.6417007446289
71, 0, 0, 101.6652221679688
72, 0, 0, 98.41875457763672
73, 0, 0, 96.92117309570312
74, 0, 0, 95.01261138916016
75, 0, 0, 93.80697631835938
76, 0, 0, 92.05583953857422
77, 0, 0, 89.92967224121094
78, 0, 0, 88.86374664306641
79, 0, 0, 87.38259887695312
80, 0, 0, 84.35901641845703
81, 0, 0, 83.433349609375
82, 0, 0, 82.63156890869141
83, 0, 0, 80.41722106933594
84, 0, 0, 81.04332733154297
85, 0, 0, 80.52291870117188
86, 0, 0, 77.76487731933594
87, 0, 0, 78.70691680908203
88, 0, 0, 76.89820861816406
89, 0, 0, 75.04714965820312
90, 0, 0, 74.21482849121094
91, 0, 0, 74.05898284912109
92, 0, 0, 72.04637908935547
93, 0, 0, 73.24742889404297
94, 0, 0, 73.37755584716797
95, 0, 0, 70.67234802246094
96, 0, 0, 71.89281463623047
97, 0, 0, 70.18232727050781
98, 0, 0, 69.58580017089844
99, 0, 0, 68.40699005126953
100, 0, 0, 70.07556915283203
101, 0, 0, 65.69132995605469
102, 0, 0, 64.93390655517578
103, 0, 0, 65.84469604492188
104, 0, 0, 66.31061553955078
105, 0, 0, 64.40967559814453
106, 0, 0, 64.22360992431641
107, 0, 0, 64.92668151855469
108, 0, 0, 61.49684143066406
109, 0, 0, 63.48935699462891
110, 0, 0, 62.01523971557617
111, 0, 0, 61.22153091430664
112, 0, 0, 61.68499374389648
113, 0, 0, 61.19310760498047
114, 0, 0, 61.78507614135742
115, 0, 0, 60.79331970214844
116, 0, 0, 60.85437774658203
117, 0, 0, 62.51898574829102
118, 0, 0, 61.0593147277832
119, 0, 0, 59.20657730102539
120, 0, 0, 58.27204132080078
121, 0, 0, 58.41343307495117
122, 0, 0, 56.74488830566406
123, 0, 0, 60.14052200317383
124, 0, 0, 56.99911880493164
125, 0, 0, 56.54124069213867
126, 0, 0, 57.7022705078125
127, 0, 0, 55.68933486938477
128, 0, 0, 56.23527526855469
129, 0, 0, 55.43540954589844
130, 0, 0, 56.67945861816406
131, 0, 0, 54.78025054931641
132, 0, 0, 54.64472198486328
133, 0, 0, 55.63137054443359
134, 0, 0, 53.9763298034668
135, 0, 0, 53.27061462402344
136, 0, 0, 54.07582855224609
137, 0, 0, 54.84043121337891
138, 0, 0, 52.25577163696289
139, 0, 0, 53.24639892578125
140, 0, 0, 55.30146408081055
141, 0, 0, 52.88475799560547
142, 0, 0, 54.18399810791016
143, 0, 0, 51.95647048950195
144, 0, 0, 51.95283126831055
145, 0, 0, 52.88018798828125
146, 0, 0, 51.09081268310547
147, 0, 0, 52.07645034790039
148, 0, 0, 51.77026748657227
149, 0, 0, 51.94965744018555
150, 0, 0, 52.4141960144043
151, 0, 0, 51.00005722045898
152, 0, 0, 50.63601684570312
153, 0, 0, 49.88193511962891
154, 0, 0, 51.22243499755859
155, 0, 0, 50.64738464355469
156, 0, 0, 49.82937240600586
157, 0, 0, 50.32611846923828
158, 0, 0, 50.47013854980469
159, 0, 0, 49.10519027709961
160, 0, 0, 49.13885116577148
161, 0, 0, 49.63999557495117
162, 0, 0, 48.49703598022461
163, 0, 0, 47.78593063354492
164, 0, 0, 49.61441040039062
165, 0, 0, 48.3736572265625
166, 0, 0, 48.69992828369141
167, 0, 0, 46.57925033569336
168, 0, 0, 46.53924560546875
169, 0, 0, 48.03756332397461
170, 0, 0, 47.60404586791992
171, 0, 0, 47.2132453918457
172, 0, 0, 47.95548248291016
173, 0, 0, 46.01027297973633
174, 0, 0, 46.82804107666016
175, 0, 0, 45.29998779296875
176, 0, 0, 46.97909164428711
177, 0, 0, 44.8054313659668
178, 0, 0, 45.2136344909668
179, 0, 0, 45.66785430908203
