# TOPAS Version: 3.3.p1
# Parameter File: Test.txt
# Results for scorer MLIC_Scorer
# Scored in component: MLIC
# X in 180 bins of 0.177778 cm
# Y in 1 bin  of 10 cm
# Z in 1 bin  of 10 cm
# EnergyDeposit ( MeV ) : Sum   
0, 0, 0, 0
1, 0, 0, 0
2, 0, 0, 0
3, 0, 0, 0
4, 0, 0, 0
5, 0, 0, 0
6, 0, 0, 0
7, 0, 0, 10.99750137329102
8, 0, 0, 6.29531192779541
9, 0, 0, 139.4525146484375
10, 0, 0, 441.2237243652344
11, 0, 0, 1376.73681640625
12, 0, 0, 2712.04833984375
13, 0, 0, 4047.30810546875
14, 0, 0, 5037.7646484375
15, 0, 0, 4902.322265625
16, 0, 0, 4479.76806640625
17, 0, 0, 4069.7392578125
18, 0, 0, 3576.05615234375
19, 0, 0, 3218.38671875
20, 0, 0, 2964.569580078125
21, 0, 0, 2768.626708984375
22, 0, 0, 2605.1533203125
23, 0, 0, 2487.144287109375
24, 0, 0, 2364.59130859375
25, 0, 0, 2278.1005859375
26, 0, 0, 2194.695556640625
27, 0, 0, 2128.35498046875
28, 0, 0, 2060.316650390625
29, 0, 0, 1999.892456054688
30, 0, 0, 1942.820434570312
31, 0, 0, 1898.624755859375
32, 0, 0, 1845.132202148438
33, 0, 0, 1815.062744140625
34, 0, 0, 1769.331787109375
35, 0, 0, 1737.34912109375
36, 0, 0, 1701.882202148438
37, 0, 0, 1662.819580078125
38, 0, 0, 1639.838500976562
39, 0, 0, 1613.911865234375
40, 0, 0, 1586.724731445312
41, 0, 0, 1562.089233398438
42, 0, 0, 1536.607421875
43, 0, 0, 1512.974853515625
44, 0, 0, 1494.153686523438
45, 0, 0, 1475.833984375
46, 0, 0, 1445.93310546875
47, 0, 0, 1432.08642578125
48, 0, 0, 1411.250366210938
49, 0, 0, 1404.731689453125
50, 0, 0, 1389.4970703125
51, 0, 0, 1373.585693359375
52, 0, 0, 1353.124267578125
53, 0, 0, 1336.756103515625
54, 0, 0, 1325.699829101562
55, 0, 0, 1308.99951171875
56, 0, 0, 1299.4560546875
57, 0, 0, 1286.352905273438
58, 0, 0, 1268.395263671875
59, 0, 0, 1263.170776367188
60, 0, 0, 1251.074462890625
61, 0, 0, 1238.54345703125
62, 0, 0, 1231.562622070312
63, 0, 0, 1212.041137695312
64, 0, 0, 1208.083374023438
65, 0, 0, 1199.7783203125
66, 0, 0, 1194.286987304688
67, 0, 0, 1173.605590820312
68, 0, 0, 1167.495483398438
69, 0, 0, 1153.97314453125
70, 0, 0, 1150.156372070312
71, 0, 0, 1150.427978515625
72, 0, 0, 1138.4345703125
73, 0, 0, 1126.93017578125
74, 0, 0, 1119.712524414062
75, 0, 0, 1111.2978515625
76, 0, 0, 1108.981567382812
77, 0, 0, 1104.801513671875
78, 0, 0, 1095.276123046875
79, 0, 0, 1084.705810546875
80, 0, 0, 1080.335571289062
81, 0, 0, 1068.819213867188
82, 0, 0, 1070.5400390625
83, 0, 0, 1068.806762695312
84, 0, 0, 1055.670166015625
85, 0, 0, 1048.735107421875
86, 0, 0, 1039.277465820312
87, 0, 0, 1034.241333007812
88, 0, 0, 1027.70654296875
89, 0, 0, 1023.120727539062
90, 0, 0, 1017.777465820312
91, 0, 0, 1014.257629394531
92, 0, 0, 1017.310607910156
93, 0, 0, 1004.981628417969
94, 0, 0, 1003.533081054688
95, 0, 0, 996.2442626953125
96, 0, 0, 991.7848510742188
97, 0, 0, 980.317138671875
98, 0, 0, 982.990234375
99, 0, 0, 977.7308959960938
100, 0, 0, 974.0036010742188
101, 0, 0, 974.4785766601562
102, 0, 0, 968.264404296875
103, 0, 0, 964.69677734375
104, 0, 0, 954.6167602539062
105, 0, 0, 949.7067260742188
106, 0, 0, 949.1978759765625
107, 0, 0, 943.3565063476562
108, 0, 0, 944.3377685546875
109, 0, 0, 929.9996948242188
110, 0, 0, 927.0748901367188
111, 0, 0, 933.5751953125
112, 0, 0, 926.8794555664062
113, 0, 0, 921.0819091796875
114, 0, 0, 917.2598266601562
115, 0, 0, 910.8319091796875
116, 0, 0, 915.372314453125
117, 0, 0, 905.8510131835938
118, 0, 0, 904.8133544921875
119, 0, 0, 902.9642944335938
120, 0, 0, 892.9619750976562
121, 0, 0, 895.3001098632812
122, 0, 0, 887.4793701171875
123, 0, 0, 888.385986328125
124, 0, 0, 883.3690795898438
125, 0, 0, 881.669921875
126, 0, 0, 879.8651123046875
127, 0, 0, 874.2188110351562
128, 0, 0, 871.0972290039062
129, 0, 0, 872.5276489257812
130, 0, 0, 862.240478515625
131, 0, 0, 862.3693237304688
132, 0, 0, 859.4225463867188
133, 0, 0, 857.723388671875
134, 0, 0, 852.3248291015625
135, 0, 0, 857.0145263671875
136, 0, 0, 852.0026245117188
137, 0, 0, 847.5092163085938
138, 0, 0, 846.271728515625
139, 0, 0, 841.9918212890625
140, 0, 0, 844.0980224609375
141, 0, 0, 838.657958984375
142, 0, 0, 826.0055541992188
143, 0, 0, 834.316162109375
144, 0, 0, 832.9439697265625
145, 0, 0, 834.8599853515625
146, 0, 0, 824.532470703125
147, 0, 0, 821.1141967773438
148, 0, 0, 816.2005615234375
149, 0, 0, 820.1589965820312
150, 0, 0, 810.77587890625
151, 0, 0, 821.0675659179688
152, 0, 0, 806.8130493164062
153, 0, 0, 815.8001098632812
154, 0, 0, 810.9943237304688
155, 0, 0, 811.843017578125
156, 0, 0, 809.1307373046875
157, 0, 0, 802.4663696289062
158, 0, 0, 807.083740234375
159, 0, 0, 786.68603515625
160, 0, 0, 785.4141845703125
161, 0, 0, 791.3648681640625
162, 0, 0, 787.7828979492188
163, 0, 0, 785.4335327148438
164, 0, 0, 786.8117065429688
165, 0, 0, 783.34521484375
166, 0, 0, 786.8607788085938
167, 0, 0, 779.4949340820312
168, 0, 0, 775.7914428710938
169, 0, 0, 783.4473876953125
170, 0, 0, 775.2937622070312
171, 0, 0, 774.6228637695312
172, 0, 0, 763.8997192382812
173, 0, 0, 774.3914794921875
174, 0, 0, 771.7265625
175, 0, 0, 766.4353637695312
176, 0, 0, 762.96044921875
177, 0, 0, 765.976806640625
178, 0, 0, 763.6729736328125
179, 0, 0, 758.10986328125
