# TOPAS Version: 3.3.p1
# Parameter File: Test.txt
# Results for scorer MLIC_Scorer
# Scored in component: MLIC
# X in 180 bins of 0.222222 cm
# Y in 1 bin  of 10 cm
# Z in 1 bin  of 10 cm
# EnergyDeposit ( MeV ) : Sum   
0, 0, 0, 0
1, 0, 0, 0
2, 0, 0, 0
3, 0, 0, 0
4, 0, 0, 0
5, 0, 0, 0
6, 0, 0, 0
7, 0, 0, 0
8, 0, 0, 0
9, 0, 0, 0
10, 0, 0, 0
11, 0, 0, 0
12, 0, 0, 0
13, 0, 0, 0
14, 0, 0, 0
15, 0, 0, 0
16, 0, 0, 0
17, 0, 0, 0
18, 0, 0, 0
19, 0, 0, 0
20, 0, 0, 0
21, 0, 0, 0
22, 0, 0, 0
23, 0, 0, 0
24, 0, 0, 0
25, 0, 0, 0
26, 0, 0, 0
27, 0, 0, 0
28, 0, 0, 0
29, 0, 0, 0
30, 0, 0, 0
31, 0, 0, 0
32, 0, 0, 0
33, 0, 0, 0
34, 0, 0, 0
35, 0, 0, 0
36, 0, 0, 0
37, 0, 0, 0
38, 0, 0, 0
39, 0, 0, 0
40, 0, 0, 0
41, 0, 0, 0
42, 0, 0, 0
43, 0, 0, 0
44, 0, 0, 0
45, 0, 0, 0
46, 0, 0, 0
47, 0, 0, 0
48, 0, 0, 0
49, 0, 0, 0
50, 0, 0, 0
51, 0, 0, 0
52, 0, 0, 0
53, 0, 0, 0
54, 0, 0, 0
55, 0, 0, 0
56, 0, 0, 0
57, 0, 0, 0
58, 0, 0, 0
59, 0, 0, 0
60, 0, 0, 0
61, 0, 0, 0
62, 0, 0, 0
63, 0, 0, 0
64, 0, 0, 0
65, 0, 0, 0
66, 0, 0, 0
67, 0, 0, 0
68, 0, 0, 0
69, 0, 0, 0.03215859830379486
70, 0, 0, 0
71, 0, 0, 0
72, 0, 0, 0
73, 0, 0, 0.001326792407780886
74, 0, 0, 0
75, 0, 0, 0
76, 0, 0, 0
77, 0, 0, 0
78, 0, 0, 0
79, 0, 0, 0
80, 0, 0, 0
81, 0, 0, 0
82, 0, 0, 0
83, 0, 0, 0
84, 0, 0, 0.01653602905571461
85, 0, 0, 0
86, 0, 0, 11.27981948852539
87, 0, 0, 45.53640747070312
88, 0, 0, 224.1818695068359
89, 0, 0, 769.908203125
90, 0, 0, 2199.27978515625
91, 0, 0, 4420.990234375
92, 0, 0, 5912.93115234375
93, 0, 0, 6131.0693359375
94, 0, 0, 5514.517578125
95, 0, 0, 4699.599609375
96, 0, 0, 4069.4599609375
97, 0, 0, 3680.1103515625
98, 0, 0, 3383.423095703125
99, 0, 0, 3158.8212890625
100, 0, 0, 2984.259765625
101, 0, 0, 2834.23046875
102, 0, 0, 2717.453125
103, 0, 0, 2601.49462890625
104, 0, 0, 2505.971435546875
105, 0, 0, 2426.7158203125
106, 0, 0, 2349.508056640625
107, 0, 0, 2276.224853515625
108, 0, 0, 2211.69580078125
109, 0, 0, 2174.86083984375
110, 0, 0, 2110.637939453125
111, 0, 0, 2067.045166015625
112, 0, 0, 2026.451416015625
113, 0, 0, 1979.427612304688
114, 0, 0, 1929.085327148438
115, 0, 0, 1905.549682617188
116, 0, 0, 1875.99853515625
117, 0, 0, 1839.493408203125
118, 0, 0, 1812.621826171875
119, 0, 0, 1783.956420898438
120, 0, 0, 1754.3828125
121, 0, 0, 1726.114501953125
122, 0, 0, 1705.88720703125
123, 0, 0, 1673.703125
124, 0, 0, 1655.085327148438
125, 0, 0, 1635.476196289062
126, 0, 0, 1617.389404296875
127, 0, 0, 1597.613403320312
128, 0, 0, 1580.324584960938
129, 0, 0, 1558.280883789062
130, 0, 0, 1543.253173828125
131, 0, 0, 1532.638671875
132, 0, 0, 1522.97412109375
133, 0, 0, 1492.246948242188
134, 0, 0, 1487.408325195312
135, 0, 0, 1466.961791992188
136, 0, 0, 1448.418212890625
137, 0, 0, 1438.99169921875
138, 0, 0, 1426.126220703125
139, 0, 0, 1420.280639648438
140, 0, 0, 1402.0087890625
141, 0, 0, 1397.859375
142, 0, 0, 1379.390625
143, 0, 0, 1375.90625
144, 0, 0, 1358.812622070312
145, 0, 0, 1339.632690429688
146, 0, 0, 1336.461059570312
147, 0, 0, 1322.851318359375
148, 0, 0, 1309.303833007812
149, 0, 0, 1314.89892578125
150, 0, 0, 1307.10986328125
151, 0, 0, 1292.068115234375
152, 0, 0, 1290.273193359375
153, 0, 0, 1282.3359375
154, 0, 0, 1262.74365234375
155, 0, 0, 1247.446533203125
156, 0, 0, 1253.724487304688
157, 0, 0, 1247.820556640625
158, 0, 0, 1234.401245117188
159, 0, 0, 1228.890747070312
160, 0, 0, 1213.969360351562
161, 0, 0, 1206.201171875
162, 0, 0, 1211.486328125
163, 0, 0, 1199.98779296875
164, 0, 0, 1194.008666992188
165, 0, 0, 1187.711059570312
166, 0, 0, 1183.91015625
167, 0, 0, 1178.186645507812
168, 0, 0, 1171.378295898438
169, 0, 0, 1170.362060546875
170, 0, 0, 1155.194213867188
171, 0, 0, 1166.02587890625
172, 0, 0, 1151.103637695312
173, 0, 0, 1140.709716796875
174, 0, 0, 1141.8681640625
175, 0, 0, 1138.109497070312
176, 0, 0, 1121.416870117188
177, 0, 0, 1119.662353515625
178, 0, 0, 1107.384399414062
179, 0, 0, 1110.31982421875
