# TOPAS Version: 3.3.p1
# Parameter File: Test.txt
# Results for scorer MLIC_Scorer
# Scored in component: MLIC
# X in 180 bins of 0.177778 cm
# Y in 1 bin  of 10 cm
# Z in 1 bin  of 10 cm
# EnergyDeposit ( MeV ) : Sum   
0, 0, 0, 0.0009470724617131054
1, 0, 0, 0
2, 0, 0, 0
3, 0, 0, 0
4, 0, 0, 0
5, 0, 0, 0
6, 0, 0, 0
7, 0, 0, 0
8, 0, 0, 0
9, 0, 0, 0
10, 0, 0, 0
11, 0, 0, 0
12, 0, 0, 0
13, 0, 0, 0
14, 0, 0, 0
15, 0, 0, 0
16, 0, 0, 0
17, 0, 0, 0
18, 0, 0, 0
19, 0, 0, 0
20, 0, 0, 0
21, 0, 0, 0
22, 0, 0, 0
23, 0, 0, 0
24, 0, 0, 0
25, 0, 0, 0
26, 0, 0, 0
27, 0, 0, 0
28, 0, 0, 0.01882420293986797
29, 0, 0, 0.0006202426156960428
30, 0, 0, 0
31, 0, 0, 0
32, 0, 0, 0
33, 0, 0, 0
34, 0, 0, 0
35, 0, 0, 0
36, 0, 0, 1.905755519866943
37, 0, 0, 11.49189853668213
38, 0, 0, 177.1434173583984
39, 0, 0, 663.4659423828125
40, 0, 0, 1630.94873046875
41, 0, 0, 2932.763427734375
42, 0, 0, 4300.08984375
43, 0, 0, 4930.0595703125
44, 0, 0, 5087.02099609375
45, 0, 0, 4540.65478515625
46, 0, 0, 3892.828369140625
47, 0, 0, 3459.664306640625
48, 0, 0, 3161.469970703125
49, 0, 0, 2903.765625
50, 0, 0, 2726.87255859375
51, 0, 0, 2579.09326171875
52, 0, 0, 2458.0078125
53, 0, 0, 2350.0234375
54, 0, 0, 2254.073486328125
55, 0, 0, 2173.38232421875
56, 0, 0, 2105.006591796875
57, 0, 0, 2038.035278320312
58, 0, 0, 1988.839477539062
59, 0, 0, 1926.670166015625
60, 0, 0, 1883.074462890625
61, 0, 0, 1831.163452148438
62, 0, 0, 1799.506591796875
63, 0, 0, 1771.397094726562
64, 0, 0, 1729.95458984375
65, 0, 0, 1691.175170898438
66, 0, 0, 1666.61376953125
67, 0, 0, 1627.774169921875
68, 0, 0, 1604.608032226562
69, 0, 0, 1577.780029296875
70, 0, 0, 1559.69677734375
71, 0, 0, 1530.96826171875
72, 0, 0, 1512.462158203125
73, 0, 0, 1489.6259765625
74, 0, 0, 1470.821655273438
75, 0, 0, 1448.30419921875
76, 0, 0, 1434.29345703125
77, 0, 0, 1418.540161132812
78, 0, 0, 1395.247192382812
79, 0, 0, 1374.523315429688
80, 0, 0, 1373.671264648438
81, 0, 0, 1350.789428710938
82, 0, 0, 1328.977172851562
83, 0, 0, 1319.796752929688
84, 0, 0, 1309.595458984375
85, 0, 0, 1299.884521484375
86, 0, 0, 1279.838500976562
87, 0, 0, 1276.528930664062
88, 0, 0, 1252.962158203125
89, 0, 0, 1242.425659179688
90, 0, 0, 1231.87255859375
91, 0, 0, 1225.7509765625
92, 0, 0, 1214.371337890625
93, 0, 0, 1212.579711914062
94, 0, 0, 1195.99365234375
95, 0, 0, 1188.382202148438
96, 0, 0, 1178.648803710938
97, 0, 0, 1169.084228515625
98, 0, 0, 1168.463500976562
99, 0, 0, 1151.4736328125
100, 0, 0, 1141.932250976562
101, 0, 0, 1133.814331054688
102, 0, 0, 1131.384887695312
103, 0, 0, 1120.136840820312
104, 0, 0, 1107.734375
105, 0, 0, 1108.40576171875
106, 0, 0, 1092.285888671875
107, 0, 0, 1087.741943359375
108, 0, 0, 1086.373657226562
109, 0, 0, 1079.6015625
110, 0, 0, 1072.469360351562
111, 0, 0, 1062.370239257812
112, 0, 0, 1061.06298828125
113, 0, 0, 1054.090087890625
114, 0, 0, 1053.864624023438
115, 0, 0, 1039.741943359375
116, 0, 0, 1038.819946289062
117, 0, 0, 1025.88427734375
118, 0, 0, 1031.517700195312
119, 0, 0, 1019.09326171875
120, 0, 0, 1013.790710449219
121, 0, 0, 1010.529357910156
122, 0, 0, 1005.959289550781
123, 0, 0, 1005.348815917969
124, 0, 0, 998.2349243164062
125, 0, 0, 988.3895874023438
126, 0, 0, 992.669677734375
127, 0, 0, 980.1417846679688
128, 0, 0, 982.3945922851562
129, 0, 0, 971.924560546875
130, 0, 0, 971.9876708984375
131, 0, 0, 964.2202758789062
132, 0, 0, 961.3695678710938
133, 0, 0, 944.4421997070312
134, 0, 0, 953.1460571289062
135, 0, 0, 951.256103515625
136, 0, 0, 945.1294555664062
137, 0, 0, 936.4318237304688
138, 0, 0, 946.524169921875
139, 0, 0, 937.4833374023438
140, 0, 0, 922.7784423828125
141, 0, 0, 922.0391235351562
142, 0, 0, 920.9498291015625
143, 0, 0, 920.2586669921875
144, 0, 0, 908.37255859375
145, 0, 0, 906.8352661132812
146, 0, 0, 904.1619262695312
147, 0, 0, 902.8197631835938
148, 0, 0, 900.4239501953125
149, 0, 0, 902.32763671875
150, 0, 0, 891.6502075195312
151, 0, 0, 892.6797485351562
152, 0, 0, 891.92138671875
153, 0, 0, 880.9506225585938
154, 0, 0, 882.1318359375
155, 0, 0, 874.5643920898438
156, 0, 0, 872.7205810546875
157, 0, 0, 871.5155029296875
158, 0, 0, 867.0443115234375
159, 0, 0, 859.03759765625
160, 0, 0, 861.8580932617188
161, 0, 0, 860.899658203125
162, 0, 0, 855.558349609375
163, 0, 0, 857.0546875
164, 0, 0, 849.6414794921875
165, 0, 0, 841.8387451171875
166, 0, 0, 843.8234252929688
167, 0, 0, 843.3005981445312
168, 0, 0, 841.1749267578125
169, 0, 0, 840.587158203125
170, 0, 0, 837.3949584960938
171, 0, 0, 832.117431640625
172, 0, 0, 825.099853515625
173, 0, 0, 829.58447265625
174, 0, 0, 824.851318359375
175, 0, 0, 823.3219604492188
176, 0, 0, 817.9765625
177, 0, 0, 822.084228515625
178, 0, 0, 819.1090698242188
179, 0, 0, 815.6598510742188
