# TOPAS Version: 3.3.p1
# Parameter File: Test.txt
# Results for scorer MLIC_Scorer
# Scored in component: MLIC
# X in 165 bins of 0.2 cm
# Y in 1 bin  of 10 cm
# Z in 1 bin  of 10 cm
# EnergyDeposit ( MeV ) : Sum   
0, 0, 0, 0
1, 0, 0, 0
2, 0, 0, 0
3, 0, 0, 0
4, 0, 0, 0
5, 0, 0, 0
6, 0, 0, 0
7, 0, 0, 0
8, 0, 0, 0
9, 0, 0, 0
10, 0, 0, 0
11, 0, 0, 0
12, 0, 0, 0
13, 0, 0, 0
14, 0, 0, 0
15, 0, 0, 0
16, 0, 0, 0
17, 0, 0, 0
18, 0, 0, 0
19, 0, 0, 0
20, 0, 0, 0
21, 0, 0, 0
22, 0, 0, 0
23, 0, 0, 0
24, 0, 0, 0
25, 0, 0, 0
26, 0, 0, 0
27, 0, 0, 0
28, 0, 0, 0
29, 0, 0, 0
30, 0, 0, 0
31, 0, 0, 0
32, 0, 0, 0
33, 0, 0, 0
34, 0, 0, 0
35, 0, 0, 0
36, 0, 0, 0
37, 0, 0, 0
38, 0, 0, 0
39, 0, 0, 0
40, 0, 0, 0
41, 0, 0, 0
42, 0, 0, 0
43, 0, 0, 0
44, 0, 0, 0
45, 0, 0, 0
46, 0, 0, 0
47, 0, 0, 0
48, 0, 0, 0
49, 0, 0, 0
50, 0, 0, 0
51, 0, 0, 0
52, 0, 0, 0
53, 0, 0, 0
54, 0, 0, 0
55, 0, 0, 0
56, 0, 0, 0
57, 0, 0, 0
58, 0, 0, 0
59, 0, 0, 0
60, 0, 0, 0
61, 0, 0, 0
62, 0, 0, 0
63, 0, 0, 0
64, 0, 0, 0
65, 0, 0, 0
66, 0, 0, 0
67, 0, 0, 0
68, 0, 0, 0
69, 0, 0, 0
70, 0, 0, 0
71, 0, 0, 0
72, 0, 0, 0
73, 0, 0, 0
74, 0, 0, 0
75, 0, 0, 0
76, 0, 0, 0
77, 0, 0, 0
78, 0, 0, 0
79, 0, 0, 0
80, 0, 0, 0
81, 0, 0, 0
82, 0, 0, 0
83, 0, 0, 0
84, 0, 0, 0
85, 0, 0, 36.70010757446289
86, 0, 0, 101.6485748291016
87, 0, 0, 495.2028198242188
88, 0, 0, 1417.757690429688
89, 0, 0, 2752.839111328125
90, 0, 0, 4536.0673828125
91, 0, 0, 5432.24560546875
92, 0, 0, 5517.1083984375
93, 0, 0, 4870.58642578125
94, 0, 0, 4261.076171875
95, 0, 0, 3768.741455078125
96, 0, 0, 3398.83056640625
97, 0, 0, 3145.259521484375
98, 0, 0, 2934.178466796875
99, 0, 0, 2769.5634765625
100, 0, 0, 2640.310546875
101, 0, 0, 2519.529052734375
102, 0, 0, 2426.923828125
103, 0, 0, 2344.741455078125
104, 0, 0, 2261.943603515625
105, 0, 0, 2190.19580078125
106, 0, 0, 2140.962158203125
107, 0, 0, 2079.859130859375
108, 0, 0, 2017.535400390625
109, 0, 0, 1980.921630859375
110, 0, 0, 1929.710571289062
111, 0, 0, 1888.255249023438
112, 0, 0, 1847.95703125
113, 0, 0, 1808.296875
114, 0, 0, 1782.421020507812
115, 0, 0, 1747.432495117188
116, 0, 0, 1723.976928710938
117, 0, 0, 1692.8876953125
118, 0, 0, 1669.735107421875
119, 0, 0, 1642.210205078125
120, 0, 0, 1623.283447265625
121, 0, 0, 1594.398071289062
122, 0, 0, 1571.059936523438
123, 0, 0, 1556.044189453125
124, 0, 0, 1541.154296875
125, 0, 0, 1515.93896484375
126, 0, 0, 1491.825073242188
127, 0, 0, 1471.454833984375
128, 0, 0, 1455.05078125
129, 0, 0, 1456.942504882812
130, 0, 0, 1437.820434570312
131, 0, 0, 1412.34716796875
132, 0, 0, 1409.551025390625
133, 0, 0, 1392.095458984375
134, 0, 0, 1367.287963867188
135, 0, 0, 1364.311157226562
136, 0, 0, 1356.131469726562
137, 0, 0, 1339.989501953125
138, 0, 0, 1334.157592773438
139, 0, 0, 1315.504516601562
140, 0, 0, 1314.498657226562
141, 0, 0, 1293.765380859375
142, 0, 0, 1284.989868164062
143, 0, 0, 1272.265014648438
144, 0, 0, 1266.017211914062
145, 0, 0, 1254.250610351562
146, 0, 0, 1247.289428710938
147, 0, 0, 1234.560668945312
148, 0, 0, 1224.980346679688
149, 0, 0, 1220.385498046875
150, 0, 0, 1209.791381835938
151, 0, 0, 1203.955444335938
152, 0, 0, 1194.976806640625
153, 0, 0, 1185.157348632812
154, 0, 0, 1182.795776367188
155, 0, 0, 1168.278564453125
156, 0, 0, 1158.664672851562
157, 0, 0, 1150.831298828125
158, 0, 0, 1145.679565429688
159, 0, 0, 1144.761108398438
160, 0, 0, 1135.01953125
161, 0, 0, 1133.81005859375
162, 0, 0, 1127.37841796875
163, 0, 0, 1117.01171875
164, 0, 0, 1116.036499023438
