# TOPAS Version: 3.3.p1
# Parameter File: Test.txt
# Results for scorer MLIC_Scorer
# Scored in component: MLIC
# X in 180 bins of 0.177778 cm
# Y in 1 bin  of 10 cm
# Z in 1 bin  of 10 cm
# EnergyDeposit ( MeV ) : Sum   
0, 0, 0, 0
1, 0, 0, 0
2, 0, 0, 0
3, 0, 0, 0
4, 0, 0, 0
5, 0, 0, 0
6, 0, 0, 0
7, 0, 0, 0
8, 0, 0, 0
9, 0, 0, 0
10, 0, 0, 0
11, 0, 0, 0
12, 0, 0, 0
13, 0, 0, 0
14, 0, 0, 0
15, 0, 0, 0
16, 0, 0, 0
17, 0, 0, 0
18, 0, 0, 0
19, 0, 0, 0
20, 0, 0, 0
21, 0, 0, 0
22, 0, 0, 0
23, 0, 0, 0
24, 0, 0, 0
25, 0, 0, 0
26, 0, 0, 0
27, 0, 0, 0
28, 0, 0, 0
29, 0, 0, 0
30, 0, 0, 0
31, 0, 0, 0
32, 0, 0, 0
33, 0, 0, 0
34, 0, 0, 0
35, 0, 0, 0
36, 0, 0, 0
37, 0, 0, 0
38, 0, 0, 0
39, 0, 0, 0
40, 0, 0, 0
41, 0, 0, 0
42, 0, 0, 0
43, 0, 0, 0
44, 0, 0, 0
45, 0, 0, 0
46, 0, 0, 0
47, 0, 0, 0
48, 0, 0, 0
49, 0, 0, 0
50, 0, 0, 0
51, 0, 0, 0
52, 0, 0, 0
53, 0, 0, 0
54, 0, 0, 0
55, 0, 0, 0
56, 0, 0, 0
57, 0, 0, 0
58, 0, 0, 0
59, 0, 0, 0
60, 0, 0, 0
61, 0, 0, 0
62, 0, 0, 0
63, 0, 0, 0
64, 0, 0, 0
65, 0, 0, 0
66, 0, 0, 0
67, 0, 0, 0
68, 0, 0, 0
69, 0, 0, 0
70, 0, 0, 0
71, 0, 0, 0
72, 0, 0, 0
73, 0, 0, 0
74, 0, 0, 0
75, 0, 0, 0
76, 0, 0, 0
77, 0, 0, 0
78, 0, 0, 0
79, 0, 0, 0
80, 0, 0, 0
81, 0, 0, 0
82, 0, 0, 0
83, 0, 0, 0
84, 0, 0, 0
85, 0, 0, 0
86, 0, 0, 0
87, 0, 0, 0
88, 0, 0, 0
89, 0, 0, 0
90, 0, 0, 0
91, 0, 0, 0
92, 0, 0, 0
93, 0, 0, 0
94, 0, 0, 0
95, 0, 0, 0
96, 0, 0, 0
97, 0, 0, 0
98, 0, 0, 0
99, 0, 0, 0
100, 0, 0, 0
101, 0, 0, 0
102, 0, 0, 0
103, 0, 0, 0
104, 0, 0, 0
105, 0, 0, 0
106, 0, 0, 0
107, 0, 0, 0
108, 0, 0, 0
109, 0, 0, 0
110, 0, 0, 0
111, 0, 0, 0
112, 0, 0, 0
113, 0, 0, 0
114, 0, 0, 0
115, 0, 0, 0
116, 0, 0, 0
117, 0, 0, 0
118, 0, 0, 0
119, 0, 0, 0
120, 0, 0, 0.003885770915076137
121, 0, 0, 0
122, 0, 0, 0
123, 0, 0, 0
124, 0, 0, 0
125, 0, 0, 0
126, 0, 0, 0
127, 0, 0, 0.002936587203294039
128, 0, 0, 0
129, 0, 0, 0
130, 0, 0, 0.03794843703508377
131, 0, 0, 0
132, 0, 0, 0
133, 0, 0, 0
134, 0, 0, 0
135, 0, 0, 0.000203135350602679
136, 0, 0, 8.084926605224609
137, 0, 0, 25.11115646362305
138, 0, 0, 197.1373901367188
139, 0, 0, 685.9635009765625
140, 0, 0, 1780.634643554688
141, 0, 0, 3050.954345703125
142, 0, 0, 4203.08740234375
143, 0, 0, 5077.51025390625
144, 0, 0, 5060.01953125
145, 0, 0, 4456.712890625
146, 0, 0, 3874.672119140625
147, 0, 0, 3451.768798828125
148, 0, 0, 3131.599853515625
149, 0, 0, 2887.376220703125
150, 0, 0, 2710.88232421875
151, 0, 0, 2568.135498046875
152, 0, 0, 2438.043212890625
153, 0, 0, 2347.108154296875
154, 0, 0, 2251.755126953125
155, 0, 0, 2166.245361328125
156, 0, 0, 2102.83447265625
157, 0, 0, 2036.050903320312
158, 0, 0, 1984.880981445312
159, 0, 0, 1930.867431640625
160, 0, 0, 1881.714721679688
161, 0, 0, 1829.273681640625
162, 0, 0, 1796.711059570312
163, 0, 0, 1757.546508789062
164, 0, 0, 1721.02978515625
165, 0, 0, 1685.2275390625
166, 0, 0, 1666.161010742188
167, 0, 0, 1630.813720703125
168, 0, 0, 1609.540649414062
169, 0, 0, 1575.828857421875
170, 0, 0, 1550.144897460938
171, 0, 0, 1528.236694335938
172, 0, 0, 1509.359497070312
173, 0, 0, 1485.338134765625
174, 0, 0, 1462.6982421875
175, 0, 0, 1446.98193359375
176, 0, 0, 1433.66943359375
177, 0, 0, 1408.01220703125
178, 0, 0, 1394.753784179688
179, 0, 0, 1378.90869140625
