# TOPAS Version: 3.3.p1
# Parameter File: Test.txt
# Results for scorer MLIC_Scorer
# Scored in component: MLIC
# X in 180 bins of 0.177778 cm
# Y in 1 bin  of 10 cm
# Z in 1 bin  of 10 cm
# EnergyDeposit ( MeV ) : Sum   
0, 0, 0, 0
1, 0, 0, 0
2, 0, 0, 0
3, 0, 0, 0
4, 0, 0, 0
5, 0, 0, 0
6, 0, 0, 0
7, 0, 0, 0
8, 0, 0, 0
9, 0, 0, 0
10, 0, 0, 0
11, 0, 0, 0
12, 0, 0, 0
13, 0, 0, 0
14, 0, 0, 0
15, 0, 0, 0
16, 0, 0, 0
17, 0, 0, 0.004234943073242903
18, 0, 0, 0
19, 0, 0, 0
20, 0, 0, 0
21, 0, 0, 0
22, 0, 0, 0
23, 0, 0, 0
24, 0, 0, 0
25, 0, 0, 0
26, 0, 0, 0
27, 0, 0, 0
28, 0, 0, 0
29, 0, 0, 0
30, 0, 0, 0
31, 0, 0, 0
32, 0, 0, 0
33, 0, 0, 0
34, 0, 0, 0
35, 0, 0, 0
36, 0, 0, 0
37, 0, 0, 0
38, 0, 0, 0
39, 0, 0, 0
40, 0, 0, 0
41, 0, 0, 0
42, 0, 0, 0
43, 0, 0, 0
44, 0, 0, 0
45, 0, 0, 0
46, 0, 0, 0
47, 0, 0, 0
48, 0, 0, 0
49, 0, 0, 0
50, 0, 0, 0
51, 0, 0, 0
52, 0, 0, 0
53, 0, 0, 0
54, 0, 0, 0
55, 0, 0, 0
56, 0, 0, 0
57, 0, 0, 0
58, 0, 0, 0
59, 0, 0, 0
60, 0, 0, 0.03603840619325638
61, 0, 0, 0.003584989113733172
62, 0, 0, 0.005094069056212902
63, 0, 0, 0
64, 0, 0, 0
65, 0, 0, 0
66, 0, 0, 0
67, 0, 0, 0
68, 0, 0, 0
69, 0, 0, 0
70, 0, 0, 12.04026699066162
71, 0, 0, 66.733154296875
72, 0, 0, 241.1168518066406
73, 0, 0, 737.3983154296875
74, 0, 0, 1836.44140625
75, 0, 0, 2892.253662109375
76, 0, 0, 4328.13232421875
77, 0, 0, 5095.72705078125
78, 0, 0, 5104.58056640625
79, 0, 0, 4450.4462890625
80, 0, 0, 3886.288818359375
81, 0, 0, 3400.72607421875
82, 0, 0, 3114.055908203125
83, 0, 0, 2878.571533203125
84, 0, 0, 2708.544677734375
85, 0, 0, 2557.233642578125
86, 0, 0, 2443.039794921875
87, 0, 0, 2333.901123046875
88, 0, 0, 2242.448486328125
89, 0, 0, 2173.989501953125
90, 0, 0, 2094.003662109375
91, 0, 0, 2037.593994140625
92, 0, 0, 1972.2998046875
93, 0, 0, 1931.533081054688
94, 0, 0, 1874.184448242188
95, 0, 0, 1837.167846679688
96, 0, 0, 1795.1748046875
97, 0, 0, 1765.100830078125
98, 0, 0, 1718.938720703125
99, 0, 0, 1693.058471679688
100, 0, 0, 1653.211791992188
101, 0, 0, 1637.347534179688
102, 0, 0, 1593.633056640625
103, 0, 0, 1583.544799804688
104, 0, 0, 1556.4580078125
105, 0, 0, 1527.922607421875
106, 0, 0, 1505.5595703125
107, 0, 0, 1487.0830078125
108, 0, 0, 1462.67919921875
109, 0, 0, 1449.602294921875
110, 0, 0, 1429.4853515625
111, 0, 0, 1414.704223632812
112, 0, 0, 1391.296508789062
113, 0, 0, 1387.990600585938
114, 0, 0, 1362.607299804688
115, 0, 0, 1346.519287109375
116, 0, 0, 1334.278686523438
117, 0, 0, 1321.566772460938
118, 0, 0, 1306.350341796875
119, 0, 0, 1297.119140625
120, 0, 0, 1283.88720703125
121, 0, 0, 1271.67138671875
122, 0, 0, 1262.171997070312
123, 0, 0, 1247.29150390625
124, 0, 0, 1236.3896484375
125, 0, 0, 1233.746948242188
126, 0, 0, 1218.814697265625
127, 0, 0, 1211.148559570312
128, 0, 0, 1197.567138671875
129, 0, 0, 1183.944091796875
130, 0, 0, 1177.924438476562
131, 0, 0, 1166.4990234375
132, 0, 0, 1160.48046875
133, 0, 0, 1148.44189453125
134, 0, 0, 1147.081665039062
135, 0, 0, 1133.619506835938
136, 0, 0, 1131.190185546875
137, 0, 0, 1118.091918945312
138, 0, 0, 1112.074951171875
139, 0, 0, 1103.9248046875
140, 0, 0, 1098.885498046875
141, 0, 0, 1089.06884765625
142, 0, 0, 1086.139526367188
143, 0, 0, 1072.347534179688
144, 0, 0, 1074.92333984375
145, 0, 0, 1061.926879882812
146, 0, 0, 1062.8056640625
147, 0, 0, 1045.2314453125
148, 0, 0, 1048.88671875
149, 0, 0, 1039.567260742188
150, 0, 0, 1035.957275390625
151, 0, 0, 1035.140258789062
152, 0, 0, 1021.205871582031
153, 0, 0, 1017.576110839844
154, 0, 0, 1009.7998046875
155, 0, 0, 1010.867858886719
156, 0, 0, 996.0508422851562
157, 0, 0, 1000.882995605469
158, 0, 0, 995.2840576171875
159, 0, 0, 988.3400268554688
160, 0, 0, 989.6989135742188
161, 0, 0, 980.8099975585938
162, 0, 0, 975.9968872070312
163, 0, 0, 969.0999145507812
164, 0, 0, 966.0579223632812
165, 0, 0, 959.6426391601562
166, 0, 0, 960.1668701171875
167, 0, 0, 959.7291259765625
168, 0, 0, 959.2742919921875
169, 0, 0, 946.3524169921875
170, 0, 0, 938.9435424804688
171, 0, 0, 936.719970703125
172, 0, 0, 930.4763793945312
173, 0, 0, 925.7100830078125
174, 0, 0, 923.236328125
175, 0, 0, 921.0538940429688
176, 0, 0, 921.1143798828125
177, 0, 0, 918.9815673828125
178, 0, 0, 910.708740234375
179, 0, 0, 912.814208984375
