# TOPAS Version: 3.3.p1
# Parameter File: Test.txt
# Results for scorer MLIC_Scorer
# Scored in component: MLIC
# X in 180 bins of 0.177778 cm
# Y in 1 bin  of 10 cm
# Z in 1 bin  of 10 cm
# EnergyDeposit ( MeV ) : Sum   
0, 0, 0, 0
1, 0, 0, 0
2, 0, 0, 0
3, 0, 0, 0
4, 0, 0, 0
5, 0, 0, 0
6, 0, 0, 0
7, 0, 0, 0
8, 0, 0, 0
9, 0, 0, 0
10, 0, 0, 0
11, 0, 0, 0
12, 0, 0, 0
13, 0, 0, 0
14, 0, 0, 0
15, 0, 0, 0
16, 0, 0, 0
17, 0, 0, 0
18, 0, 0, 0
19, 0, 0, 0
20, 0, 0, 0
21, 0, 0, 0
22, 0, 0, 0
23, 0, 0, 0
24, 0, 0, 0
25, 0, 0, 0
26, 0, 0, 0
27, 0, 0, 0
28, 0, 0, 0
29, 0, 0, 0
30, 0, 0, 0
31, 0, 0, 0
32, 0, 0, 0
33, 0, 0, 0
34, 0, 0, 0
35, 0, 0, 0
36, 0, 0, 0
37, 0, 0, 0
38, 0, 0, 0
39, 0, 0, 0
40, 0, 0, 0
41, 0, 0, 0
42, 0, 0, 0
43, 0, 0, 0
44, 0, 0, 0
45, 0, 0, 0
46, 0, 0, 0
47, 0, 0, 0.03228076547384262
48, 0, 0, 0.006428065709769726
49, 0, 0, 0
50, 0, 0, 0
51, 0, 0, 0
52, 0, 0, 0
53, 0, 0, 0
54, 0, 0, 0
55, 0, 0, 0
56, 0, 0, 0
57, 0, 0, 0
58, 0, 0, 0
59, 0, 0, 0
60, 0, 0, 0
61, 0, 0, 13.09551429748535
62, 0, 0, 60.6190299987793
63, 0, 0, 189.1491394042969
64, 0, 0, 652.4592895507812
65, 0, 0, 1713.207275390625
66, 0, 0, 3132.382568359375
67, 0, 0, 4444.87255859375
68, 0, 0, 5019.5556640625
69, 0, 0, 4894.9912109375
70, 0, 0, 4422.02490234375
71, 0, 0, 3887.275634765625
72, 0, 0, 3445.0458984375
73, 0, 0, 3101.142578125
74, 0, 0, 2910.7353515625
75, 0, 0, 2716.537109375
76, 0, 0, 2568.5859375
77, 0, 0, 2448.4921875
78, 0, 0, 2342.4951171875
79, 0, 0, 2250.033935546875
80, 0, 0, 2170.25
81, 0, 0, 2106.64404296875
82, 0, 0, 2040.958984375
83, 0, 0, 1980.9794921875
84, 0, 0, 1923.6298828125
85, 0, 0, 1889.195922851562
86, 0, 0, 1839.4365234375
87, 0, 0, 1799.532348632812
88, 0, 0, 1760.388793945312
89, 0, 0, 1726.18896484375
90, 0, 0, 1688.887084960938
91, 0, 0, 1651.834228515625
92, 0, 0, 1626.238037109375
93, 0, 0, 1593.732177734375
94, 0, 0, 1577.741821289062
95, 0, 0, 1550.00341796875
96, 0, 0, 1527.84130859375
97, 0, 0, 1504.776123046875
98, 0, 0, 1488.984619140625
99, 0, 0, 1463.0439453125
100, 0, 0, 1444.769653320312
101, 0, 0, 1424.740112304688
102, 0, 0, 1415.2724609375
103, 0, 0, 1390.214721679688
104, 0, 0, 1379.557495117188
105, 0, 0, 1364.037963867188
106, 0, 0, 1345.414916992188
107, 0, 0, 1333.791625976562
108, 0, 0, 1320.175537109375
109, 0, 0, 1305.645263671875
110, 0, 0, 1288.108276367188
111, 0, 0, 1288.153076171875
112, 0, 0, 1264.366943359375
113, 0, 0, 1265.837036132812
114, 0, 0, 1248.862060546875
115, 0, 0, 1230.343139648438
116, 0, 0, 1224.89990234375
117, 0, 0, 1212.971069335938
118, 0, 0, 1208.473388671875
119, 0, 0, 1192.9853515625
120, 0, 0, 1189.385375976562
121, 0, 0, 1174.217529296875
122, 0, 0, 1157.603637695312
123, 0, 0, 1155.281616210938
124, 0, 0, 1154.07373046875
125, 0, 0, 1139.115112304688
126, 0, 0, 1136.410400390625
127, 0, 0, 1132.688842773438
128, 0, 0, 1119.731079101562
129, 0, 0, 1110.512329101562
130, 0, 0, 1107.880859375
131, 0, 0, 1092.260375976562
132, 0, 0, 1091.91748046875
133, 0, 0, 1085.452026367188
134, 0, 0, 1078.309326171875
135, 0, 0, 1068.450317382812
136, 0, 0, 1057.535400390625
137, 0, 0, 1055.19677734375
138, 0, 0, 1057.232299804688
139, 0, 0, 1048.1103515625
140, 0, 0, 1050.815673828125
141, 0, 0, 1035.001953125
142, 0, 0, 1035.073608398438
143, 0, 0, 1030.8310546875
144, 0, 0, 1016.281921386719
145, 0, 0, 1028.01220703125
146, 0, 0, 1007.169555664062
147, 0, 0, 1008.642456054688
148, 0, 0, 1007.470581054688
149, 0, 0, 991.8746337890625
150, 0, 0, 991.5631713867188
151, 0, 0, 984.7119750976562
152, 0, 0, 977.2623901367188
153, 0, 0, 977.6585083007812
154, 0, 0, 977.6813354492188
155, 0, 0, 966.9946899414062
156, 0, 0, 969.7160034179688
157, 0, 0, 960.261962890625
158, 0, 0, 952.4789428710938
159, 0, 0, 956.05224609375
160, 0, 0, 947.7889404296875
161, 0, 0, 939.1868286132812
162, 0, 0, 935.9906005859375
163, 0, 0, 936.0726318359375
164, 0, 0, 932.124755859375
165, 0, 0, 927.1456298828125
166, 0, 0, 928.8754272460938
167, 0, 0, 915.8846435546875
168, 0, 0, 909.024658203125
169, 0, 0, 915.6058959960938
170, 0, 0, 909.6480712890625
171, 0, 0, 900.5628051757812
172, 0, 0, 908.3739013671875
173, 0, 0, 887.2208862304688
174, 0, 0, 892.2752685546875
175, 0, 0, 891.0196533203125
176, 0, 0, 889.6196899414062
177, 0, 0, 888.3663940429688
178, 0, 0, 883.4263305664062
179, 0, 0, 885.3070678710938
