# TOPAS Version: 3.3.p1
# Parameter File: Test.txt
# Results for scorer MLIC_Scorer
# Scored in component: MLIC
# X in 180 bins of 0.177778 cm
# Y in 1 bin  of 10 cm
# Z in 1 bin  of 10 cm
# EnergyDeposit ( MeV ) : Sum   
0, 0, 0, 0
1, 0, 0, 0
2, 0, 0, 0
3, 0, 0, 0
4, 0, 0, 0
5, 0, 0, 0
6, 0, 0, 0
7, 0, 0, 0
8, 0, 0, 0
9, 0, 0, 0
10, 0, 0, 0
11, 0, 0, 0
12, 0, 0, 0
13, 0, 0, 0
14, 0, 0, 0
15, 0, 0, 0
16, 0, 0, 0
17, 0, 0, 0
18, 0, 0, 0
19, 0, 0, 0
20, 0, 0, 0
21, 0, 0, 0
22, 0, 0, 0
23, 0, 0, 0
24, 0, 0, 0
25, 0, 0, 0
26, 0, 0, 0
27, 0, 0, 0
28, 0, 0, 0
29, 0, 0, 0
30, 0, 0, 0
31, 0, 0, 0
32, 0, 0, 0
33, 0, 0, 0
34, 0, 0, 0
35, 0, 0, 0
36, 0, 0, 0
37, 0, 0, 0
38, 0, 0, 0
39, 0, 0, 0
40, 0, 0, 0
41, 0, 0, 0
42, 0, 0, 0
43, 0, 0, 0
44, 0, 0, 0
45, 0, 0, 0
46, 0, 0, 0
47, 0, 0, 0
48, 0, 0, 0
49, 0, 0, 0
50, 0, 0, 0
51, 0, 0, 0
52, 0, 0, 0
53, 0, 0, 0
54, 0, 0, 0
55, 0, 0, 0
56, 0, 0, 0
57, 0, 0, 0
58, 0, 0, 0
59, 0, 0, 0
60, 0, 0, 0
61, 0, 0, 0
62, 0, 0, 0
63, 0, 0, 0
64, 0, 0, 0
65, 0, 0, 0
66, 0, 0, 0
67, 0, 0, 0
68, 0, 0, 0
69, 0, 0, 0
70, 0, 0, 0
71, 0, 0, 0
72, 0, 0, 0
73, 0, 0, 0
74, 0, 0, 0
75, 0, 0, 0
76, 0, 0, 0
77, 0, 0, 0
78, 0, 0, 0
79, 0, 0, 0
80, 0, 0, 0
81, 0, 0, 0
82, 0, 0, 0
83, 0, 0, 0
84, 0, 0, 0
85, 0, 0, 0
86, 0, 0, 0
87, 0, 0, 0
88, 0, 0, 0
89, 0, 0, 0
90, 0, 0, 0
91, 0, 0, 0.03595176711678505
92, 0, 0, 0
93, 0, 0, 0
94, 0, 0, 0
95, 0, 0, 0
96, 0, 0, 0
97, 0, 0, 0
98, 0, 0, 0
99, 0, 0, 0
100, 0, 0, 0
101, 0, 0, 0
102, 0, 0, 0
103, 0, 0, 0
104, 0, 0, 0
105, 0, 0, 0
106, 0, 0, 0
107, 0, 0, 0
108, 0, 0, 0
109, 0, 0, 0
110, 0, 0, 0
111, 0, 0, 0
112, 0, 0, 0
113, 0, 0, 0
114, 0, 0, 0
115, 0, 0, 0
116, 0, 0, 0
117, 0, 0, 0
118, 0, 0, 0
119, 0, 0, 0
120, 0, 0, 0
121, 0, 0, 0
122, 0, 0, 0
123, 0, 0, 0
124, 0, 0, 17.98998069763184
125, 0, 0, 60.26491928100586
126, 0, 0, 305.9589538574219
127, 0, 0, 1089.97119140625
128, 0, 0, 2309.064453125
129, 0, 0, 3461.19482421875
130, 0, 0, 4617.13525390625
131, 0, 0, 4989.12109375
132, 0, 0, 4884.56787109375
133, 0, 0, 4236.9638671875
134, 0, 0, 3664.228759765625
135, 0, 0, 3311.69189453125
136, 0, 0, 3037.265869140625
137, 0, 0, 2834.1865234375
138, 0, 0, 2667.39990234375
139, 0, 0, 2517.690185546875
140, 0, 0, 2407.515380859375
141, 0, 0, 2307.31103515625
142, 0, 0, 2221.95654296875
143, 0, 0, 2137.4873046875
144, 0, 0, 2074.63037109375
145, 0, 0, 2020.891845703125
146, 0, 0, 1968.098999023438
147, 0, 0, 1912.50634765625
148, 0, 0, 1875.532836914062
149, 0, 0, 1821.7431640625
150, 0, 0, 1788.111694335938
151, 0, 0, 1747.60791015625
152, 0, 0, 1709.032836914062
153, 0, 0, 1682.140747070312
154, 0, 0, 1653.282470703125
155, 0, 0, 1623.83349609375
156, 0, 0, 1605.126220703125
157, 0, 0, 1570.94482421875
158, 0, 0, 1550.413940429688
159, 0, 0, 1517.511474609375
160, 0, 0, 1500.001831054688
161, 0, 0, 1481.164916992188
162, 0, 0, 1456.730834960938
163, 0, 0, 1446.828369140625
164, 0, 0, 1422.364868164062
165, 0, 0, 1405.634399414062
166, 0, 0, 1388.261108398438
167, 0, 0, 1378.907836914062
168, 0, 0, 1361.415283203125
169, 0, 0, 1340.249633789062
170, 0, 0, 1338.669555664062
171, 0, 0, 1316.915283203125
172, 0, 0, 1302.998901367188
173, 0, 0, 1287.416870117188
174, 0, 0, 1282.7939453125
175, 0, 0, 1265.183227539062
176, 0, 0, 1259.483642578125
177, 0, 0, 1245.71484375
178, 0, 0, 1236.284057617188
179, 0, 0, 1222.713989257812
