# TOPAS Version: 3.3.p1
# Parameter File: Test.txt
# Results for scorer MLIC_Scorer
# Scored in component: MLIC
# X in 180 bins of 0.177778 cm
# Y in 1 bin  of 10 cm
# Z in 1 bin  of 10 cm
# EnergyDeposit ( MeV ) : Sum   
0, 0, 0, 0
1, 0, 0, 0
2, 0, 0, 0
3, 0, 0, 0
4, 0, 0, 0
5, 0, 0, 0
6, 0, 0, 0
7, 0, 0, 0
8, 0, 0, 0
9, 0, 0, 0
10, 0, 0, 0
11, 0, 0, 0
12, 0, 0, 0
13, 0, 0, 0.01062636263668537
14, 0, 0, 0
15, 0, 0, 0.004177811089903116
16, 0, 0, 0
17, 0, 0, 0
18, 0, 0, 0
19, 0, 0, 0
20, 0, 0, 0
21, 0, 0, 0
22, 0, 0, 0
23, 0, 0, 0.05407331138849258
24, 0, 0, 0
25, 0, 0, 0
26, 0, 0, 0.04384519159793854
27, 0, 0, 0
28, 0, 0, 0
29, 0, 0, 0.01326694805175066
30, 0, 0, 4.132044792175293
31, 0, 0, 40.96072387695312
32, 0, 0, 211.044189453125
33, 0, 0, 732.3273315429688
34, 0, 0, 1962.258666992188
35, 0, 0, 3320.560546875
36, 0, 0, 4510.9404296875
37, 0, 0, 5051.05615234375
38, 0, 0, 4848.49462890625
39, 0, 0, 4313.06591796875
40, 0, 0, 3874.1728515625
41, 0, 0, 3417.55712890625
42, 0, 0, 3098.67138671875
43, 0, 0, 2871.71240234375
44, 0, 0, 2697.64990234375
45, 0, 0, 2551.41943359375
46, 0, 0, 2425.3779296875
47, 0, 0, 2331.90576171875
48, 0, 0, 2241.24658203125
49, 0, 0, 2161.33837890625
50, 0, 0, 2095.24755859375
51, 0, 0, 2031.449340820312
52, 0, 0, 1979.57958984375
53, 0, 0, 1919.762817382812
54, 0, 0, 1871.320190429688
55, 0, 0, 1833.618896484375
56, 0, 0, 1791.696411132812
57, 0, 0, 1753.509521484375
58, 0, 0, 1725.629516601562
59, 0, 0, 1683.112548828125
60, 0, 0, 1650.535766601562
61, 0, 0, 1630.45947265625
62, 0, 0, 1608.944946289062
63, 0, 0, 1571.689331054688
64, 0, 0, 1551.68701171875
65, 0, 0, 1526.751586914062
66, 0, 0, 1506.077514648438
67, 0, 0, 1485.2255859375
68, 0, 0, 1468.463623046875
69, 0, 0, 1446.632080078125
70, 0, 0, 1426.09375
71, 0, 0, 1411.423095703125
72, 0, 0, 1385.70849609375
73, 0, 0, 1372.512084960938
74, 0, 0, 1361.915893554688
75, 0, 0, 1347.700561523438
76, 0, 0, 1335.032104492188
77, 0, 0, 1324.655639648438
78, 0, 0, 1303.407958984375
79, 0, 0, 1290.810180664062
80, 0, 0, 1276.311889648438
81, 0, 0, 1272.048950195312
82, 0, 0, 1254.5888671875
83, 0, 0, 1243.922485351562
84, 0, 0, 1232.586303710938
85, 0, 0, 1234.537963867188
86, 0, 0, 1214.322021484375
87, 0, 0, 1208.424560546875
88, 0, 0, 1193.423461914062
89, 0, 0, 1185.585083007812
90, 0, 0, 1181.2138671875
91, 0, 0, 1164.411254882812
92, 0, 0, 1161.574951171875
93, 0, 0, 1153.052124023438
94, 0, 0, 1137.586669921875
95, 0, 0, 1137.169677734375
96, 0, 0, 1124.472900390625
97, 0, 0, 1117.842651367188
98, 0, 0, 1109.094360351562
99, 0, 0, 1105.318725585938
100, 0, 0, 1099.721069335938
101, 0, 0, 1088.140991210938
102, 0, 0, 1087.263671875
103, 0, 0, 1078.173217773438
104, 0, 0, 1075.376708984375
105, 0, 0, 1067.04052734375
106, 0, 0, 1055.323364257812
107, 0, 0, 1050.795043945312
108, 0, 0, 1050.884033203125
109, 0, 0, 1032.406127929688
110, 0, 0, 1038.376342773438
111, 0, 0, 1031.902465820312
112, 0, 0, 1022.878723144531
113, 0, 0, 1021.380310058594
114, 0, 0, 1007.240539550781
115, 0, 0, 1009.636962890625
116, 0, 0, 1001.758728027344
117, 0, 0, 999.2068481445312
118, 0, 0, 997.2603149414062
119, 0, 0, 991.07568359375
120, 0, 0, 983.1237182617188
121, 0, 0, 978.9108276367188
122, 0, 0, 976.9169311523438
123, 0, 0, 969.563232421875
124, 0, 0, 970.1689453125
125, 0, 0, 956.4981079101562
126, 0, 0, 952.0800170898438
127, 0, 0, 953.0216674804688
128, 0, 0, 949.9449462890625
129, 0, 0, 948.991943359375
130, 0, 0, 945.6873779296875
131, 0, 0, 936.0037841796875
132, 0, 0, 930.1493530273438
133, 0, 0, 931.3652954101562
134, 0, 0, 923.8753051757812
135, 0, 0, 928.2297973632812
136, 0, 0, 923.7565307617188
137, 0, 0, 912.2039794921875
138, 0, 0, 911.3073120117188
139, 0, 0, 916.0709228515625
140, 0, 0, 906.5462036132812
141, 0, 0, 898.3101806640625
142, 0, 0, 903.3219604492188
143, 0, 0, 890.6611328125
144, 0, 0, 894.6162719726562
145, 0, 0, 887.6350708007812
146, 0, 0, 883.7905883789062
147, 0, 0, 883.5059814453125
148, 0, 0, 886.1848754882812
149, 0, 0, 883.1497192382812
150, 0, 0, 881.447021484375
151, 0, 0, 863.6732177734375
152, 0, 0, 860.4271240234375
153, 0, 0, 864.0067749023438
154, 0, 0, 859.0355224609375
155, 0, 0, 857.4065551757812
156, 0, 0, 855.3751831054688
157, 0, 0, 858.6244506835938
158, 0, 0, 854.0361938476562
159, 0, 0, 849.1912231445312
160, 0, 0, 849.4794311523438
161, 0, 0, 852.3563842773438
162, 0, 0, 842.5079345703125
163, 0, 0, 843.3151245117188
164, 0, 0, 830.0816040039062
165, 0, 0, 832.4483032226562
166, 0, 0, 831.7700805664062
167, 0, 0, 832.827392578125
168, 0, 0, 824.7305908203125
169, 0, 0, 822.9956665039062
170, 0, 0, 816.546630859375
171, 0, 0, 825.15673828125
172, 0, 0, 817.98828125
173, 0, 0, 809.3978271484375
174, 0, 0, 814.753662109375
175, 0, 0, 814.5676879882812
176, 0, 0, 810.8351440429688
177, 0, 0, 808.5224609375
178, 0, 0, 803.0094604492188
179, 0, 0, 804.5780639648438
