# TOPAS Version: 3.3.p1
# Parameter File: Test.txt
# Results for scorer MLIC_Scorer
# Scored in component: MLIC
# X in 180 bins of 0.183333 cm
# Y in 1 bin  of 10 cm
# Z in 1 bin  of 10 cm
# EnergyDeposit ( MeV ) : Sum   
0, 0, 0, 0
1, 0, 0, 0
2, 0, 0, 0
3, 0, 0, 0
4, 0, 0, 0
5, 0, 0, 0
6, 0, 0, 0
7, 0, 0, 0
8, 0, 0, 0
9, 0, 0, 0
10, 0, 0, 0
11, 0, 0, 0
12, 0, 0, 0
13, 0, 0, 0
14, 0, 0, 0
15, 0, 0, 0
16, 0, 0, 0
17, 0, 0, 0
18, 0, 0, 0
19, 0, 0, 0
20, 0, 0, 0
21, 0, 0, 0
22, 0, 0, 0
23, 0, 0, 0
24, 0, 0, 0
25, 0, 0, 0
26, 0, 0, 0
27, 0, 0, 0
28, 0, 0, 0
29, 0, 0, 0
30, 0, 0, 0
31, 0, 0, 0
32, 0, 0, 0
33, 0, 0, 0
34, 0, 0, 0
35, 0, 0, 0
36, 0, 0, 0
37, 0, 0, 0
38, 0, 0, 0
39, 0, 0, 0
40, 0, 0, 0
41, 0, 0, 0
42, 0, 0, 0
43, 0, 0, 0
44, 0, 0, 0
45, 0, 0, 0
46, 0, 0, 0
47, 0, 0, 0
48, 0, 0, 0.0112628722563386
49, 0, 0, 0
50, 0, 0, 0
51, 0, 0, 0
52, 0, 0, 0
53, 0, 0, 0
54, 0, 0, 15.458664894104
55, 0, 0, 101.5741195678711
56, 0, 0, 479.1695556640625
57, 0, 0, 1411.981811523438
58, 0, 0, 2844.49560546875
59, 0, 0, 4352.79443359375
60, 0, 0, 5205.3427734375
61, 0, 0, 5178.9423828125
62, 0, 0, 4537.44189453125
63, 0, 0, 4086.476806640625
64, 0, 0, 3568.092529296875
65, 0, 0, 3239.955078125
66, 0, 0, 2986.35009765625
67, 0, 0, 2789.895263671875
68, 0, 0, 2639.335205078125
69, 0, 0, 2501.835205078125
70, 0, 0, 2401.052978515625
71, 0, 0, 2305.1982421875
72, 0, 0, 2224.791259765625
73, 0, 0, 2152.436767578125
74, 0, 0, 2082.48583984375
75, 0, 0, 2027.489501953125
76, 0, 0, 1970.71826171875
77, 0, 0, 1927.709838867188
78, 0, 0, 1877.770751953125
79, 0, 0, 1837.039428710938
80, 0, 0, 1792.721801757812
81, 0, 0, 1761.949584960938
82, 0, 0, 1728.221435546875
83, 0, 0, 1692.50830078125
84, 0, 0, 1663.028076171875
85, 0, 0, 1648.072631835938
86, 0, 0, 1608.940795898438
87, 0, 0, 1585.167114257812
88, 0, 0, 1564.337158203125
89, 0, 0, 1535.0078125
90, 0, 0, 1508.353637695312
91, 0, 0, 1495.382934570312
92, 0, 0, 1475.705322265625
93, 0, 0, 1461.191772460938
94, 0, 0, 1436.461547851562
95, 0, 0, 1427.395385742188
96, 0, 0, 1410.455200195312
97, 0, 0, 1398.255493164062
98, 0, 0, 1374.900024414062
99, 0, 0, 1363.751953125
100, 0, 0, 1344.876708984375
101, 0, 0, 1335.47509765625
102, 0, 0, 1318.570068359375
103, 0, 0, 1306.531860351562
104, 0, 0, 1295.752807617188
105, 0, 0, 1283.977294921875
106, 0, 0, 1271.696044921875
107, 0, 0, 1253.65380859375
108, 0, 0, 1248.868896484375
109, 0, 0, 1242.99072265625
110, 0, 0, 1227.831176757812
111, 0, 0, 1219.3017578125
112, 0, 0, 1210.995361328125
113, 0, 0, 1194.90185546875
114, 0, 0, 1185.775756835938
115, 0, 0, 1178.257690429688
116, 0, 0, 1181.82421875
117, 0, 0, 1161.047119140625
118, 0, 0, 1157.840454101562
119, 0, 0, 1153.033447265625
120, 0, 0, 1136.8095703125
121, 0, 0, 1144.6181640625
122, 0, 0, 1124.162353515625
123, 0, 0, 1122.167846679688
124, 0, 0, 1122.28271484375
125, 0, 0, 1103.956176757812
126, 0, 0, 1101.9111328125
127, 0, 0, 1099.748168945312
128, 0, 0, 1086.472534179688
129, 0, 0, 1078.643676757812
130, 0, 0, 1067.253051757812
131, 0, 0, 1069.4365234375
132, 0, 0, 1063.020629882812
133, 0, 0, 1055.319946289062
134, 0, 0, 1057.273559570312
135, 0, 0, 1050.028564453125
136, 0, 0, 1034.246459960938
137, 0, 0, 1034.62646484375
138, 0, 0, 1025.833618164062
139, 0, 0, 1024.6484375
140, 0, 0, 1016.838012695312
141, 0, 0, 1008.486938476562
142, 0, 0, 1011.1083984375
143, 0, 0, 1002.359924316406
144, 0, 0, 996.2344360351562
145, 0, 0, 994.5169677734375
146, 0, 0, 991.9996337890625
147, 0, 0, 990.826904296875
148, 0, 0, 978.6990966796875
149, 0, 0, 978.9238891601562
150, 0, 0, 974.7169189453125
151, 0, 0, 975.8316650390625
152, 0, 0, 968.4251098632812
153, 0, 0, 964.8660278320312
154, 0, 0, 955.3357543945312
155, 0, 0, 956.6153564453125
156, 0, 0, 955.2546997070312
157, 0, 0, 949.0640258789062
158, 0, 0, 942.7430419921875
159, 0, 0, 942.6516723632812
160, 0, 0, 933.3717041015625
161, 0, 0, 928.195556640625
162, 0, 0, 922.5241088867188
163, 0, 0, 917.9722900390625
164, 0, 0, 919.1843872070312
165, 0, 0, 908.8233642578125
166, 0, 0, 915.551513671875
167, 0, 0, 906.8327026367188
168, 0, 0, 909.4588623046875
169, 0, 0, 901.0896606445312
170, 0, 0, 902.61669921875
171, 0, 0, 903.818359375
172, 0, 0, 889.3701782226562
173, 0, 0, 892.7247924804688
174, 0, 0, 885.3833618164062
175, 0, 0, 884.7714233398438
176, 0, 0, 884.4795532226562
177, 0, 0, 877.800537109375
178, 0, 0, 870.6417846679688
179, 0, 0, 877.2750854492188
