# TOPAS Version: 3.3.p1
# Parameter File: Test.txt
# Results for scorer MLIC_Scorer
# Scored in component: MLIC
# X in 180 bins of 0.177778 cm
# Y in 1 bin  of 10 cm
# Z in 1 bin  of 10 cm
# EnergyDeposit ( MeV ) : Sum   
0, 0, 0, 0
1, 0, 0, 0
2, 0, 0, 0
3, 0, 0, 0
4, 0, 0, 0
5, 0, 0, 0
6, 0, 0, 0
7, 0, 0, 0
8, 0, 0, 0
9, 0, 0, 0
10, 0, 0, 0
11, 0, 0, 0
12, 0, 0, 0
13, 0, 0, 0
14, 0, 0, 0
15, 0, 0, 0
16, 0, 0, 0
17, 0, 0, 0
18, 0, 0, 0
19, 0, 0, 0
20, 0, 0, 0
21, 0, 0, 0
22, 0, 0, 0
23, 0, 0, 0
24, 0, 0, 0
25, 0, 0, 0
26, 0, 0, 0
27, 0, 0, 0
28, 0, 0, 0
29, 0, 0, 0
30, 0, 0, 0
31, 0, 0, 0
32, 0, 0, 0
33, 0, 0, 0
34, 0, 0, 0
35, 0, 0, 0
36, 0, 0, 0
37, 0, 0, 0
38, 0, 0, 0
39, 0, 0, 0
40, 0, 0, 0
41, 0, 0, 0
42, 0, 0, 0
43, 0, 0, 0
44, 0, 0, 0
45, 0, 0, 0
46, 0, 0, 0
47, 0, 0, 0
48, 0, 0, 0
49, 0, 0, 0
50, 0, 0, 0
51, 0, 0, 0
52, 0, 0, 0
53, 0, 0, 0
54, 0, 0, 0
55, 0, 0, 0
56, 0, 0, 0
57, 0, 0, 0
58, 0, 0, 0
59, 0, 0, 0
60, 0, 0, 0
61, 0, 0, 0
62, 0, 0, 0
63, 0, 0, 0
64, 0, 0, 0
65, 0, 0, 0
66, 0, 0, 0
67, 0, 0, 0
68, 0, 0, 0
69, 0, 0, 0
70, 0, 0, 0
71, 0, 0, 0
72, 0, 0, 0
73, 0, 0, 0
74, 0, 0, 0
75, 0, 0, 0
76, 0, 0, 0
77, 0, 0, 0
78, 0, 0, 0
79, 0, 0, 0
80, 0, 0, 0
81, 0, 0, 0.03984560817480087
82, 0, 0, 0
83, 0, 0, 0
84, 0, 0, 0
85, 0, 0, 0.001483464380726218
86, 0, 0, 0
87, 0, 0, 0.001661618938669562
88, 0, 0, 0
89, 0, 0, 0
90, 0, 0, 0
91, 0, 0, 0
92, 0, 0, 0
93, 0, 0, 0
94, 0, 0, 0
95, 0, 0, 0
96, 0, 0, 0
97, 0, 0, 0
98, 0, 0, 0
99, 0, 0, 0
100, 0, 0, 0
101, 0, 0, 0
102, 0, 0, 0
103, 0, 0, 0
104, 0, 0, 0
105, 0, 0, 0
106, 0, 0, 0
107, 0, 0, 0
108, 0, 0, 0
109, 0, 0, 7.061419486999512
110, 0, 0, 7.629339694976807
111, 0, 0, 35.72849655151367
112, 0, 0, 261.6316528320312
113, 0, 0, 959.549560546875
114, 0, 0, 1912.500244140625
115, 0, 0, 3481.4951171875
116, 0, 0, 4439.42236328125
117, 0, 0, 4991.14892578125
118, 0, 0, 4757.62353515625
119, 0, 0, 4303.87744140625
120, 0, 0, 3807.490478515625
121, 0, 0, 3404.950439453125
122, 0, 0, 3109.287353515625
123, 0, 0, 2874.99462890625
124, 0, 0, 2691.6474609375
125, 0, 0, 2550.901611328125
126, 0, 0, 2436.04736328125
127, 0, 0, 2334.628173828125
128, 0, 0, 2241.336669921875
129, 0, 0, 2166.594482421875
130, 0, 0, 2097.087890625
131, 0, 0, 2029.243041992188
132, 0, 0, 1974.393310546875
133, 0, 0, 1922.3466796875
134, 0, 0, 1874.27587890625
135, 0, 0, 1827.2900390625
136, 0, 0, 1781.586547851562
137, 0, 0, 1753.040405273438
138, 0, 0, 1721.08349609375
139, 0, 0, 1675.686279296875
140, 0, 0, 1657.8046875
141, 0, 0, 1624.8271484375
142, 0, 0, 1599.422119140625
143, 0, 0, 1573.14990234375
144, 0, 0, 1546.055908203125
145, 0, 0, 1526.775268554688
146, 0, 0, 1506.458740234375
147, 0, 0, 1485.394409179688
148, 0, 0, 1460.60107421875
149, 0, 0, 1446.883911132812
150, 0, 0, 1427.33056640625
151, 0, 0, 1408.031372070312
152, 0, 0, 1389.160400390625
153, 0, 0, 1376.3486328125
154, 0, 0, 1352.49755859375
155, 0, 0, 1346.888061523438
156, 0, 0, 1328.218505859375
157, 0, 0, 1322.702392578125
158, 0, 0, 1311.70458984375
159, 0, 0, 1293.837158203125
160, 0, 0, 1282.1123046875
161, 0, 0, 1268.425659179688
162, 0, 0, 1252.315063476562
163, 0, 0, 1244.421997070312
164, 0, 0, 1232.53076171875
165, 0, 0, 1222.439575195312
166, 0, 0, 1216.6142578125
167, 0, 0, 1205.580932617188
168, 0, 0, 1195.086059570312
169, 0, 0, 1188.001953125
170, 0, 0, 1177.227294921875
171, 0, 0, 1167.990478515625
172, 0, 0, 1152.828979492188
173, 0, 0, 1147.179809570312
174, 0, 0, 1137.574584960938
175, 0, 0, 1130.605590820312
176, 0, 0, 1125.938720703125
177, 0, 0, 1117.76513671875
178, 0, 0, 1107.267211914062
179, 0, 0, 1107.544555664062
