# TOPAS Version: 3.3.p1
# Parameter File: Test.txt
# Results for scorer MLIC_Scorer
# Scored in component: MLIC
# X in 180 bins of 0.177778 cm
# Y in 1 bin  of 10 cm
# Z in 1 bin  of 10 cm
# EnergyDeposit ( MeV ) : Sum   
0, 0, 0, 0
1, 0, 0, 0
2, 0, 0, 0
3, 0, 0, 0
4, 0, 0, 0
5, 0, 0, 0
6, 0, 0, 0
7, 0, 0, 0
8, 0, 0, 0
9, 0, 0, 0
10, 0, 0, 0
11, 0, 0, 0
12, 0, 0, 0
13, 0, 0, 0
14, 0, 0, 0
15, 0, 0, 0
16, 0, 0, 0
17, 0, 0, 0
18, 0, 0, 0
19, 0, 0, 0
20, 0, 0, 0
21, 0, 0, 0
22, 0, 0, 0
23, 0, 0, 0
24, 0, 0, 0
25, 0, 0, 0
26, 0, 0, 0
27, 0, 0, 0
28, 0, 0, 0
29, 0, 0, 0
30, 0, 0, 0
31, 0, 0, 0
32, 0, 0, 0
33, 0, 0, 0
34, 0, 0, 0
35, 0, 0, 0
36, 0, 0, 0
37, 0, 0, 0
38, 0, 0, 0
39, 0, 0, 0
40, 0, 0, 0
41, 0, 0, 0
42, 0, 0, 0
43, 0, 0, 0
44, 0, 0, 0
45, 0, 0, 0
46, 0, 0, 0
47, 0, 0, 0
48, 0, 0, 0
49, 0, 0, 0
50, 0, 0, 0
51, 0, 0, 0
52, 0, 0, 0
53, 0, 0, 0
54, 0, 0, 0
55, 0, 0, 0
56, 0, 0, 0
57, 0, 0, 0
58, 0, 0, 0
59, 0, 0, 0
60, 0, 0, 0
61, 0, 0, 0
62, 0, 0, 0
63, 0, 0, 0
64, 0, 0, 0
65, 0, 0, 0
66, 0, 0, 0
67, 0, 0, 0
68, 0, 0, 0
69, 0, 0, 0
70, 0, 0, 0
71, 0, 0, 0
72, 0, 0, 0
73, 0, 0, 0
74, 0, 0, 0
75, 0, 0, 0
76, 0, 0, 0
77, 0, 0, 0
78, 0, 0, 0
79, 0, 0, 0
80, 0, 0, 0
81, 0, 0, 0
82, 0, 0, 0
83, 0, 0, 0
84, 0, 0, 0
85, 0, 0, 0
86, 0, 0, 0
87, 0, 0, 0
88, 0, 0, 0
89, 0, 0, 0
90, 0, 0, 0
91, 0, 0, 0
92, 0, 0, 0
93, 0, 0, 0
94, 0, 0, 0
95, 0, 0, 0
96, 0, 0, 0
97, 0, 0, 0
98, 0, 0, 0
99, 0, 0, 0
100, 0, 0, 0
101, 0, 0, 0
102, 0, 0, 0
103, 0, 0, 0
104, 0, 0, 0
105, 0, 0, 0
106, 0, 0, 0
107, 0, 0, 0
108, 0, 0, 0
109, 0, 0, 0
110, 0, 0, 0
111, 0, 0, 0
112, 0, 0, 0
113, 0, 0, 0.0191370565444231
114, 0, 0, 0
115, 0, 0, 0
116, 0, 0, 0
117, 0, 0, 2.311631202697754
118, 0, 0, 32.95936584472656
119, 0, 0, 109.9980850219727
120, 0, 0, 453.3425598144531
121, 0, 0, 1423.602905273438
122, 0, 0, 2637.832275390625
123, 0, 0, 4025.4580078125
124, 0, 0, 4890.72021484375
125, 0, 0, 4998.11572265625
126, 0, 0, 4632.24267578125
127, 0, 0, 4000.7099609375
128, 0, 0, 3553.994384765625
129, 0, 0, 3236.41943359375
130, 0, 0, 2965.33837890625
131, 0, 0, 2769.87548828125
132, 0, 0, 2614.941162109375
133, 0, 0, 2480.15380859375
134, 0, 0, 2371.86181640625
135, 0, 0, 2276.290771484375
136, 0, 0, 2190.591552734375
137, 0, 0, 2116.807861328125
138, 0, 0, 2049.894775390625
139, 0, 0, 1993.310913085938
140, 0, 0, 1939.715576171875
141, 0, 0, 1889.8388671875
142, 0, 0, 1848.211181640625
143, 0, 0, 1809.147216796875
144, 0, 0, 1759.878051757812
145, 0, 0, 1726.077026367188
146, 0, 0, 1706.591796875
147, 0, 0, 1678.333618164062
148, 0, 0, 1643.816040039062
149, 0, 0, 1613.935546875
150, 0, 0, 1587.457275390625
151, 0, 0, 1562.787231445312
152, 0, 0, 1536.18603515625
153, 0, 0, 1517.159545898438
154, 0, 0, 1487.335083007812
155, 0, 0, 1479.771728515625
156, 0, 0, 1447.831909179688
157, 0, 0, 1440.234252929688
158, 0, 0, 1427.831665039062
159, 0, 0, 1401.091064453125
160, 0, 0, 1383.957397460938
161, 0, 0, 1366.042114257812
162, 0, 0, 1353.124877929688
163, 0, 0, 1346.53662109375
164, 0, 0, 1324.844360351562
165, 0, 0, 1310.95361328125
166, 0, 0, 1301.446899414062
167, 0, 0, 1288.26513671875
168, 0, 0, 1273.473876953125
169, 0, 0, 1261.139282226562
170, 0, 0, 1242.86328125
171, 0, 0, 1245.638305664062
172, 0, 0, 1239.661010742188
173, 0, 0, 1226.632446289062
174, 0, 0, 1209.913818359375
175, 0, 0, 1202.442749023438
176, 0, 0, 1194.416625976562
177, 0, 0, 1177.030151367188
178, 0, 0, 1166.4697265625
179, 0, 0, 1164.595581054688
