# TOPAS Version: 3.3.p1
# Parameter File: Test.txt
# Results for scorer MLIC_Scorer
# Scored in component: MLIC
# X in 180 bins of 0.177778 cm
# Y in 1 bin  of 10 cm
# Z in 1 bin  of 10 cm
# EnergyDeposit ( MeV ) : Sum   
0, 0, 0, 0
1, 0, 0, 0
2, 0, 0, 0
3, 0, 0, 0
4, 0, 0, 0
5, 0, 0, 0
6, 0, 0, 0
7, 0, 0, 0
8, 0, 0, 0
9, 0, 0, 0
10, 0, 0, 0
11, 0, 0, 0
12, 0, 0, 0
13, 0, 0, 0
14, 0, 0, 0
15, 0, 0, 0
16, 0, 0, 0
17, 0, 0, 0
18, 0, 0, 0
19, 0, 0, 0
20, 0, 0, 0
21, 0, 0, 0
22, 0, 0, 0
23, 0, 0, 0
24, 0, 0, 0
25, 0, 0, 0
26, 0, 0, 0
27, 0, 0, 0
28, 0, 0, 0
29, 0, 0, 0
30, 0, 0, 0
31, 0, 0, 0
32, 0, 0, 0
33, 0, 0, 0
34, 0, 0, 0
35, 0, 0, 0
36, 0, 0, 0
37, 0, 0, 0
38, 0, 0, 0
39, 0, 0, 0.03795799612998962
40, 0, 0, 0
41, 0, 0, 0
42, 0, 0, 0
43, 0, 0, 0
44, 0, 0, 0
45, 0, 0, 0
46, 0, 0, 0
47, 0, 0, 0
48, 0, 0, 0
49, 0, 0, 0
50, 0, 0, 0
51, 0, 0, 0
52, 0, 0, 0
53, 0, 0, 0
54, 0, 0, 0
55, 0, 0, 0
56, 0, 0, 0
57, 0, 0, 0
58, 0, 0, 0
59, 0, 0, 0
60, 0, 0, 0
61, 0, 0, 0
62, 0, 0, 0.004515120759606361
63, 0, 0, 0
64, 0, 0, 0
65, 0, 0, 0
66, 0, 0, 0
67, 0, 0, 0
68, 0, 0, 0
69, 0, 0, 0
70, 0, 0, 0
71, 0, 0, 0
72, 0, 0, 0
73, 0, 0, 0.03808437287807465
74, 0, 0, 0.03971626609563828
75, 0, 0, 0
76, 0, 0, 0
77, 0, 0, 0
78, 0, 0, 0.03562044352293015
79, 0, 0, 11.60618686676025
80, 0, 0, 111.0303726196289
81, 0, 0, 372.8577575683594
82, 0, 0, 939.5640869140625
83, 0, 0, 2102.218017578125
84, 0, 0, 3608.29541015625
85, 0, 0, 4536.01904296875
86, 0, 0, 5157.7216796875
87, 0, 0, 4904.798828125
88, 0, 0, 4254.5556640625
89, 0, 0, 3713.48388671875
90, 0, 0, 3325.32373046875
91, 0, 0, 3030.177734375
92, 0, 0, 2823.52734375
93, 0, 0, 2655.739990234375
94, 0, 0, 2516.9287109375
95, 0, 0, 2409.149169921875
96, 0, 0, 2306.912353515625
97, 0, 0, 2222.052001953125
98, 0, 0, 2151.048095703125
99, 0, 0, 2078.224609375
100, 0, 0, 2025.955932617188
101, 0, 0, 1955.23046875
102, 0, 0, 1907.96826171875
103, 0, 0, 1858.922485351562
104, 0, 0, 1822.833618164062
105, 0, 0, 1782.159423828125
106, 0, 0, 1744.242431640625
107, 0, 0, 1711.370483398438
108, 0, 0, 1684.288208007812
109, 0, 0, 1646.623657226562
110, 0, 0, 1620.722778320312
111, 0, 0, 1590.381469726562
112, 0, 0, 1572.0869140625
113, 0, 0, 1552.071533203125
114, 0, 0, 1528.635375976562
115, 0, 0, 1497.02490234375
116, 0, 0, 1484.300048828125
117, 0, 0, 1462.942626953125
118, 0, 0, 1445.195678710938
119, 0, 0, 1419.20458984375
120, 0, 0, 1402.54150390625
121, 0, 0, 1393.22265625
122, 0, 0, 1373.247436523438
123, 0, 0, 1359.72705078125
124, 0, 0, 1344.85791015625
125, 0, 0, 1327.085205078125
126, 0, 0, 1317.250854492188
127, 0, 0, 1302.749389648438
128, 0, 0, 1283.890747070312
129, 0, 0, 1282.10205078125
130, 0, 0, 1269.636474609375
131, 0, 0, 1259.474853515625
132, 0, 0, 1247.783447265625
133, 0, 0, 1231.379150390625
134, 0, 0, 1215.728149414062
135, 0, 0, 1212.79443359375
136, 0, 0, 1207.984375
137, 0, 0, 1196.50341796875
138, 0, 0, 1184.866455078125
139, 0, 0, 1172.49072265625
140, 0, 0, 1169.691528320312
141, 0, 0, 1155.042846679688
142, 0, 0, 1142.127197265625
143, 0, 0, 1138.358642578125
144, 0, 0, 1130.9609375
145, 0, 0, 1124.756958007812
146, 0, 0, 1110.31982421875
147, 0, 0, 1116.049682617188
148, 0, 0, 1108.070190429688
149, 0, 0, 1092.942504882812
150, 0, 0, 1086.008422851562
151, 0, 0, 1090.2607421875
152, 0, 0, 1076.062133789062
153, 0, 0, 1070.525024414062
154, 0, 0, 1067.647338867188
155, 0, 0, 1062.708862304688
156, 0, 0, 1050.162841796875
157, 0, 0, 1052.419555664062
158, 0, 0, 1042.280151367188
159, 0, 0, 1031.058715820312
160, 0, 0, 1028.123413085938
161, 0, 0, 1019.430358886719
162, 0, 0, 1021.306762695312
163, 0, 0, 1011.498718261719
164, 0, 0, 1008.016479492188
165, 0, 0, 1001.579833984375
166, 0, 0, 989.977783203125
167, 0, 0, 991.2583618164062
168, 0, 0, 987.1382446289062
169, 0, 0, 982.2190551757812
170, 0, 0, 981.768310546875
171, 0, 0, 974.275146484375
172, 0, 0, 975.0553588867188
173, 0, 0, 966.5991821289062
174, 0, 0, 963.1286010742188
175, 0, 0, 961.2744140625
176, 0, 0, 956.4859619140625
177, 0, 0, 948.7008056640625
178, 0, 0, 943.0789184570312
179, 0, 0, 942.8709106445312
