# TOPAS Version: 3.3.p1
# Parameter File: Test.txt
# Results for scorer MLIC_Scorer
# Scored in component: MLIC
# X in 180 bins of 0.222222 cm
# Y in 1 bin  of 10 cm
# Z in 1 bin  of 10 cm
# EnergyDeposit ( MeV ) : Sum   
0, 0, 0, 0
1, 0, 0, 0
2, 0, 0, 0
3, 0, 0, 0
4, 0, 0, 0
5, 0, 0, 0
6, 0, 0, 0
7, 0, 0, 0
8, 0, 0, 0
9, 0, 0, 0
10, 0, 0, 0
11, 0, 0, 0
12, 0, 0, 0
13, 0, 0, 0
14, 0, 0, 0
15, 0, 0, 0
16, 0, 0, 0
17, 0, 0, 0
18, 0, 0, 0
19, 0, 0, 0
20, 0, 0, 0
21, 0, 0, 0
22, 0, 0, 0
23, 0, 0, 0
24, 0, 0, 0
25, 0, 0, 0
26, 0, 0, 0
27, 0, 0, 0
28, 0, 0, 0
29, 0, 0, 0
30, 0, 0, 0
31, 0, 0, 0
32, 0, 0, 0
33, 0, 0, 0
34, 0, 0, 0
35, 0, 0, 0
36, 0, 0, 0
37, 0, 0, 0
38, 0, 0, 0
39, 0, 0, 0
40, 0, 0, 0
41, 0, 0, 0
42, 0, 0, 0.08101874589920044
43, 0, 0, 0
44, 0, 0, 0
45, 0, 0, 0
46, 0, 0, 0
47, 0, 0, 0
48, 0, 0, 0
49, 0, 0, 0
50, 0, 0, 0
51, 0, 0, 0.0355805940926075
52, 0, 0, 0
53, 0, 0, 0
54, 0, 0, 0.01897295005619526
55, 0, 0, 0
56, 0, 0, 0
57, 0, 0, 0
58, 0, 0, 0
59, 0, 0, 27.44554710388184
60, 0, 0, 122.0129165649414
61, 0, 0, 899.330078125
62, 0, 0, 2244.075927734375
63, 0, 0, 4552.29150390625
64, 0, 0, 6100.7607421875
65, 0, 0, 6173.69287109375
66, 0, 0, 5506.7548828125
67, 0, 0, 4610.08447265625
68, 0, 0, 4059.611328125
69, 0, 0, 3656.65185546875
70, 0, 0, 3367.455810546875
71, 0, 0, 3140.00830078125
72, 0, 0, 2967.300048828125
73, 0, 0, 2830.1884765625
74, 0, 0, 2704.5107421875
75, 0, 0, 2606.193603515625
76, 0, 0, 2498.300537109375
77, 0, 0, 2419.057373046875
78, 0, 0, 2347.464111328125
79, 0, 0, 2277.800537109375
80, 0, 0, 2217.41845703125
81, 0, 0, 2165.855712890625
82, 0, 0, 2105.155029296875
83, 0, 0, 2059.861328125
84, 0, 0, 2023.106201171875
85, 0, 0, 1978.979736328125
86, 0, 0, 1925.573364257812
87, 0, 0, 1891.99462890625
88, 0, 0, 1867.307495117188
89, 0, 0, 1837.56298828125
90, 0, 0, 1814.111572265625
91, 0, 0, 1784.580322265625
92, 0, 0, 1753.237548828125
93, 0, 0, 1727.203002929688
94, 0, 0, 1696.225952148438
95, 0, 0, 1679.709350585938
96, 0, 0, 1656.845092773438
97, 0, 0, 1636.426025390625
98, 0, 0, 1617.327270507812
99, 0, 0, 1598.732666015625
100, 0, 0, 1580.326782226562
101, 0, 0, 1564.198974609375
102, 0, 0, 1536.620971679688
103, 0, 0, 1523.638549804688
104, 0, 0, 1514.13671875
105, 0, 0, 1500.103271484375
106, 0, 0, 1482.091186523438
107, 0, 0, 1470.24169921875
108, 0, 0, 1454.203002929688
109, 0, 0, 1437.534912109375
110, 0, 0, 1429.235961914062
111, 0, 0, 1413.657470703125
112, 0, 0, 1406.695190429688
113, 0, 0, 1389.087768554688
114, 0, 0, 1376.797729492188
115, 0, 0, 1363.514526367188
116, 0, 0, 1359.638305664062
117, 0, 0, 1351.085693359375
118, 0, 0, 1338.195190429688
119, 0, 0, 1333.913208007812
120, 0, 0, 1317.437622070312
121, 0, 0, 1308.04638671875
122, 0, 0, 1303.842041015625
123, 0, 0, 1287.033325195312
124, 0, 0, 1290.340576171875
125, 0, 0, 1271.749755859375
126, 0, 0, 1263.313232421875
127, 0, 0, 1259.465576171875
128, 0, 0, 1251.915405273438
129, 0, 0, 1252.656127929688
130, 0, 0, 1236.931762695312
131, 0, 0, 1231.849853515625
132, 0, 0, 1213.16552734375
133, 0, 0, 1218.237060546875
134, 0, 0, 1203.394775390625
135, 0, 0, 1201.093505859375
136, 0, 0, 1191.742553710938
137, 0, 0, 1182.952392578125
138, 0, 0, 1183.556518554688
139, 0, 0, 1174.8935546875
140, 0, 0, 1175.802001953125
141, 0, 0, 1161.353637695312
142, 0, 0, 1159.401733398438
143, 0, 0, 1144.720336914062
144, 0, 0, 1153.672973632812
145, 0, 0, 1142.801391601562
146, 0, 0, 1138.825805664062
147, 0, 0, 1124.050537109375
148, 0, 0, 1131.986206054688
149, 0, 0, 1117.644897460938
150, 0, 0, 1108.260131835938
151, 0, 0, 1104.718017578125
152, 0, 0, 1097.1953125
153, 0, 0, 1101.298583984375
154, 0, 0, 1087.516357421875
155, 0, 0, 1099.789916992188
156, 0, 0, 1091.3486328125
157, 0, 0, 1081.325561523438
158, 0, 0, 1069.354614257812
159, 0, 0, 1078.983154296875
160, 0, 0, 1069.89697265625
161, 0, 0, 1066.25732421875
162, 0, 0, 1056.744262695312
163, 0, 0, 1052.359497070312
164, 0, 0, 1053.517456054688
165, 0, 0, 1053.753295898438
166, 0, 0, 1041.911499023438
167, 0, 0, 1041.913940429688
168, 0, 0, 1032.380981445312
169, 0, 0, 1030.455200195312
170, 0, 0, 1024.630615234375
171, 0, 0, 1023.478088378906
172, 0, 0, 1019.505310058594
173, 0, 0, 1025.454833984375
174, 0, 0, 1017.527770996094
175, 0, 0, 1006.399047851562
176, 0, 0, 1013.699768066406
177, 0, 0, 996.9338989257812
178, 0, 0, 994.4556274414062
179, 0, 0, 991.206787109375
