# TOPAS Version: 3.3.p1
# Parameter File: Test.txt
# Results for scorer MLIC_Scorer
# Scored in component: MLIC
# X in 180 bins of 0.177778 cm
# Y in 1 bin  of 10 cm
# Z in 1 bin  of 10 cm
# EnergyDeposit ( MeV ) : Sum   
0, 0, 0, 0
1, 0, 0, 0
2, 0, 0, 0
3, 0, 0, 0
4, 0, 0, 0
5, 0, 0, 0
6, 0, 0, 0
7, 0, 0, 0
8, 0, 0, 0
9, 0, 0, 0
10, 0, 0, 0
11, 0, 0, 0
12, 0, 0, 0
13, 0, 0, 0
14, 0, 0, 0
15, 0, 0, 0
16, 0, 0, 0
17, 0, 0, 0
18, 0, 0, 0
19, 0, 0, 0
20, 0, 0, 0
21, 0, 0, 0
22, 0, 0, 0
23, 0, 0, 0
24, 0, 0, 0
25, 0, 0, 0
26, 0, 0, 0
27, 0, 0, 0
28, 0, 0, 0
29, 0, 0, 0
30, 0, 0, 0
31, 0, 0, 0
32, 0, 0, 0
33, 0, 0, 0
34, 0, 0, 0
35, 0, 0, 0
36, 0, 0, 0
37, 0, 0, 0
38, 0, 0, 0
39, 0, 0, 0
40, 0, 0, 0
41, 0, 0, 0
42, 0, 0, 0
43, 0, 0, 0
44, 0, 0, 0
45, 0, 0, 0
46, 0, 0, 0
47, 0, 0, 0
48, 0, 0, 0
49, 0, 0, 0
50, 0, 0, 0
51, 0, 0, 0
52, 0, 0, 0
53, 0, 0, 0
54, 0, 0, 0
55, 0, 0, 0
56, 0, 0, 0
57, 0, 0, 0
58, 0, 0, 0
59, 0, 0, 0
60, 0, 0, 0
61, 0, 0, 0
62, 0, 0, 0
63, 0, 0, 0
64, 0, 0, 0
65, 0, 0, 0
66, 0, 0, 0
67, 0, 0, 0
68, 0, 0, 0
69, 0, 0, 0
70, 0, 0, 0
71, 0, 0, 0
72, 0, 0, 0
73, 0, 0, 0
74, 0, 0, 0
75, 0, 0, 0
76, 0, 0, 0
77, 0, 0, 0
78, 0, 0, 0
79, 0, 0, 0
80, 0, 0, 0
81, 0, 0, 0
82, 0, 0, 0
83, 0, 0, 0
84, 0, 0, 0
85, 0, 0, 0
86, 0, 0, 0
87, 0, 0, 0
88, 0, 0, 0
89, 0, 0, 0
90, 0, 0, 0
91, 0, 0, 0
92, 0, 0, 0
93, 0, 0, 0
94, 0, 0, 0
95, 0, 0, 0
96, 0, 0, 0
97, 0, 0, 0
98, 0, 0, 3.74409818649292
99, 0, 0, 9.506624221801758
100, 0, 0, 30.24338722229004
101, 0, 0, 101.0855102539062
102, 0, 0, 236.4169311523438
103, 0, 0, 370.8227233886719
104, 0, 0, 376.2085266113281
105, 0, 0, 419.6450500488281
106, 0, 0, 424.9326477050781
107, 0, 0, 360.3698120117188
108, 0, 0, 308.0288696289062
109, 0, 0, 277.6611022949219
110, 0, 0, 265.1039428710938
111, 0, 0, 241.8127136230469
112, 0, 0, 229.9097595214844
113, 0, 0, 218.2454376220703
114, 0, 0, 206.943359375
115, 0, 0, 199.8555603027344
116, 0, 0, 193.1981964111328
117, 0, 0, 185.5615997314453
118, 0, 0, 180.3267669677734
119, 0, 0, 174.5512847900391
120, 0, 0, 171.5610198974609
121, 0, 0, 165.9973907470703
122, 0, 0, 161.0199890136719
123, 0, 0, 159.3023376464844
124, 0, 0, 153.8467407226562
125, 0, 0, 150.7400207519531
126, 0, 0, 149.0374603271484
127, 0, 0, 144.8559265136719
128, 0, 0, 142.3831176757812
129, 0, 0, 139.4990386962891
130, 0, 0, 139.4991302490234
131, 0, 0, 135.0590209960938
132, 0, 0, 133.0478820800781
133, 0, 0, 131.8216400146484
134, 0, 0, 129.3326263427734
135, 0, 0, 129.2588043212891
136, 0, 0, 126.7572937011719
137, 0, 0, 125.2252960205078
138, 0, 0, 122.8326568603516
139, 0, 0, 124.8986129760742
140, 0, 0, 119.302604675293
141, 0, 0, 118.9579620361328
142, 0, 0, 116.2137451171875
143, 0, 0, 115.3369140625
144, 0, 0, 114.722770690918
145, 0, 0, 115.8951568603516
146, 0, 0, 111.4155960083008
147, 0, 0, 113.5179824829102
148, 0, 0, 110.4141616821289
149, 0, 0, 109.0696792602539
150, 0, 0, 111.0000991821289
151, 0, 0, 108.1005249023438
152, 0, 0, 107.484260559082
153, 0, 0, 105.9718322753906
154, 0, 0, 107.2607727050781
155, 0, 0, 106.5526351928711
156, 0, 0, 102.6035385131836
157, 0, 0, 103.7248001098633
158, 0, 0, 102.5625686645508
159, 0, 0, 101.0254592895508
160, 0, 0, 100.5190734863281
161, 0, 0, 99.21054077148438
162, 0, 0, 99.52274322509766
163, 0, 0, 99.20391845703125
164, 0, 0, 97.90071105957031
165, 0, 0, 97.13026428222656
166, 0, 0, 96.03864288330078
167, 0, 0, 94.6064453125
168, 0, 0, 95.38273620605469
169, 0, 0, 95.85315704345703
170, 0, 0, 93.36387634277344
171, 0, 0, 92.03807830810547
172, 0, 0, 93.27958679199219
173, 0, 0, 91.18579864501953
174, 0, 0, 90.68408966064453
175, 0, 0, 91.09572601318359
176, 0, 0, 89.39926910400391
177, 0, 0, 90.72589111328125
178, 0, 0, 90.66653442382812
179, 0, 0, 88.29058837890625
