# TOPAS Version: 3.3.p1
# Parameter File: Test.txt
# Results for scorer MLIC_Scorer
# Scored in component: MLIC
# X in 180 bins of 0.177778 cm
# Y in 1 bin  of 10 cm
# Z in 1 bin  of 10 cm
# EnergyDeposit ( MeV ) : Sum   
0, 0, 0, 0
1, 0, 0, 0
2, 0, 0, 0
3, 0, 0, 0
4, 0, 0, 0
5, 0, 0, 0
6, 0, 0, 0
7, 0, 0, 0
8, 0, 0, 0
9, 0, 0, 0
10, 0, 0, 0
11, 0, 0, 0
12, 0, 0, 0
13, 0, 0, 0
14, 0, 0, 0
15, 0, 0, 0
16, 0, 0, 0
17, 0, 0, 0
18, 0, 0, 0
19, 0, 0, 0
20, 0, 0, 0
21, 0, 0, 0
22, 0, 0, 0
23, 0, 0, 0
24, 0, 0, 0
25, 0, 0, 0
26, 0, 0, 0
27, 0, 0, 0
28, 0, 0, 0
29, 0, 0, 0
30, 0, 0, 0
31, 0, 0, 0
32, 0, 0, 0
33, 0, 0, 0
34, 0, 0, 0
35, 0, 0, 0
36, 0, 0, 0
37, 0, 0, 0
38, 0, 0, 0
39, 0, 0, 0
40, 0, 0, 0
41, 0, 0, 0
42, 0, 0, 0
43, 0, 0, 0
44, 0, 0, 0
45, 0, 0, 0
46, 0, 0, 0
47, 0, 0, 0
48, 0, 0, 0
49, 0, 0, 0
50, 0, 0, 0
51, 0, 0, 0
52, 0, 0, 0
53, 0, 0, 0
54, 0, 0, 0
55, 0, 0, 0
56, 0, 0, 0
57, 0, 0, 0
58, 0, 0, 0
59, 0, 0, 0
60, 0, 0, 0
61, 0, 0, 0
62, 0, 0, 0
63, 0, 0, 0
64, 0, 0, 0
65, 0, 0, 0
66, 0, 0, 0
67, 0, 0, 0
68, 0, 0, 0
69, 0, 0, 0
70, 0, 0, 0
71, 0, 0, 0
72, 0, 0, 0
73, 0, 0, 0
74, 0, 0, 0
75, 0, 0, 0
76, 0, 0, 0
77, 0, 0, 0
78, 0, 0, 0
79, 0, 0, 0
80, 0, 0, 0
81, 0, 0, 11.17644882202148
82, 0, 0, 81.30485534667969
83, 0, 0, 199.944580078125
84, 0, 0, 261.95703125
85, 0, 0, 327.0670471191406
86, 0, 0, 353.1734313964844
87, 0, 0, 317.2064819335938
88, 0, 0, 287.1991271972656
89, 0, 0, 245.2101745605469
90, 0, 0, 218.0714569091797
91, 0, 0, 201.9918212890625
92, 0, 0, 189.4523162841797
93, 0, 0, 178.8718719482422
94, 0, 0, 168.9091339111328
95, 0, 0, 162.4202117919922
96, 0, 0, 155.2344055175781
97, 0, 0, 148.4264373779297
98, 0, 0, 144.5993041992188
99, 0, 0, 141.3126525878906
100, 0, 0, 134.905029296875
101, 0, 0, 133.8975219726562
102, 0, 0, 128.5669250488281
103, 0, 0, 127.2380828857422
104, 0, 0, 123.9498519897461
105, 0, 0, 122.479118347168
106, 0, 0, 116.936393737793
107, 0, 0, 114.8753814697266
108, 0, 0, 112.52197265625
109, 0, 0, 112.0565414428711
110, 0, 0, 110.014274597168
111, 0, 0, 108.7858123779297
112, 0, 0, 104.5243759155273
113, 0, 0, 105.4013595581055
114, 0, 0, 102.4550552368164
115, 0, 0, 101.6523056030273
116, 0, 0, 98.65494537353516
117, 0, 0, 99.45004272460938
118, 0, 0, 98.75257110595703
119, 0, 0, 97.02144622802734
120, 0, 0, 96.28903961181641
121, 0, 0, 94.44090270996094
122, 0, 0, 92.74151611328125
123, 0, 0, 92.35796356201172
124, 0, 0, 90.83856201171875
125, 0, 0, 91.12390899658203
126, 0, 0, 87.49999237060547
127, 0, 0, 88.02375793457031
128, 0, 0, 86.03229522705078
129, 0, 0, 85.36775970458984
130, 0, 0, 85.99430084228516
131, 0, 0, 86.28567504882812
132, 0, 0, 84.37326049804688
133, 0, 0, 83.73012542724609
134, 0, 0, 80.54642486572266
135, 0, 0, 82.44303894042969
136, 0, 0, 82.00228881835938
137, 0, 0, 79.89481353759766
138, 0, 0, 80.69963836669922
139, 0, 0, 79.7696533203125
140, 0, 0, 78.11888885498047
141, 0, 0, 76.29210662841797
142, 0, 0, 78.35398101806641
143, 0, 0, 76.45758056640625
144, 0, 0, 75.87468719482422
145, 0, 0, 74.91012573242188
146, 0, 0, 75.18972015380859
147, 0, 0, 75.92667388916016
148, 0, 0, 73.79737854003906
149, 0, 0, 75.02610778808594
150, 0, 0, 73.42079925537109
151, 0, 0, 72.17595672607422
152, 0, 0, 74.00112915039062
153, 0, 0, 73.24188995361328
154, 0, 0, 74.35257720947266
155, 0, 0, 72.12685394287109
156, 0, 0, 71.71583557128906
157, 0, 0, 70.20819854736328
158, 0, 0, 72.82878875732422
159, 0, 0, 72.41404724121094
160, 0, 0, 71.55999755859375
161, 0, 0, 68.80185699462891
162, 0, 0, 69.99327850341797
163, 0, 0, 69.20752716064453
164, 0, 0, 67.51940155029297
165, 0, 0, 69.73239135742188
166, 0, 0, 66.18734741210938
167, 0, 0, 65.62641143798828
168, 0, 0, 67.24569702148438
169, 0, 0, 68.17432403564453
170, 0, 0, 66.00074768066406
171, 0, 0, 65.87860870361328
172, 0, 0, 65.92424774169922
173, 0, 0, 65.3660888671875
174, 0, 0, 66.91439056396484
175, 0, 0, 63.3973503112793
176, 0, 0, 64.19729614257812
177, 0, 0, 63.23254776000977
178, 0, 0, 63.23349380493164
179, 0, 0, 62.55491256713867
