# TOPAS Version: 3.3.p1
# Parameter File: Test.txt
# Results for scorer MLIC_Scorer
# Scored in component: MLIC
# X in 165 bins of 0.2 cm
# Y in 1 bin  of 10 cm
# Z in 1 bin  of 10 cm
# EnergyDeposit ( MeV ) : Sum   
0, 0, 0, 0
1, 0, 0, 0
2, 0, 0, 0
3, 0, 0, 0
4, 0, 0, 0
5, 0, 0, 0
6, 0, 0, 0
7, 0, 0, 0
8, 0, 0, 0
9, 0, 0, 0
10, 0, 0, 0
11, 0, 0, 0
12, 0, 0, 0
13, 0, 0, 0
14, 0, 0, 0
15, 0, 0, 0
16, 0, 0, 0
17, 0, 0, 0
18, 0, 0, 0
19, 0, 0, 0
20, 0, 0, 0
21, 0, 0, 0
22, 0, 0, 0
23, 0, 0, 0
24, 0, 0, 0
25, 0, 0, 0
26, 0, 0, 0
27, 0, 0, 0
28, 0, 0, 0
29, 0, 0, 0
30, 0, 0, 0
31, 0, 0, 0
32, 0, 0, 0
33, 0, 0, 0
34, 0, 0, 0
35, 0, 0, 0
36, 0, 0, 0
37, 0, 0, 0
38, 0, 0, 0
39, 0, 0, 0
40, 0, 0, 0
41, 0, 0, 0
42, 0, 0, 0
43, 0, 0, 0
44, 0, 0, 0
45, 0, 0, 0
46, 0, 0, 0
47, 0, 0, 0
48, 0, 0, 0
49, 0, 0, 0
50, 0, 0, 0
51, 0, 0, 0
52, 0, 0, 0
53, 0, 0, 0
54, 0, 0, 0
55, 0, 0, 0
56, 0, 0, 0
57, 0, 0, 0
58, 0, 0, 0
59, 0, 0, 0
60, 0, 0, 0
61, 0, 0, 0
62, 0, 0, 0
63, 0, 0, 0
64, 0, 0, 0
65, 0, 0, 0
66, 0, 0, 0
67, 0, 0, 0
68, 0, 0, 0
69, 0, 0, 0
70, 0, 0, 0
71, 0, 0, 2.42696475982666
72, 0, 0, 96.11506652832031
73, 0, 0, 552.4881591796875
74, 0, 0, 1385.051147460938
75, 0, 0, 2701.518798828125
76, 0, 0, 4332.171875
77, 0, 0, 5271.51953125
78, 0, 0, 5430.6123046875
79, 0, 0, 4971.71728515625
80, 0, 0, 4263.265625
81, 0, 0, 3831.18310546875
82, 0, 0, 3436.59033203125
83, 0, 0, 3171.80224609375
84, 0, 0, 2955.66015625
85, 0, 0, 2795.567626953125
86, 0, 0, 2650.233642578125
87, 0, 0, 2537.558349609375
88, 0, 0, 2437.36328125
89, 0, 0, 2345.957763671875
90, 0, 0, 2277.7451171875
91, 0, 0, 2191.412109375
92, 0, 0, 2136.50732421875
93, 0, 0, 2081.602783203125
94, 0, 0, 2027.89501953125
95, 0, 0, 1986.259155273438
96, 0, 0, 1931.427368164062
97, 0, 0, 1898.065185546875
98, 0, 0, 1851.055419921875
99, 0, 0, 1815.697998046875
100, 0, 0, 1787.324584960938
101, 0, 0, 1747.060546875
102, 0, 0, 1729.340698242188
103, 0, 0, 1691.59814453125
104, 0, 0, 1669.18994140625
105, 0, 0, 1643.404418945312
106, 0, 0, 1623.988525390625
107, 0, 0, 1602.029052734375
108, 0, 0, 1575.87158203125
109, 0, 0, 1565.563842773438
110, 0, 0, 1533.4345703125
111, 0, 0, 1516.681762695312
112, 0, 0, 1508.00732421875
113, 0, 0, 1484.867431640625
114, 0, 0, 1467.5322265625
115, 0, 0, 1446.449096679688
116, 0, 0, 1437.576904296875
117, 0, 0, 1417.88037109375
118, 0, 0, 1405.987915039062
119, 0, 0, 1394.535278320312
120, 0, 0, 1381.80712890625
121, 0, 0, 1367.925903320312
122, 0, 0, 1349.891967773438
123, 0, 0, 1346.458862304688
124, 0, 0, 1330.060302734375
125, 0, 0, 1311.919921875
126, 0, 0, 1312.240600585938
127, 0, 0, 1293.486206054688
128, 0, 0, 1289.175537109375
129, 0, 0, 1274.792114257812
130, 0, 0, 1262.933471679688
131, 0, 0, 1256.97265625
132, 0, 0, 1248.7802734375
133, 0, 0, 1238.601196289062
134, 0, 0, 1232.083862304688
135, 0, 0, 1219.998168945312
136, 0, 0, 1211.356323242188
137, 0, 0, 1204.932983398438
138, 0, 0, 1192.169189453125
139, 0, 0, 1190.12353515625
140, 0, 0, 1178.013671875
141, 0, 0, 1174.677001953125
142, 0, 0, 1171.554077148438
143, 0, 0, 1152.093627929688
144, 0, 0, 1154.897338867188
145, 0, 0, 1140.280639648438
146, 0, 0, 1140.399536132812
147, 0, 0, 1131.6982421875
148, 0, 0, 1123.875610351562
149, 0, 0, 1119.616577148438
150, 0, 0, 1118.993286132812
151, 0, 0, 1110.454467773438
152, 0, 0, 1100.616333007812
153, 0, 0, 1097.52783203125
154, 0, 0, 1089.86767578125
155, 0, 0, 1088.483642578125
156, 0, 0, 1079.555419921875
157, 0, 0, 1070.258056640625
158, 0, 0, 1066.079956054688
159, 0, 0, 1059.105712890625
160, 0, 0, 1064.159912109375
161, 0, 0, 1053.46533203125
162, 0, 0, 1053.656494140625
163, 0, 0, 1049.05517578125
164, 0, 0, 1038.051513671875
