# TOPAS Version: 3.3.p1
# Parameter File: Test.txt
# Results for scorer MLIC_Scorer
# Scored in component: MLIC
# X in 180 bins of 0.183333 cm
# Y in 1 bin  of 10 cm
# Z in 1 bin  of 10 cm
# EnergyDeposit ( MeV ) : Sum   
0, 0, 0, 0
1, 0, 0, 0
2, 0, 0, 0
3, 0, 0, 0
4, 0, 0, 0
5, 0, 0, 0
6, 0, 0, 0
7, 0, 0, 0
8, 0, 0, 0
9, 0, 0, 0
10, 0, 0, 0
11, 0, 0, 0.0009382776916027069
12, 0, 0, 0
13, 0, 0, 0
14, 0, 0, 0
15, 0, 0, 0
16, 0, 0, 0
17, 0, 0, 0
18, 0, 0, 0
19, 0, 0, 0
20, 0, 0, 0
21, 0, 0, 0
22, 0, 0, 0
23, 0, 0, 0
24, 0, 0, 0
25, 0, 0, 0
26, 0, 0, 0
27, 0, 0, 0
28, 0, 0, 0
29, 0, 0, 0
30, 0, 0, 0
31, 0, 0, 0
32, 0, 0, 0
33, 0, 0, 0
34, 0, 0, 0
35, 0, 0, 0
36, 0, 0, 0
37, 0, 0, 0
38, 0, 0, 0
39, 0, 0, 0
40, 0, 0, 0
41, 0, 0, 0
42, 0, 0, 0
43, 0, 0, 0
44, 0, 0, 0
45, 0, 0, 64.8541259765625
46, 0, 0, 344.3740234375
47, 0, 0, 1169.869506835938
48, 0, 0, 2599.973388671875
49, 0, 0, 4173.20947265625
50, 0, 0, 5043.7353515625
51, 0, 0, 5292.47900390625
52, 0, 0, 4725.33935546875
53, 0, 0, 4163.98193359375
54, 0, 0, 3655.795654296875
55, 0, 0, 3276.952880859375
56, 0, 0, 3014.468017578125
57, 0, 0, 2815.22314453125
58, 0, 0, 2666.667236328125
59, 0, 0, 2522.927734375
60, 0, 0, 2420.01708984375
61, 0, 0, 2325.359619140625
62, 0, 0, 2231.785888671875
63, 0, 0, 2157.28857421875
64, 0, 0, 2097.906005859375
65, 0, 0, 2039.432983398438
66, 0, 0, 1974.258911132812
67, 0, 0, 1931.986572265625
68, 0, 0, 1885.685180664062
69, 0, 0, 1839.651733398438
70, 0, 0, 1806.117797851562
71, 0, 0, 1770.65576171875
72, 0, 0, 1743.13134765625
73, 0, 0, 1697.781860351562
74, 0, 0, 1674.109252929688
75, 0, 0, 1635.810424804688
76, 0, 0, 1620.380737304688
77, 0, 0, 1584.216796875
78, 0, 0, 1565.513549804688
79, 0, 0, 1550.248413085938
80, 0, 0, 1519.519653320312
81, 0, 0, 1499.723876953125
82, 0, 0, 1472.181030273438
83, 0, 0, 1457.730102539062
84, 0, 0, 1444.45849609375
85, 0, 0, 1425.2041015625
86, 0, 0, 1405.13232421875
87, 0, 0, 1391.55712890625
88, 0, 0, 1379.411376953125
89, 0, 0, 1364.207153320312
90, 0, 0, 1341.967041015625
91, 0, 0, 1339.055786132812
92, 0, 0, 1318.58837890625
93, 0, 0, 1312.859130859375
94, 0, 0, 1294.21533203125
95, 0, 0, 1279.38427734375
96, 0, 0, 1271.419921875
97, 0, 0, 1259.442993164062
98, 0, 0, 1257.127319335938
99, 0, 0, 1231.834350585938
100, 0, 0, 1223.922729492188
101, 0, 0, 1217.772338867188
102, 0, 0, 1217.888061523438
103, 0, 0, 1205.332153320312
104, 0, 0, 1191.856079101562
105, 0, 0, 1197.062866210938
106, 0, 0, 1172.727172851562
107, 0, 0, 1175.40283203125
108, 0, 0, 1150.992309570312
109, 0, 0, 1157.068115234375
110, 0, 0, 1138.016723632812
111, 0, 0, 1140.382568359375
112, 0, 0, 1132.201538085938
113, 0, 0, 1119.257446289062
114, 0, 0, 1116.423461914062
115, 0, 0, 1111.39013671875
116, 0, 0, 1097.18798828125
117, 0, 0, 1089.31787109375
118, 0, 0, 1085.716430664062
119, 0, 0, 1082.051513671875
120, 0, 0, 1077.390502929688
121, 0, 0, 1067.865844726562
122, 0, 0, 1068.586303710938
123, 0, 0, 1057.684326171875
124, 0, 0, 1049.661987304688
125, 0, 0, 1040.3349609375
126, 0, 0, 1046.446655273438
127, 0, 0, 1037.8115234375
128, 0, 0, 1029.491821289062
129, 0, 0, 1020.141235351562
130, 0, 0, 1021.109680175781
131, 0, 0, 1016.922668457031
132, 0, 0, 1004.930480957031
133, 0, 0, 1014.316101074219
134, 0, 0, 997.39599609375
135, 0, 0, 997.6220703125
136, 0, 0, 982.6161499023438
137, 0, 0, 983.3199462890625
138, 0, 0, 976.1696166992188
139, 0, 0, 988.7320556640625
140, 0, 0, 965.9844970703125
141, 0, 0, 972.6869506835938
142, 0, 0, 968.0089111328125
143, 0, 0, 962.6521606445312
144, 0, 0, 952.8671264648438
145, 0, 0, 955.6737060546875
146, 0, 0, 954.52099609375
147, 0, 0, 939.0345458984375
148, 0, 0, 942.6041870117188
149, 0, 0, 936.5071411132812
150, 0, 0, 931.7264404296875
151, 0, 0, 930.4260864257812
152, 0, 0, 925.9345703125
153, 0, 0, 923.8074951171875
154, 0, 0, 916.663330078125
155, 0, 0, 920.7867431640625
156, 0, 0, 912.081787109375
157, 0, 0, 915.2833862304688
158, 0, 0, 902.35205078125
159, 0, 0, 896.5641479492188
160, 0, 0, 899.96484375
161, 0, 0, 904.1210327148438
162, 0, 0, 896.0606689453125
163, 0, 0, 887.6766967773438
164, 0, 0, 886.3162231445312
165, 0, 0, 887.4491577148438
166, 0, 0, 888.4357299804688
167, 0, 0, 873.4041137695312
168, 0, 0, 879.3709106445312
169, 0, 0, 872.9788818359375
170, 0, 0, 875.462890625
171, 0, 0, 871.1672973632812
172, 0, 0, 860.745849609375
173, 0, 0, 859.6260986328125
174, 0, 0, 873.2076416015625
175, 0, 0, 864.69677734375
176, 0, 0, 852.32373046875
177, 0, 0, 852.2119140625
178, 0, 0, 853.4668579101562
179, 0, 0, 843.6407470703125
