# TOPAS Version: 3.3.p1
# Parameter File: Test.txt
# Results for scorer MLIC_Scorer
# Scored in component: MLIC
# X in 180 bins of 0.177778 cm
# Y in 1 bin  of 10 cm
# Z in 1 bin  of 10 cm
# EnergyDeposit ( MeV ) : Sum   
0, 0, 0, 0
1, 0, 0, 0
2, 0, 0, 0
3, 0, 0, 0
4, 0, 0, 0
5, 0, 0, 0
6, 0, 0, 0
7, 0, 0, 0
8, 0, 0, 0
9, 0, 0, 0
10, 0, 0, 0
11, 0, 0, 0
12, 0, 0, 0
13, 0, 0, 0
14, 0, 0, 0
15, 0, 0, 0
16, 0, 0, 0
17, 0, 0, 0
18, 0, 0, 0
19, 0, 0, 0
20, 0, 0, 0
21, 0, 0, 0
22, 0, 0, 0
23, 0, 0, 0
24, 0, 0, 0
25, 0, 0, 0
26, 0, 0, 0
27, 0, 0, 0
28, 0, 0, 0
29, 0, 0, 0
30, 0, 0, 0
31, 0, 0, 0
32, 0, 0, 0
33, 0, 0, 0
34, 0, 0, 0
35, 0, 0, 0
36, 0, 0, 0
37, 0, 0, 0
38, 0, 0, 0
39, 0, 0, 0
40, 0, 0, 0
41, 0, 0, 0
42, 0, 0, 0
43, 0, 0, 0
44, 0, 0, 0
45, 0, 0, 0
46, 0, 0, 0
47, 0, 0, 0
48, 0, 0, 0
49, 0, 0, 0
50, 0, 0, 0
51, 0, 0, 0
52, 0, 0, 0
53, 0, 0, 0
54, 0, 0, 0
55, 0, 0, 0
56, 0, 0, 0.003286261344328523
57, 0, 0, 0
58, 0, 0, 0
59, 0, 0, 0
60, 0, 0, 0
61, 0, 0, 0
62, 0, 0, 0
63, 0, 0, 0.0330924391746521
64, 0, 0, 0
65, 0, 0, 0
66, 0, 0, 0
67, 0, 0, 0.001766854664310813
68, 0, 0, 0
69, 0, 0, 0
70, 0, 0, 0
71, 0, 0, 0
72, 0, 0, 0
73, 0, 0, 0
74, 0, 0, 0
75, 0, 0, 0
76, 0, 0, 0
77, 0, 0, 0
78, 0, 0, 0
79, 0, 0, 0
80, 0, 0, 0
81, 0, 0, 0
82, 0, 0, 0
83, 0, 0, 0
84, 0, 0, 0
85, 0, 0, 0
86, 0, 0, 0.003086486598476768
87, 0, 0, 0
88, 0, 0, 0
89, 0, 0, 0
90, 0, 0, 0
91, 0, 0, 0
92, 0, 0, 0
93, 0, 0, 0
94, 0, 0, 0
95, 0, 0, 0
96, 0, 0, 0
97, 0, 0, 0
98, 0, 0, 0
99, 0, 0, 0
100, 0, 0, 0.001324826385825872
101, 0, 0, 3.626163721084595
102, 0, 0, 70.21452331542969
103, 0, 0, 204.4484252929688
104, 0, 0, 596.9788818359375
105, 0, 0, 1549.400634765625
106, 0, 0, 2943.9873046875
107, 0, 0, 4282.3857421875
108, 0, 0, 5036.2861328125
109, 0, 0, 5028.7685546875
110, 0, 0, 4491.5654296875
111, 0, 0, 3913.447265625
112, 0, 0, 3485.77880859375
113, 0, 0, 3152.659912109375
114, 0, 0, 2906.290283203125
115, 0, 0, 2727.572998046875
116, 0, 0, 2576.4765625
117, 0, 0, 2445.50732421875
118, 0, 0, 2347.676025390625
119, 0, 0, 2257.242431640625
120, 0, 0, 2175.711181640625
121, 0, 0, 2103.57177734375
122, 0, 0, 2043.185302734375
123, 0, 0, 1990.209838867188
124, 0, 0, 1930.021362304688
125, 0, 0, 1883.385620117188
126, 0, 0, 1840.895751953125
127, 0, 0, 1799.188720703125
128, 0, 0, 1754.926635742188
129, 0, 0, 1725.253784179688
130, 0, 0, 1695.785766601562
131, 0, 0, 1659.493530273438
132, 0, 0, 1636.870849609375
133, 0, 0, 1604.207763671875
134, 0, 0, 1576.749755859375
135, 0, 0, 1557.443237304688
136, 0, 0, 1530.936401367188
137, 0, 0, 1509.64599609375
138, 0, 0, 1490.772216796875
139, 0, 0, 1473.850952148438
140, 0, 0, 1452.863159179688
141, 0, 0, 1432.502685546875
142, 0, 0, 1412.935791015625
143, 0, 0, 1396.330200195312
144, 0, 0, 1385.236450195312
145, 0, 0, 1366.809692382812
146, 0, 0, 1347.751098632812
147, 0, 0, 1338.246704101562
148, 0, 0, 1327.566162109375
149, 0, 0, 1306.28125
150, 0, 0, 1299.130737304688
151, 0, 0, 1287.538940429688
152, 0, 0, 1271.257690429688
153, 0, 0, 1256.962036132812
154, 0, 0, 1242.56787109375
155, 0, 0, 1240.017211914062
156, 0, 0, 1232.41943359375
157, 0, 0, 1213.639282226562
158, 0, 0, 1206.044921875
159, 0, 0, 1196.984252929688
160, 0, 0, 1184.939697265625
161, 0, 0, 1183.471557617188
162, 0, 0, 1170.001708984375
163, 0, 0, 1161.543212890625
164, 0, 0, 1157.68115234375
165, 0, 0, 1141.962158203125
166, 0, 0, 1132.608642578125
167, 0, 0, 1127.92822265625
168, 0, 0, 1120.534423828125
169, 0, 0, 1116.9873046875
170, 0, 0, 1109.19287109375
171, 0, 0, 1100.2158203125
172, 0, 0, 1094.868408203125
173, 0, 0, 1078.0751953125
174, 0, 0, 1076.906494140625
175, 0, 0, 1075.944580078125
176, 0, 0, 1061.792602539062
177, 0, 0, 1063.610595703125
178, 0, 0, 1054.559326171875
179, 0, 0, 1040.73095703125
