# TOPAS Version: 3.3.p1
# Parameter File: Test.txt
# Results for scorer MLIC_Scorer
# Scored in component: MLIC
# X in 165 bins of 0.2 cm
# Y in 1 bin  of 10 cm
# Z in 1 bin  of 10 cm
# EnergyDeposit ( MeV ) : Sum   
0, 0, 0, 854.6022338867188
1, 0, 0, 860.6591796875
2, 0, 0, 860.9048461914062
3, 0, 0, 868.1604614257812
4, 0, 0, 868.447998046875
5, 0, 0, 871.2584228515625
6, 0, 0, 865.9344482421875
7, 0, 0, 873.0848388671875
8, 0, 0, 869.5344848632812
9, 0, 0, 878.77587890625
10, 0, 0, 872.2952270507812
11, 0, 0, 876.7373657226562
12, 0, 0, 880.8717041015625
13, 0, 0, 880.972900390625
14, 0, 0, 880.644287109375
15, 0, 0, 886.4087524414062
16, 0, 0, 891.5137329101562
17, 0, 0, 889.0587158203125
18, 0, 0, 900.8598022460938
19, 0, 0, 886.7144165039062
20, 0, 0, 900.5274658203125
21, 0, 0, 906.3032836914062
22, 0, 0, 903.1377563476562
23, 0, 0, 905.1065063476562
24, 0, 0, 915.8758544921875
25, 0, 0, 912.675048828125
26, 0, 0, 916.8097534179688
27, 0, 0, 921.5833740234375
28, 0, 0, 921.7718505859375
29, 0, 0, 925.9432373046875
30, 0, 0, 928.8038330078125
31, 0, 0, 933.9794921875
32, 0, 0, 937.7406616210938
33, 0, 0, 941.7542114257812
34, 0, 0, 939.3323364257812
35, 0, 0, 950.4596557617188
36, 0, 0, 945.176513671875
37, 0, 0, 948.1874389648438
38, 0, 0, 947.93994140625
39, 0, 0, 958.1873779296875
40, 0, 0, 957.8340454101562
41, 0, 0, 965.7211303710938
42, 0, 0, 967.822998046875
43, 0, 0, 971.5196533203125
44, 0, 0, 972.2566528320312
45, 0, 0, 973.0339965820312
46, 0, 0, 973.2971801757812
47, 0, 0, 981.279296875
48, 0, 0, 991.1112060546875
49, 0, 0, 987.669921875
50, 0, 0, 1006.149047851562
51, 0, 0, 997.9522705078125
52, 0, 0, 1006.659362792969
53, 0, 0, 1014.707580566406
54, 0, 0, 1009.025451660156
55, 0, 0, 1015.356323242188
56, 0, 0, 1023.039184570312
57, 0, 0, 1031.721923828125
58, 0, 0, 1033.930053710938
59, 0, 0, 1037.683349609375
60, 0, 0, 1036.898193359375
61, 0, 0, 1041.435668945312
62, 0, 0, 1050.377075195312
63, 0, 0, 1049.679809570312
64, 0, 0, 1056.249267578125
65, 0, 0, 1058.47998046875
66, 0, 0, 1070.210205078125
67, 0, 0, 1072.654174804688
68, 0, 0, 1073.740844726562
69, 0, 0, 1089.203369140625
70, 0, 0, 1095.924438476562
71, 0, 0, 1096.028930664062
72, 0, 0, 1111.530883789062
73, 0, 0, 1102.87060546875
74, 0, 0, 1120.322143554688
75, 0, 0, 1115.50634765625
76, 0, 0, 1130.14404296875
77, 0, 0, 1125.140502929688
78, 0, 0, 1142.408325195312
79, 0, 0, 1141.6982421875
80, 0, 0, 1145.740844726562
81, 0, 0, 1163.911499023438
82, 0, 0, 1171.197387695312
83, 0, 0, 1175.984741210938
84, 0, 0, 1171.4228515625
85, 0, 0, 1189.21142578125
86, 0, 0, 1204.4755859375
87, 0, 0, 1204.583129882812
88, 0, 0, 1206.236206054688
89, 0, 0, 1218.911499023438
90, 0, 0, 1227.668579101562
91, 0, 0, 1230.854125976562
92, 0, 0, 1254.691528320312
93, 0, 0, 1255.845092773438
94, 0, 0, 1266.431884765625
95, 0, 0, 1273.538330078125
96, 0, 0, 1282.519287109375
97, 0, 0, 1295.282958984375
98, 0, 0, 1309.517700195312
99, 0, 0, 1323.501586914062
100, 0, 0, 1332.952514648438
101, 0, 0, 1339.654052734375
102, 0, 0, 1352.76171875
103, 0, 0, 1359.533203125
104, 0, 0, 1373.957153320312
105, 0, 0, 1389.738525390625
106, 0, 0, 1404.228149414062
107, 0, 0, 1419.661987304688
108, 0, 0, 1435.209350585938
109, 0, 0, 1447.75439453125
110, 0, 0, 1468.690673828125
111, 0, 0, 1484.417602539062
112, 0, 0, 1495.132934570312
113, 0, 0, 1519.620239257812
114, 0, 0, 1531.190551757812
115, 0, 0, 1547.2421875
116, 0, 0, 1575.810302734375
117, 0, 0, 1605.0498046875
118, 0, 0, 1617.86962890625
119, 0, 0, 1644.450927734375
120, 0, 0, 1668.92138671875
121, 0, 0, 1690.227172851562
122, 0, 0, 1721.074584960938
123, 0, 0, 1742.908813476562
124, 0, 0, 1788.173217773438
125, 0, 0, 1816.089477539062
126, 0, 0, 1852.230224609375
127, 0, 0, 1889.813720703125
128, 0, 0, 1929.44189453125
129, 0, 0, 1983.07373046875
130, 0, 0, 2026.046630859375
131, 0, 0, 2069.68896484375
132, 0, 0, 2129.783447265625
133, 0, 0, 2190.016845703125
134, 0, 0, 2256.266845703125
135, 0, 0, 2340.46044921875
136, 0, 0, 2431.47412109375
137, 0, 0, 2520.3935546875
138, 0, 0, 2637.66357421875
139, 0, 0, 2773.72265625
140, 0, 0, 2936.88818359375
141, 0, 0, 3137.004638671875
142, 0, 0, 3402.37744140625
143, 0, 0, 3770.906005859375
144, 0, 0, 4299.66259765625
145, 0, 0, 4913.64013671875
146, 0, 0, 5345.0380859375
147, 0, 0, 5556.333984375
148, 0, 0, 4344.28125
149, 0, 0, 2828.56982421875
150, 0, 0, 1441.178833007812
151, 0, 0, 490.8077392578125
152, 0, 0, 166.6946868896484
153, 0, 0, 31.25167083740234
154, 0, 0, 0
155, 0, 0, 0
156, 0, 0, 0
157, 0, 0, 0
158, 0, 0, 0
159, 0, 0, 0
160, 0, 0, 0
161, 0, 0, 0
162, 0, 0, 0
163, 0, 0, 0
164, 0, 0, 0
