# TOPAS Version: 3.3.p1
# Parameter File: Test.txt
# Results for scorer MLIC_Scorer
# Scored in component: MLIC
# X in 180 bins of 0.177778 cm
# Y in 1 bin  of 10 cm
# Z in 1 bin  of 10 cm
# EnergyDeposit ( MeV ) : Sum   
0, 0, 0, 0
1, 0, 0, 0
2, 0, 0, 0
3, 0, 0, 0
4, 0, 0, 0
5, 0, 0, 0
6, 0, 0, 0
7, 0, 0, 0
8, 0, 0, 0
9, 0, 0, 0
10, 0, 0, 0
11, 0, 0, 0
12, 0, 0, 0
13, 0, 0, 0
14, 0, 0, 0
15, 0, 0, 0
16, 0, 0, 0
17, 0, 0, 0
18, 0, 0, 0
19, 0, 0, 0
20, 0, 0, 0
21, 0, 0, 0
22, 0, 0, 0
23, 0, 0, 0
24, 0, 0, 0
25, 0, 0, 0
26, 0, 0, 0
27, 0, 0, 0
28, 0, 0, 0
29, 0, 0, 0
30, 0, 0, 0
31, 0, 0, 0
32, 0, 0, 0
33, 0, 0, 0
34, 0, 0, 0
35, 0, 0, 0
36, 0, 0, 0
37, 0, 0, 0
38, 0, 0, 0
39, 0, 0, 0
40, 0, 0, 0
41, 0, 0, 0
42, 0, 0, 0
43, 0, 0, 0
44, 0, 0, 0
45, 0, 0, 0
46, 0, 0, 0
47, 0, 0, 0
48, 0, 0, 0
49, 0, 0, 0
50, 0, 0, 0
51, 0, 0, 0
52, 0, 0, 0
53, 0, 0, 7.676144123077393
54, 0, 0, 57.53852081298828
55, 0, 0, 123.3235397338867
56, 0, 0, 231.4706420898438
57, 0, 0, 351.2362060546875
58, 0, 0, 388.7880249023438
59, 0, 0, 373.5533752441406
60, 0, 0, 380.3695678710938
61, 0, 0, 313.2200622558594
62, 0, 0, 293.6529541015625
63, 0, 0, 261.3599853515625
64, 0, 0, 237.4369812011719
65, 0, 0, 223.2965393066406
66, 0, 0, 211.0119171142578
67, 0, 0, 203.1786651611328
68, 0, 0, 191.5755157470703
69, 0, 0, 183.3400726318359
70, 0, 0, 175.2488250732422
71, 0, 0, 170.8679656982422
72, 0, 0, 165.4512023925781
73, 0, 0, 162.4538726806641
74, 0, 0, 157.5948333740234
75, 0, 0, 150.8855590820312
76, 0, 0, 149.0951995849609
77, 0, 0, 147.9481353759766
78, 0, 0, 144.9898376464844
79, 0, 0, 139.4152679443359
80, 0, 0, 138.6351623535156
81, 0, 0, 135.1813659667969
82, 0, 0, 131.7504272460938
83, 0, 0, 130.1013641357422
84, 0, 0, 126.4197158813477
85, 0, 0, 127.2171783447266
86, 0, 0, 123.3962249755859
87, 0, 0, 121.663703918457
88, 0, 0, 119.9947967529297
89, 0, 0, 117.7709350585938
90, 0, 0, 118.681640625
91, 0, 0, 115.3953094482422
92, 0, 0, 114.2114181518555
93, 0, 0, 114.3505554199219
94, 0, 0, 113.791633605957
95, 0, 0, 112.4837265014648
96, 0, 0, 110.0853118896484
97, 0, 0, 106.8676147460938
98, 0, 0, 109.1251754760742
99, 0, 0, 107.0761871337891
100, 0, 0, 105.2528457641602
101, 0, 0, 104.5398254394531
102, 0, 0, 100.8288879394531
103, 0, 0, 103.3282699584961
104, 0, 0, 99.13552093505859
105, 0, 0, 102.1709060668945
106, 0, 0, 99.17784881591797
107, 0, 0, 98.33417510986328
108, 0, 0, 98.12554168701172
109, 0, 0, 96.96788024902344
110, 0, 0, 97.28098297119141
111, 0, 0, 97.97080230712891
112, 0, 0, 97.35843658447266
113, 0, 0, 94.14348602294922
114, 0, 0, 91.61433410644531
115, 0, 0, 92.30054473876953
116, 0, 0, 93.85488891601562
117, 0, 0, 90.97593688964844
118, 0, 0, 89.01998901367188
119, 0, 0, 90.87532043457031
120, 0, 0, 90.00592041015625
121, 0, 0, 91.34333038330078
122, 0, 0, 88.78759002685547
123, 0, 0, 86.4608154296875
124, 0, 0, 86.94424438476562
125, 0, 0, 87.00746154785156
126, 0, 0, 86.20181274414062
127, 0, 0, 85.38832855224609
128, 0, 0, 84.1357421875
129, 0, 0, 83.53813171386719
130, 0, 0, 82.46129608154297
131, 0, 0, 85.25057983398438
132, 0, 0, 83.61144256591797
133, 0, 0, 83.53648376464844
134, 0, 0, 81.52041625976562
135, 0, 0, 84.917236328125
136, 0, 0, 82.71797180175781
137, 0, 0, 82.96212768554688
138, 0, 0, 82.50841522216797
139, 0, 0, 83.23860931396484
140, 0, 0, 78.12823486328125
141, 0, 0, 80.70816040039062
142, 0, 0, 81.20817565917969
143, 0, 0, 76.49851226806641
144, 0, 0, 79.504150390625
145, 0, 0, 78.54860687255859
146, 0, 0, 77.95978546142578
147, 0, 0, 77.97378540039062
148, 0, 0, 75.03225708007812
149, 0, 0, 76.61232757568359
150, 0, 0, 76.68061828613281
151, 0, 0, 77.45948791503906
152, 0, 0, 76.71341705322266
153, 0, 0, 77.11507415771484
154, 0, 0, 75.67268371582031
155, 0, 0, 74.08631134033203
156, 0, 0, 76.84372711181641
157, 0, 0, 74.4112548828125
158, 0, 0, 73.168701171875
159, 0, 0, 72.48058319091797
160, 0, 0, 75.13039398193359
161, 0, 0, 72.58089447021484
162, 0, 0, 73.92373657226562
163, 0, 0, 72.00817108154297
164, 0, 0, 73.44107055664062
165, 0, 0, 72.24727630615234
166, 0, 0, 72.14649963378906
167, 0, 0, 73.03021240234375
168, 0, 0, 70.44884490966797
169, 0, 0, 70.33541107177734
170, 0, 0, 70.90432739257812
171, 0, 0, 68.00078582763672
172, 0, 0, 70.75062561035156
173, 0, 0, 69.38529968261719
174, 0, 0, 70.88928985595703
175, 0, 0, 71.20767974853516
176, 0, 0, 71.01667022705078
177, 0, 0, 68.98798370361328
178, 0, 0, 67.39572906494141
179, 0, 0, 67.39121246337891
