# TOPAS Version: 3.3.p1
# Parameter File: Test.txt
# Results for scorer MLIC_Scorer
# Scored in component: MLIC
# X in 180 bins of 0.177778 cm
# Y in 1 bin  of 10 cm
# Z in 1 bin  of 10 cm
# EnergyDeposit ( MeV ) : Sum   
0, 0, 0, 0
1, 0, 0, 0
2, 0, 0, 0
3, 0, 0, 0
4, 0, 0, 0
5, 0, 0, 0
6, 0, 0, 0
7, 0, 0, 0
8, 0, 0, 0
9, 0, 0, 0
10, 0, 0, 0
11, 0, 0, 0
12, 0, 0, 0
13, 0, 0, 0
14, 0, 0, 0
15, 0, 0, 0
16, 0, 0, 0
17, 0, 0, 0
18, 0, 0, 0
19, 0, 0, 0
20, 0, 0, 0
21, 0, 0, 0
22, 0, 0, 0
23, 0, 0, 0
24, 0, 0, 0
25, 0, 0, 0
26, 0, 0, 0
27, 0, 0, 0
28, 0, 0, 0
29, 0, 0, 0
30, 0, 0, 0
31, 0, 0, 0
32, 0, 0, 0
33, 0, 0, 0
34, 0, 0, 0
35, 0, 0, 0
36, 0, 0, 0
37, 0, 0, 0
38, 0, 0, 0
39, 0, 0, 0
40, 0, 0, 0
41, 0, 0, 0
42, 0, 0, 0
43, 0, 0, 0
44, 0, 0, 0
45, 0, 0, 0
46, 0, 0, 0
47, 0, 0, 0
48, 0, 0, 0
49, 0, 0, 0.001133116194978356
50, 0, 0, 0
51, 0, 0, 0
52, 0, 0, 0.03202325105667114
53, 0, 0, 0
54, 0, 0, 0
55, 0, 0, 0
56, 0, 0, 0
57, 0, 0, 0
58, 0, 0, 0
59, 0, 0, 0.03670775890350342
60, 0, 0, 0
61, 0, 0, 0
62, 0, 0, 0
63, 0, 0, 0
64, 0, 0, 0
65, 0, 0, 18.77258682250977
66, 0, 0, 82.89939880371094
67, 0, 0, 361.8257141113281
68, 0, 0, 908.763427734375
69, 0, 0, 2042.801513671875
70, 0, 0, 3443.2255859375
71, 0, 0, 4264.02294921875
72, 0, 0, 4961.39990234375
73, 0, 0, 4867.16259765625
74, 0, 0, 4354.27197265625
75, 0, 0, 3796.20263671875
76, 0, 0, 3359.778076171875
77, 0, 0, 3084.28515625
78, 0, 0, 2854.39306640625
79, 0, 0, 2685.346435546875
80, 0, 0, 2536.386962890625
81, 0, 0, 2427.85546875
82, 0, 0, 2323.532958984375
83, 0, 0, 2226.999267578125
84, 0, 0, 2155.2353515625
85, 0, 0, 2086.320556640625
86, 0, 0, 2025.340576171875
87, 0, 0, 1974.220336914062
88, 0, 0, 1917.889526367188
89, 0, 0, 1874.4033203125
90, 0, 0, 1825.253540039062
91, 0, 0, 1796.205078125
92, 0, 0, 1748.872436523438
93, 0, 0, 1718.672607421875
94, 0, 0, 1682.523315429688
95, 0, 0, 1657.4013671875
96, 0, 0, 1629.351440429688
97, 0, 0, 1597.607421875
98, 0, 0, 1574.971069335938
99, 0, 0, 1548.964233398438
100, 0, 0, 1521.699829101562
101, 0, 0, 1498.440307617188
102, 0, 0, 1484.16845703125
103, 0, 0, 1462.693481445312
104, 0, 0, 1441.41162109375
105, 0, 0, 1424.858154296875
106, 0, 0, 1407.9306640625
107, 0, 0, 1401.549926757812
108, 0, 0, 1376.33447265625
109, 0, 0, 1364.044677734375
110, 0, 0, 1348.203125
111, 0, 0, 1336.131713867188
112, 0, 0, 1321.459106445312
113, 0, 0, 1307.801513671875
114, 0, 0, 1291.66357421875
115, 0, 0, 1279.368774414062
116, 0, 0, 1268.892944335938
117, 0, 0, 1253.671142578125
118, 0, 0, 1252.0146484375
119, 0, 0, 1233.9072265625
120, 0, 0, 1225.515991210938
121, 0, 0, 1216.136962890625
122, 0, 0, 1203.992797851562
123, 0, 0, 1194.240966796875
124, 0, 0, 1183.993408203125
125, 0, 0, 1171.55712890625
126, 0, 0, 1162.6064453125
127, 0, 0, 1159.5771484375
128, 0, 0, 1145.156494140625
129, 0, 0, 1137.07568359375
130, 0, 0, 1130.101928710938
131, 0, 0, 1122.366577148438
132, 0, 0, 1114.07470703125
133, 0, 0, 1107.515014648438
134, 0, 0, 1106.071899414062
135, 0, 0, 1098.233032226562
136, 0, 0, 1089.221801757812
137, 0, 0, 1079.893920898438
138, 0, 0, 1072.6201171875
139, 0, 0, 1069.811279296875
140, 0, 0, 1065.483276367188
141, 0, 0, 1056.0576171875
142, 0, 0, 1051.2509765625
143, 0, 0, 1047.134033203125
144, 0, 0, 1039.7998046875
145, 0, 0, 1035.439086914062
146, 0, 0, 1027.169799804688
147, 0, 0, 1019.22705078125
148, 0, 0, 1022.484436035156
149, 0, 0, 1016.652221679688
150, 0, 0, 1004.290710449219
151, 0, 0, 1002.272277832031
152, 0, 0, 999.4907836914062
153, 0, 0, 993.4197998046875
154, 0, 0, 985.8861694335938
155, 0, 0, 984.8898315429688
156, 0, 0, 977.3287353515625
157, 0, 0, 975.255859375
158, 0, 0, 971.2589111328125
159, 0, 0, 968.1116943359375
160, 0, 0, 960.8012084960938
161, 0, 0, 956.5280151367188
162, 0, 0, 959.9262084960938
163, 0, 0, 950.1358032226562
164, 0, 0, 949.2173461914062
165, 0, 0, 937.0593872070312
166, 0, 0, 942.2001342773438
167, 0, 0, 939.787841796875
168, 0, 0, 924.02880859375
169, 0, 0, 921.5875854492188
170, 0, 0, 920.78076171875
171, 0, 0, 920.9863891601562
172, 0, 0, 910.6387939453125
173, 0, 0, 920.13330078125
174, 0, 0, 900.558349609375
175, 0, 0, 905.174072265625
176, 0, 0, 898.335693359375
177, 0, 0, 885.6926879882812
178, 0, 0, 893.5216064453125
179, 0, 0, 884.2423095703125
