# TOPAS Version: 3.3.p1
# Parameter File: Test.txt
# Results for scorer MLIC_Scorer
# Scored in component: MLIC
# X in 165 bins of 0.2 cm
# Y in 1 bin  of 10 cm
# Z in 1 bin  of 10 cm
# EnergyDeposit ( MeV ) : Sum   
0, 0, 0, 0
1, 0, 0, 0
2, 0, 0, 0
3, 0, 0, 0
4, 0, 0, 0
5, 0, 0, 0
6, 0, 0, 0
7, 0, 0, 0
8, 0, 0, 0
9, 0, 0, 0
10, 0, 0, 0
11, 0, 0, 0
12, 0, 0, 0
13, 0, 0, 0
14, 0, 0, 0
15, 0, 0, 0
16, 0, 0, 0
17, 0, 0, 0
18, 0, 0, 0
19, 0, 0, 0
20, 0, 0, 0.0029707713983953
21, 0, 0, 0.0007299663266167045
22, 0, 0, 0
23, 0, 0, 0
24, 0, 0, 0.001684785471297801
25, 0, 0, 9.330083847045898
26, 0, 0, 21.5878963470459
27, 0, 0, 131.2346038818359
28, 0, 0, 513.1644897460938
29, 0, 0, 1340.120239257812
30, 0, 0, 2967.044921875
31, 0, 0, 4374.669921875
32, 0, 0, 5303.333984375
33, 0, 0, 5278.37939453125
34, 0, 0, 4991.5029296875
35, 0, 0, 4318.29248046875
36, 0, 0, 3797.71240234375
37, 0, 0, 3430.41015625
38, 0, 0, 3147.919189453125
39, 0, 0, 2943.284423828125
40, 0, 0, 2780.448486328125
41, 0, 0, 2641.2666015625
42, 0, 0, 2523.7626953125
43, 0, 0, 2434.37841796875
44, 0, 0, 2352.237060546875
45, 0, 0, 2264.5029296875
46, 0, 0, 2201.6943359375
47, 0, 0, 2134.71875
48, 0, 0, 2075.433837890625
49, 0, 0, 2023.855590820312
50, 0, 0, 1977.6650390625
51, 0, 0, 1935.203369140625
52, 0, 0, 1889.568725585938
53, 0, 0, 1864.58203125
54, 0, 0, 1823.868286132812
55, 0, 0, 1780.730590820312
56, 0, 0, 1756.219360351562
57, 0, 0, 1727.778076171875
58, 0, 0, 1696.717651367188
59, 0, 0, 1661.816040039062
60, 0, 0, 1643.329223632812
61, 0, 0, 1615.615234375
62, 0, 0, 1605.572265625
63, 0, 0, 1573.956909179688
64, 0, 0, 1556.313598632812
65, 0, 0, 1536.712768554688
66, 0, 0, 1516.737548828125
67, 0, 0, 1497.275756835938
68, 0, 0, 1481.931396484375
69, 0, 0, 1465.876098632812
70, 0, 0, 1446.647216796875
71, 0, 0, 1435.963745117188
72, 0, 0, 1419.840087890625
73, 0, 0, 1400.517333984375
74, 0, 0, 1385.810302734375
75, 0, 0, 1374.72900390625
76, 0, 0, 1364.059326171875
77, 0, 0, 1358.033081054688
78, 0, 0, 1339.267456054688
79, 0, 0, 1331.462768554688
80, 0, 0, 1317.983154296875
81, 0, 0, 1302.690185546875
82, 0, 0, 1294.004272460938
83, 0, 0, 1283.533935546875
84, 0, 0, 1268.526733398438
85, 0, 0, 1263.175537109375
86, 0, 0, 1258.585815429688
87, 0, 0, 1244.695190429688
88, 0, 0, 1237.261474609375
89, 0, 0, 1235.1201171875
90, 0, 0, 1222.03125
91, 0, 0, 1212.5107421875
92, 0, 0, 1203.067260742188
93, 0, 0, 1201.887451171875
94, 0, 0, 1187.088256835938
95, 0, 0, 1185.345581054688
96, 0, 0, 1181.098510742188
97, 0, 0, 1164.261352539062
98, 0, 0, 1164.295532226562
99, 0, 0, 1150.606201171875
100, 0, 0, 1149.926147460938
101, 0, 0, 1137.830322265625
102, 0, 0, 1135.026611328125
103, 0, 0, 1123.932250976562
104, 0, 0, 1116.34375
105, 0, 0, 1118.579956054688
106, 0, 0, 1110.660034179688
107, 0, 0, 1107.488647460938
108, 0, 0, 1088.893310546875
109, 0, 0, 1085.015869140625
110, 0, 0, 1090.186401367188
111, 0, 0, 1079.158935546875
112, 0, 0, 1077.234130859375
113, 0, 0, 1062.959228515625
114, 0, 0, 1066.81396484375
115, 0, 0, 1059.264282226562
116, 0, 0, 1054.377319335938
117, 0, 0, 1051.133666992188
118, 0, 0, 1046.75439453125
119, 0, 0, 1038.643920898438
120, 0, 0, 1033.099365234375
121, 0, 0, 1033.26171875
122, 0, 0, 1029.396362304688
123, 0, 0, 1023.550109863281
124, 0, 0, 1023.399658203125
125, 0, 0, 1015.559143066406
126, 0, 0, 1014.400329589844
127, 0, 0, 1006.986083984375
128, 0, 0, 999.939453125
129, 0, 0, 992.9356689453125
130, 0, 0, 987.4257202148438
131, 0, 0, 987.08203125
132, 0, 0, 989.3882446289062
133, 0, 0, 990.2415161132812
134, 0, 0, 977.517578125
135, 0, 0, 977.082763671875
136, 0, 0, 977.1115112304688
137, 0, 0, 971.3360595703125
138, 0, 0, 968.3375854492188
139, 0, 0, 966.4411010742188
140, 0, 0, 959.7564697265625
141, 0, 0, 953.3394775390625
142, 0, 0, 944.4574584960938
143, 0, 0, 947.9479370117188
144, 0, 0, 943.8961181640625
145, 0, 0, 940.7184448242188
146, 0, 0, 944.9758911132812
147, 0, 0, 931.7283325195312
148, 0, 0, 931.0419921875
149, 0, 0, 930.568603515625
150, 0, 0, 924.5115356445312
151, 0, 0, 920.9454956054688
152, 0, 0, 920.1439819335938
153, 0, 0, 920.7311401367188
154, 0, 0, 920.2265014648438
155, 0, 0, 909.8749389648438
156, 0, 0, 909.8069458007812
157, 0, 0, 898.8905029296875
158, 0, 0, 900.5440063476562
159, 0, 0, 900.0220947265625
160, 0, 0, 897.4563598632812
161, 0, 0, 891.2153930664062
162, 0, 0, 895.9190673828125
163, 0, 0, 891.5555419921875
164, 0, 0, 886.5612182617188
