# TOPAS Version: 3.3.p1
# Parameter File: Test.txt
# Results for scorer MLIC_Scorer
# Scored in component: MLIC
# X in 165 bins of 0.2 cm
# Y in 1 bin  of 10 cm
# Z in 1 bin  of 10 cm
# EnergyDeposit ( MeV ) : Sum   
0, 0, 0, 0
1, 0, 0, 0
2, 0, 0, 0
3, 0, 0, 0
4, 0, 0, 0
5, 0, 0, 0
6, 0, 0, 0
7, 0, 0, 0
8, 0, 0, 0
9, 0, 0, 0
10, 0, 0, 0
11, 0, 0, 0
12, 0, 0, 0
13, 0, 0, 0
14, 0, 0, 0
15, 0, 0, 0
16, 0, 0, 0
17, 0, 0, 0
18, 0, 0, 0
19, 0, 0, 0
20, 0, 0, 0
21, 0, 0, 0
22, 0, 0, 0
23, 0, 0, 0
24, 0, 0, 0
25, 0, 0, 0
26, 0, 0, 0
27, 0, 0, 0
28, 0, 0, 0
29, 0, 0, 0
30, 0, 0, 0
31, 0, 0, 0
32, 0, 0, 0
33, 0, 0, 0
34, 0, 0, 0
35, 0, 0, 0
36, 0, 0, 0
37, 0, 0, 0
38, 0, 0, 0
39, 0, 0, 0
40, 0, 0, 0
41, 0, 0, 0
42, 0, 0, 0
43, 0, 0, 0
44, 0, 0, 0
45, 0, 0, 0
46, 0, 0, 0
47, 0, 0, 0
48, 0, 0, 0
49, 0, 0, 0
50, 0, 0, 0.01601697131991386
51, 0, 0, 0
52, 0, 0, 0
53, 0, 0, 0
54, 0, 0, 11.94117069244385
55, 0, 0, 71.46422576904297
56, 0, 0, 502.8631286621094
57, 0, 0, 1593.084838867188
58, 0, 0, 3008.181884765625
59, 0, 0, 4637.64208984375
60, 0, 0, 5454.52392578125
61, 0, 0, 5362.94140625
62, 0, 0, 4864.31005859375
63, 0, 0, 4224.6318359375
64, 0, 0, 3728.62451171875
65, 0, 0, 3384.94580078125
66, 0, 0, 3126.093994140625
67, 0, 0, 2926.455810546875
68, 0, 0, 2752.9765625
69, 0, 0, 2626.50439453125
70, 0, 0, 2518.488525390625
71, 0, 0, 2421.807861328125
72, 0, 0, 2331.491455078125
73, 0, 0, 2253.1240234375
74, 0, 0, 2189.030517578125
75, 0, 0, 2121.3671875
76, 0, 0, 2067.820068359375
77, 0, 0, 2016.009155273438
78, 0, 0, 1961.8974609375
79, 0, 0, 1928.17236328125
80, 0, 0, 1893.785766601562
81, 0, 0, 1838.480590820312
82, 0, 0, 1811.023071289062
83, 0, 0, 1778.243041992188
84, 0, 0, 1751.3662109375
85, 0, 0, 1720.412719726562
86, 0, 0, 1693.59375
87, 0, 0, 1659.910278320312
88, 0, 0, 1641.950439453125
89, 0, 0, 1618.677978515625
90, 0, 0, 1590.7607421875
91, 0, 0, 1568.88134765625
92, 0, 0, 1556.865600585938
93, 0, 0, 1532.81494140625
94, 0, 0, 1514.718505859375
95, 0, 0, 1497.279052734375
96, 0, 0, 1483.385864257812
97, 0, 0, 1462.197387695312
98, 0, 0, 1452.74560546875
99, 0, 0, 1434.771850585938
100, 0, 0, 1420.329956054688
101, 0, 0, 1399.246704101562
102, 0, 0, 1389.031494140625
103, 0, 0, 1381.73828125
104, 0, 0, 1366.793212890625
105, 0, 0, 1353.001586914062
106, 0, 0, 1339.104736328125
107, 0, 0, 1325.350219726562
108, 0, 0, 1311.667602539062
109, 0, 0, 1309.042358398438
110, 0, 0, 1293.952758789062
111, 0, 0, 1279.443481445312
112, 0, 0, 1269.820068359375
113, 0, 0, 1257.127075195312
114, 0, 0, 1251.248413085938
115, 0, 0, 1238.52001953125
116, 0, 0, 1242.0263671875
117, 0, 0, 1231.241088867188
118, 0, 0, 1216.998779296875
119, 0, 0, 1208.302490234375
120, 0, 0, 1200.7763671875
121, 0, 0, 1196.383666992188
122, 0, 0, 1191.083129882812
123, 0, 0, 1189.15966796875
124, 0, 0, 1172.107421875
125, 0, 0, 1165.1220703125
126, 0, 0, 1160.838012695312
127, 0, 0, 1150.591186523438
128, 0, 0, 1146.631469726562
129, 0, 0, 1139.5830078125
130, 0, 0, 1133.567626953125
131, 0, 0, 1112.986206054688
132, 0, 0, 1116.188842773438
133, 0, 0, 1106.766967773438
134, 0, 0, 1112.781860351562
135, 0, 0, 1090.832641601562
136, 0, 0, 1094.11328125
137, 0, 0, 1096.601928710938
138, 0, 0, 1082.403076171875
139, 0, 0, 1082.526977539062
140, 0, 0, 1081.391235351562
141, 0, 0, 1075.403076171875
142, 0, 0, 1071.309692382812
143, 0, 0, 1063.499633789062
144, 0, 0, 1047.91162109375
145, 0, 0, 1050.0595703125
146, 0, 0, 1043.74072265625
147, 0, 0, 1039.1728515625
148, 0, 0, 1040.400390625
149, 0, 0, 1021.604248046875
150, 0, 0, 1022.694946289062
151, 0, 0, 1021.0185546875
152, 0, 0, 1014.469299316406
153, 0, 0, 1016.769470214844
154, 0, 0, 1007.769714355469
155, 0, 0, 1000.226928710938
156, 0, 0, 1005.491333007812
157, 0, 0, 1003.219909667969
158, 0, 0, 987.8903198242188
159, 0, 0, 985.389892578125
160, 0, 0, 988.0573120117188
161, 0, 0, 984.8923950195312
162, 0, 0, 979.3700561523438
163, 0, 0, 979.8509521484375
164, 0, 0, 977.334716796875
