# TOPAS Version: 3.3.p1
# Parameter File: Test.txt
# Results for scorer MLIC_Scorer
# Scored in component: MLIC
# X in 165 bins of 0.2 cm
# Y in 1 bin  of 10 cm
# Z in 1 bin  of 10 cm
# EnergyDeposit ( MeV ) : Sum   
0, 0, 0, 0
1, 0, 0, 0
2, 0, 0, 0
3, 0, 0, 0
4, 0, 0, 0
5, 0, 0, 0
6, 0, 0, 0
7, 0, 0, 0
8, 0, 0, 0
9, 0, 0, 0
10, 0, 0, 0
11, 0, 0, 0
12, 0, 0, 0
13, 0, 0, 0
14, 0, 0, 0
15, 0, 0, 0
16, 0, 0, 0
17, 0, 0, 0
18, 0, 0, 0
19, 0, 0, 0
20, 0, 0, 0
21, 0, 0, 0
22, 0, 0, 0
23, 0, 0, 0
24, 0, 0, 0
25, 0, 0, 0
26, 0, 0, 0
27, 0, 0, 0
28, 0, 0, 0
29, 0, 0, 0
30, 0, 0, 0
31, 0, 0, 0
32, 0, 0, 0
33, 0, 0, 0
34, 0, 0, 0
35, 0, 0, 0
36, 0, 0, 0
37, 0, 0, 0
38, 0, 0, 0
39, 0, 0, 0
40, 0, 0, 0
41, 0, 0, 0
42, 0, 0, 0
43, 0, 0, 0
44, 0, 0, 0
45, 0, 0, 0
46, 0, 0, 0
47, 0, 0, 0
48, 0, 0, 0
49, 0, 0, 0.03348297625780106
50, 0, 0, 0.0004254945379216224
51, 0, 0, 0
52, 0, 0, 0
53, 0, 0, 0
54, 0, 0, 0
55, 0, 0, 0
56, 0, 0, 0
57, 0, 0, 40.7510986328125
58, 0, 0, 155.6441955566406
59, 0, 0, 542.4060668945312
60, 0, 0, 1449.543823242188
61, 0, 0, 3022.3046875
62, 0, 0, 4518.9697265625
63, 0, 0, 5394.6240234375
64, 0, 0, 5326.048828125
65, 0, 0, 4950.2216796875
66, 0, 0, 4252.12353515625
67, 0, 0, 3739.698974609375
68, 0, 0, 3393.26171875
69, 0, 0, 3125.25634765625
70, 0, 0, 2921.320068359375
71, 0, 0, 2766.270751953125
72, 0, 0, 2639.63671875
73, 0, 0, 2520.783203125
74, 0, 0, 2412.722900390625
75, 0, 0, 2333.9658203125
76, 0, 0, 2258.850830078125
77, 0, 0, 2189.2880859375
78, 0, 0, 2127.14306640625
79, 0, 0, 2081.161865234375
80, 0, 0, 2018.176879882812
81, 0, 0, 1971.6982421875
82, 0, 0, 1929.263305664062
83, 0, 0, 1887.327392578125
84, 0, 0, 1845.57177734375
85, 0, 0, 1811.879028320312
86, 0, 0, 1779.505493164062
87, 0, 0, 1746.955688476562
88, 0, 0, 1725.56982421875
89, 0, 0, 1694.441284179688
90, 0, 0, 1666.040283203125
91, 0, 0, 1645.225952148438
92, 0, 0, 1622.489990234375
93, 0, 0, 1598.544067382812
94, 0, 0, 1575.494750976562
95, 0, 0, 1549.043334960938
96, 0, 0, 1533.192504882812
97, 0, 0, 1511.342651367188
98, 0, 0, 1500.386840820312
99, 0, 0, 1478.058715820312
100, 0, 0, 1465.30078125
101, 0, 0, 1444.893188476562
102, 0, 0, 1434.133056640625
103, 0, 0, 1418.107543945312
104, 0, 0, 1399.929077148438
105, 0, 0, 1388.362060546875
106, 0, 0, 1375.843017578125
107, 0, 0, 1364.971801757812
108, 0, 0, 1353.841064453125
109, 0, 0, 1340.072631835938
110, 0, 0, 1334.95703125
111, 0, 0, 1318.802368164062
112, 0, 0, 1305.66015625
113, 0, 0, 1292.619506835938
114, 0, 0, 1286.244018554688
115, 0, 0, 1269.7275390625
116, 0, 0, 1259.116455078125
117, 0, 0, 1263.637084960938
118, 0, 0, 1245.681030273438
119, 0, 0, 1231.021850585938
120, 0, 0, 1228.828491210938
121, 0, 0, 1228.029296875
122, 0, 0, 1211.7109375
123, 0, 0, 1213.3212890625
124, 0, 0, 1197.1669921875
125, 0, 0, 1184.11962890625
126, 0, 0, 1182.691162109375
127, 0, 0, 1173.48388671875
128, 0, 0, 1170.993530273438
129, 0, 0, 1157.876098632812
130, 0, 0, 1153.49462890625
131, 0, 0, 1139.457275390625
132, 0, 0, 1130.637451171875
133, 0, 0, 1125.2001953125
134, 0, 0, 1123.684204101562
135, 0, 0, 1121.166748046875
136, 0, 0, 1116.082641601562
137, 0, 0, 1107.246459960938
138, 0, 0, 1100.9140625
139, 0, 0, 1101.182861328125
140, 0, 0, 1092.217651367188
141, 0, 0, 1083.150390625
142, 0, 0, 1078.524047851562
143, 0, 0, 1075.782348632812
144, 0, 0, 1065.22509765625
145, 0, 0, 1064.72412109375
146, 0, 0, 1062.650634765625
147, 0, 0, 1061.5361328125
148, 0, 0, 1050.69384765625
149, 0, 0, 1050.966918945312
150, 0, 0, 1043.078369140625
151, 0, 0, 1041.902709960938
152, 0, 0, 1038.265747070312
153, 0, 0, 1026.760986328125
154, 0, 0, 1017.450256347656
155, 0, 0, 1025.281372070312
156, 0, 0, 1015.952575683594
157, 0, 0, 1013.141784667969
158, 0, 0, 996.1434326171875
159, 0, 0, 997.6500854492188
160, 0, 0, 999.615478515625
161, 0, 0, 986.7918090820312
162, 0, 0, 983.2324829101562
163, 0, 0, 981.93359375
164, 0, 0, 972.3963623046875
