# TOPAS Version: 3.3.p1
# Parameter File: Test.txt
# Results for scorer MLIC_Scorer
# Scored in component: MLIC
# X in 180 bins of 0.177778 cm
# Y in 1 bin  of 10 cm
# Z in 1 bin  of 10 cm
# EnergyDeposit ( MeV ) : Sum   
0, 0, 0, 0
1, 0, 0, 0
2, 0, 0, 0
3, 0, 0, 0
4, 0, 0, 0
5, 0, 0, 0
6, 0, 0, 0
7, 0, 0, 0
8, 0, 0, 0
9, 0, 0, 0
10, 0, 0, 0
11, 0, 0, 0
12, 0, 0, 0
13, 0, 0, 0
14, 0, 0, 0
15, 0, 0, 0
16, 0, 0, 0
17, 0, 0, 0
18, 0, 0, 0
19, 0, 0, 0
20, 0, 0, 0
21, 0, 0, 0
22, 0, 0, 0
23, 0, 0, 0
24, 0, 0, 0
25, 0, 0, 0
26, 0, 0, 0
27, 0, 0, 0
28, 0, 0, 0
29, 0, 0, 0
30, 0, 0, 0
31, 0, 0, 0
32, 0, 0, 0
33, 0, 0, 0
34, 0, 0, 0
35, 0, 0, 0
36, 0, 0, 0
37, 0, 0, 0
38, 0, 0, 0
39, 0, 0, 0
40, 0, 0, 0.03638675436377525
41, 0, 0, 0
42, 0, 0, 0
43, 0, 0, 0.002070958726108074
44, 0, 0, 20.62002182006836
45, 0, 0, 63.58018112182617
46, 0, 0, 316.4796447753906
47, 0, 0, 1089.365112304688
48, 0, 0, 2141.795166015625
49, 0, 0, 3530.014404296875
50, 0, 0, 4716.294921875
51, 0, 0, 5127.5888671875
52, 0, 0, 4805.18701171875
53, 0, 0, 4224.35205078125
54, 0, 0, 3708.75634765625
55, 0, 0, 3323.62939453125
56, 0, 0, 3032.463623046875
57, 0, 0, 2824.998291015625
58, 0, 0, 2658.598388671875
59, 0, 0, 2514.89990234375
60, 0, 0, 2403.33740234375
61, 0, 0, 2308.04345703125
62, 0, 0, 2220.73828125
63, 0, 0, 2143.1611328125
64, 0, 0, 2078.228271484375
65, 0, 0, 2014.7353515625
66, 0, 0, 1964.2822265625
67, 0, 0, 1912.338989257812
68, 0, 0, 1863.181396484375
69, 0, 0, 1824.030029296875
70, 0, 0, 1788.00244140625
71, 0, 0, 1743.435180664062
72, 0, 0, 1712.544921875
73, 0, 0, 1682.610961914062
74, 0, 0, 1655.032348632812
75, 0, 0, 1621.914672851562
76, 0, 0, 1590.777099609375
77, 0, 0, 1573.261596679688
78, 0, 0, 1542.322631835938
79, 0, 0, 1525.815551757812
80, 0, 0, 1505.760986328125
81, 0, 0, 1484.048461914062
82, 0, 0, 1457.966186523438
83, 0, 0, 1440.825561523438
84, 0, 0, 1424.260986328125
85, 0, 0, 1406.646118164062
86, 0, 0, 1384.34326171875
87, 0, 0, 1374.995483398438
88, 0, 0, 1358.146118164062
89, 0, 0, 1343.154296875
90, 0, 0, 1325.256958007812
91, 0, 0, 1322.808715820312
92, 0, 0, 1300.477905273438
93, 0, 0, 1284.990600585938
94, 0, 0, 1279.169677734375
95, 0, 0, 1264.9384765625
96, 0, 0, 1249.680541992188
97, 0, 0, 1240.247802734375
98, 0, 0, 1228.737915039062
99, 0, 0, 1221.567749023438
100, 0, 0, 1210.142211914062
101, 0, 0, 1204.272094726562
102, 0, 0, 1196.901245117188
103, 0, 0, 1186.61474609375
104, 0, 0, 1181.531127929688
105, 0, 0, 1165.361328125
106, 0, 0, 1158.654296875
107, 0, 0, 1146.583374023438
108, 0, 0, 1146.023193359375
109, 0, 0, 1132.147216796875
110, 0, 0, 1122.014404296875
111, 0, 0, 1120.44873046875
112, 0, 0, 1115.946655273438
113, 0, 0, 1103.6171875
114, 0, 0, 1097.831787109375
115, 0, 0, 1095.70361328125
116, 0, 0, 1073.776245117188
117, 0, 0, 1070.972045898438
118, 0, 0, 1068.660766601562
119, 0, 0, 1064.579345703125
120, 0, 0, 1055.230102539062
121, 0, 0, 1049.578857421875
122, 0, 0, 1044.7744140625
123, 0, 0, 1038.257202148438
124, 0, 0, 1041.194213867188
125, 0, 0, 1035.20556640625
126, 0, 0, 1026.4853515625
127, 0, 0, 1010.658874511719
128, 0, 0, 1010.809326171875
129, 0, 0, 1003.497985839844
130, 0, 0, 999.1039428710938
131, 0, 0, 1001.65478515625
132, 0, 0, 992.5743408203125
133, 0, 0, 986.2831420898438
134, 0, 0, 982.8062133789062
135, 0, 0, 976.1806030273438
136, 0, 0, 974.4436645507812
137, 0, 0, 976.9476318359375
138, 0, 0, 969.1038208007812
139, 0, 0, 959.227783203125
140, 0, 0, 955.7633056640625
141, 0, 0, 955.5106201171875
142, 0, 0, 948.8602294921875
143, 0, 0, 945.8807373046875
144, 0, 0, 940.0125732421875
145, 0, 0, 938.433349609375
146, 0, 0, 932.9561767578125
147, 0, 0, 925.6401977539062
148, 0, 0, 925.4728393554688
149, 0, 0, 922.60595703125
150, 0, 0, 918.5436401367188
151, 0, 0, 917.5503540039062
152, 0, 0, 909.3533325195312
153, 0, 0, 907.4744873046875
154, 0, 0, 907.089599609375
155, 0, 0, 901.0733642578125
156, 0, 0, 897.092529296875
157, 0, 0, 902.5831298828125
158, 0, 0, 892.7921142578125
159, 0, 0, 877.8133544921875
160, 0, 0, 886.9373168945312
161, 0, 0, 879.5708618164062
162, 0, 0, 873.52392578125
163, 0, 0, 873.7655639648438
164, 0, 0, 871.2647094726562
165, 0, 0, 876.5962524414062
166, 0, 0, 866.1011352539062
167, 0, 0, 870.432861328125
168, 0, 0, 858.610107421875
169, 0, 0, 857.0401000976562
170, 0, 0, 858.584228515625
171, 0, 0, 850.51953125
172, 0, 0, 849.60888671875
173, 0, 0, 851.8094482421875
174, 0, 0, 846.0421142578125
175, 0, 0, 840.9605102539062
176, 0, 0, 840.4293823242188
177, 0, 0, 841.8912353515625
178, 0, 0, 832.2366943359375
179, 0, 0, 830.3745727539062
