# TOPAS Version: 3.3.p1
# Parameter File: Test.txt
# Results for scorer MLIC_Scorer
# Scored in component: MLIC
# X in 180 bins of 0.177778 cm
# Y in 1 bin  of 10 cm
# Z in 1 bin  of 10 cm
# EnergyDeposit ( MeV ) : Sum   
0, 0, 0, 0
1, 0, 0, 0
2, 0, 0, 0
3, 0, 0, 0
4, 0, 0, 0
5, 0, 0, 0
6, 0, 0, 0
7, 0, 0, 0
8, 0, 0, 0
9, 0, 0, 0
10, 0, 0, 0
11, 0, 0, 0
12, 0, 0, 0
13, 0, 0, 0
14, 0, 0, 0
15, 0, 0, 0
16, 0, 0, 0
17, 0, 0, 0
18, 0, 0, 0
19, 0, 0, 0
20, 0, 0, 0
21, 0, 0, 0
22, 0, 0, 0
23, 0, 0, 0
24, 0, 0, 0
25, 0, 0, 0
26, 0, 0, 0
27, 0, 0, 0
28, 0, 0, 0
29, 0, 0, 0
30, 0, 0, 0
31, 0, 0, 0
32, 0, 0, 0
33, 0, 0, 0
34, 0, 0, 0
35, 0, 0, 0
36, 0, 0, 0
37, 0, 0, 0
38, 0, 0, 0
39, 0, 0, 0
40, 0, 0, 0
41, 0, 0, 0
42, 0, 0, 0
43, 0, 0, 0
44, 0, 0, 0
45, 0, 0, 0
46, 0, 0, 0
47, 0, 0, 0
48, 0, 0, 0
49, 0, 0, 0
50, 0, 0, 0
51, 0, 0, 0
52, 0, 0, 0
53, 0, 0, 0
54, 0, 0, 0
55, 0, 0, 0
56, 0, 0, 0
57, 0, 0, 0
58, 0, 0, 0
59, 0, 0, 0
60, 0, 0, 0
61, 0, 0, 0
62, 0, 0, 0
63, 0, 0, 0
64, 0, 0, 0
65, 0, 0, 0
66, 0, 0, 0
67, 0, 0, 0.0282435454428196
68, 0, 0, 0.003152261720970273
69, 0, 0, 0
70, 0, 0, 0
71, 0, 0, 18.38798332214355
72, 0, 0, 60.54005813598633
73, 0, 0, 175.3382110595703
74, 0, 0, 569.255615234375
75, 0, 0, 1582.250854492188
76, 0, 0, 2820.824462890625
77, 0, 0, 4134.1923828125
78, 0, 0, 5098.984375
79, 0, 0, 4936.23193359375
80, 0, 0, 4610.16015625
81, 0, 0, 3999.08935546875
82, 0, 0, 3492.3037109375
83, 0, 0, 3149.6806640625
84, 0, 0, 2914.414794921875
85, 0, 0, 2728.934814453125
86, 0, 0, 2581.296630859375
87, 0, 0, 2450.8447265625
88, 0, 0, 2358.385986328125
89, 0, 0, 2268.875244140625
90, 0, 0, 2187.4677734375
91, 0, 0, 2107.28759765625
92, 0, 0, 2045.9326171875
93, 0, 0, 1986.972412109375
94, 0, 0, 1936.853271484375
95, 0, 0, 1886.422607421875
96, 0, 0, 1840.551147460938
97, 0, 0, 1800.931884765625
98, 0, 0, 1756.33056640625
99, 0, 0, 1735.387817382812
100, 0, 0, 1690.479736328125
101, 0, 0, 1668.185668945312
102, 0, 0, 1636.462890625
103, 0, 0, 1604.545166015625
104, 0, 0, 1578.4208984375
105, 0, 0, 1551.705688476562
106, 0, 0, 1532.6630859375
107, 0, 0, 1514.49951171875
108, 0, 0, 1496.499755859375
109, 0, 0, 1482.333618164062
110, 0, 0, 1446.010620117188
111, 0, 0, 1426.987670898438
112, 0, 0, 1415.024780273438
113, 0, 0, 1399.57177734375
114, 0, 0, 1386.54052734375
115, 0, 0, 1365.058959960938
116, 0, 0, 1348.42822265625
117, 0, 0, 1338.49169921875
118, 0, 0, 1321.006225585938
119, 0, 0, 1307.820922851562
120, 0, 0, 1300.5966796875
121, 0, 0, 1289.326293945312
122, 0, 0, 1278.48193359375
123, 0, 0, 1263.232177734375
124, 0, 0, 1251.974853515625
125, 0, 0, 1237.254028320312
126, 0, 0, 1225.450317382812
127, 0, 0, 1213.616455078125
128, 0, 0, 1208.51220703125
129, 0, 0, 1203.1640625
130, 0, 0, 1185.802001953125
131, 0, 0, 1180.46435546875
132, 0, 0, 1180.782470703125
133, 0, 0, 1157.177612304688
134, 0, 0, 1147.824462890625
135, 0, 0, 1148.1962890625
136, 0, 0, 1138.14453125
137, 0, 0, 1126.656616210938
138, 0, 0, 1112.479370117188
139, 0, 0, 1116.749877929688
140, 0, 0, 1101.086547851562
141, 0, 0, 1104.25927734375
142, 0, 0, 1090.444213867188
143, 0, 0, 1079.650146484375
144, 0, 0, 1080.227783203125
145, 0, 0, 1065.48046875
146, 0, 0, 1066.630981445312
147, 0, 0, 1060.640747070312
148, 0, 0, 1053.928344726562
149, 0, 0, 1046.85107421875
150, 0, 0, 1045.353271484375
151, 0, 0, 1036.716064453125
152, 0, 0, 1034.287841796875
153, 0, 0, 1035.421142578125
154, 0, 0, 1019.390869140625
155, 0, 0, 1011.876159667969
156, 0, 0, 1005.256286621094
157, 0, 0, 1010.118530273438
158, 0, 0, 1003.584228515625
159, 0, 0, 999.9238891601562
160, 0, 0, 995.17041015625
161, 0, 0, 981.4680786132812
162, 0, 0, 982.0333862304688
163, 0, 0, 974.8504638671875
164, 0, 0, 977.4437866210938
165, 0, 0, 968.9799194335938
166, 0, 0, 963.7872924804688
167, 0, 0, 963.5891723632812
168, 0, 0, 961.0734252929688
169, 0, 0, 948.652099609375
170, 0, 0, 946.721435546875
171, 0, 0, 935.6576538085938
172, 0, 0, 940.987060546875
173, 0, 0, 936.7994995117188
174, 0, 0, 930.0607299804688
175, 0, 0, 928.9600219726562
176, 0, 0, 921.46533203125
177, 0, 0, 921.16064453125
178, 0, 0, 915.759033203125
179, 0, 0, 917.2899780273438
