# TOPAS Version: 3.3.p1
# Parameter File: Test.txt
# Results for scorer MLIC_Scorer
# Scored in component: MLIC
# X in 180 bins of 0.177778 cm
# Y in 1 bin  of 10 cm
# Z in 1 bin  of 10 cm
# EnergyDeposit ( MeV ) : Sum   
0, 0, 0, 0
1, 0, 0, 0
2, 0, 0, 0
3, 0, 0, 0
4, 0, 0, 0
5, 0, 0, 0
6, 0, 0, 0
7, 0, 0, 0
8, 0, 0, 0
9, 0, 0, 0
10, 0, 0, 0
11, 0, 0, 0
12, 0, 0, 0
13, 0, 0, 0
14, 0, 0, 0
15, 0, 0, 0
16, 0, 0, 0
17, 0, 0, 0
18, 0, 0, 0
19, 0, 0, 0
20, 0, 0, 0
21, 0, 0, 0
22, 0, 0, 0
23, 0, 0, 0
24, 0, 0, 0
25, 0, 0, 0
26, 0, 0, 0
27, 0, 0, 0
28, 0, 0, 0
29, 0, 0, 0
30, 0, 0, 0
31, 0, 0, 0
32, 0, 0, 0
33, 0, 0, 0
34, 0, 0, 0
35, 0, 0, 0
36, 0, 0, 0
37, 0, 0, 0
38, 0, 0, 0
39, 0, 0, 0
40, 0, 0, 0
41, 0, 0, 0
42, 0, 0, 0
43, 0, 0, 0
44, 0, 0, 0
45, 0, 0, 0
46, 0, 0, 0
47, 0, 0, 0
48, 0, 0, 0
49, 0, 0, 0
50, 0, 0, 0
51, 0, 0, 0
52, 0, 0, 0
53, 0, 0, 0
54, 0, 0, 0
55, 0, 0, 0
56, 0, 0, 0
57, 0, 0, 0
58, 0, 0, 0
59, 0, 0, 0
60, 0, 0, 0
61, 0, 0, 0
62, 0, 0, 0
63, 0, 0, 0
64, 0, 0, 0
65, 0, 0, 0
66, 0, 0, 0
67, 0, 0, 0
68, 0, 0, 0
69, 0, 0, 0
70, 0, 0, 0
71, 0, 0, 0
72, 0, 0, 0
73, 0, 0, 0
74, 0, 0, 0
75, 0, 0, 0
76, 0, 0, 0
77, 0, 0, 0
78, 0, 0, 0
79, 0, 0, 0
80, 0, 0, 0
81, 0, 0, 0
82, 0, 0, 0
83, 0, 0, 0
84, 0, 0, 0
85, 0, 0, 0
86, 0, 0, 0
87, 0, 0, 0.01158826984465122
88, 0, 0, 0
89, 0, 0, 0
90, 0, 0, 0
91, 0, 0, 0
92, 0, 0, 0
93, 0, 0, 0.009465377777814865
94, 0, 0, 0
95, 0, 0, 0
96, 0, 0, 0
97, 0, 0, 0.002928000641986728
98, 0, 0, 0
99, 0, 0, 0
100, 0, 0, 0
101, 0, 0, 0
102, 0, 0, 0.02396145276725292
103, 0, 0, 0
104, 0, 0, 0
105, 0, 0, 0
106, 0, 0, 0
107, 0, 0, 0
108, 0, 0, 0
109, 0, 0, 0.0546085387468338
110, 0, 0, 0.02339689433574677
111, 0, 0, 15.30573177337646
112, 0, 0, 52.53385925292969
113, 0, 0, 188.6791229248047
114, 0, 0, 627.4447021484375
115, 0, 0, 1280.3037109375
116, 0, 0, 2894.728515625
117, 0, 0, 4283.9423828125
118, 0, 0, 4987.13427734375
119, 0, 0, 4930.224609375
120, 0, 0, 4508.8828125
121, 0, 0, 3979.076416015625
122, 0, 0, 3502.701416015625
123, 0, 0, 3185.959716796875
124, 0, 0, 2938.353515625
125, 0, 0, 2748.48046875
126, 0, 0, 2590.75927734375
127, 0, 0, 2467.19189453125
128, 0, 0, 2351.246826171875
129, 0, 0, 2260.303955078125
130, 0, 0, 2186.040283203125
131, 0, 0, 2111.576171875
132, 0, 0, 2045.1806640625
133, 0, 0, 1992.1923828125
134, 0, 0, 1930.867065429688
135, 0, 0, 1894.399780273438
136, 0, 0, 1843.122924804688
137, 0, 0, 1811.503662109375
138, 0, 0, 1768.588134765625
139, 0, 0, 1732.321411132812
140, 0, 0, 1700.315551757812
141, 0, 0, 1666.2958984375
142, 0, 0, 1636.548583984375
143, 0, 0, 1605.715942382812
144, 0, 0, 1584.032592773438
145, 0, 0, 1553.839599609375
146, 0, 0, 1537.085571289062
147, 0, 0, 1511.219604492188
148, 0, 0, 1493.341918945312
149, 0, 0, 1466.984619140625
150, 0, 0, 1452.402709960938
151, 0, 0, 1436.68505859375
152, 0, 0, 1419.574584960938
153, 0, 0, 1399.953857421875
154, 0, 0, 1383.9169921875
155, 0, 0, 1370.44482421875
156, 0, 0, 1346.160522460938
157, 0, 0, 1346.516723632812
158, 0, 0, 1318.827880859375
159, 0, 0, 1313.746704101562
160, 0, 0, 1296.290893554688
161, 0, 0, 1282.928344726562
162, 0, 0, 1277.51513671875
163, 0, 0, 1251.71875
164, 0, 0, 1254.519287109375
165, 0, 0, 1242.4423828125
166, 0, 0, 1231.311645507812
167, 0, 0, 1222.170532226562
168, 0, 0, 1212.156127929688
169, 0, 0, 1201.754150390625
170, 0, 0, 1190.74072265625
171, 0, 0, 1177.869140625
172, 0, 0, 1164.691162109375
173, 0, 0, 1159.172973632812
174, 0, 0, 1154.398315429688
175, 0, 0, 1147.954345703125
176, 0, 0, 1135.75537109375
177, 0, 0, 1126.297729492188
178, 0, 0, 1125.5634765625
179, 0, 0, 1110.49267578125
