# TOPAS Version: 3.3.p1
# Parameter File: Test.txt
# Results for scorer MLIC_Scorer
# Scored in component: MLIC
# X in 180 bins of 0.177778 cm
# Y in 1 bin  of 10 cm
# Z in 1 bin  of 10 cm
# EnergyDeposit ( MeV ) : Sum   
0, 0, 0, 0
1, 0, 0, 0
2, 0, 0, 0
3, 0, 0, 0
4, 0, 0, 0
5, 0, 0, 0
6, 0, 0, 0
7, 0, 0, 0
8, 0, 0, 0
9, 0, 0, 0
10, 0, 0, 0
11, 0, 0, 0
12, 0, 0, 0
13, 0, 0, 0
14, 0, 0, 0
15, 0, 0, 0
16, 0, 0, 0
17, 0, 0, 0
18, 0, 0, 0
19, 0, 0, 0
20, 0, 0, 0
21, 0, 0, 0
22, 0, 0, 0
23, 0, 0, 0
24, 0, 0, 0
25, 0, 0, 0
26, 0, 0, 0
27, 0, 0, 0
28, 0, 0, 0
29, 0, 0, 0
30, 0, 0, 0
31, 0, 0, 0
32, 0, 0, 0
33, 0, 0, 0
34, 0, 0, 0
35, 0, 0, 0
36, 0, 0, 0
37, 0, 0, 0
38, 0, 0, 0
39, 0, 0, 0
40, 0, 0, 0
41, 0, 0, 0
42, 0, 0, 0
43, 0, 0, 0
44, 0, 0, 0
45, 0, 0, 0
46, 0, 0, 0
47, 0, 0, 0
48, 0, 0, 0
49, 0, 0, 0
50, 0, 0, 0
51, 0, 0, 0
52, 0, 0, 0
53, 0, 0, 0
54, 0, 0, 0
55, 0, 0, 0
56, 0, 0, 0
57, 0, 0, 0
58, 0, 0, 0
59, 0, 0, 0
60, 0, 0, 0
61, 0, 0, 0
62, 0, 0, 0
63, 0, 0, 0
64, 0, 0, 0
65, 0, 0, 0
66, 0, 0, 36.50796508789062
67, 0, 0, 84.73912048339844
68, 0, 0, 181.144775390625
69, 0, 0, 264.3275756835938
70, 0, 0, 322.1636047363281
71, 0, 0, 310.7623901367188
72, 0, 0, 299.3857116699219
73, 0, 0, 283.2755432128906
74, 0, 0, 255.7982330322266
75, 0, 0, 228.8875885009766
76, 0, 0, 208.0398101806641
77, 0, 0, 195.4241790771484
78, 0, 0, 181.5547790527344
79, 0, 0, 171.6948394775391
80, 0, 0, 161.983154296875
81, 0, 0, 157.3726501464844
82, 0, 0, 149.4893951416016
83, 0, 0, 145.4288940429688
84, 0, 0, 141.1903381347656
85, 0, 0, 136.6263427734375
86, 0, 0, 132.6816253662109
87, 0, 0, 129.1604461669922
88, 0, 0, 127.7394409179688
89, 0, 0, 123.4252624511719
90, 0, 0, 119.8939971923828
91, 0, 0, 120.0884780883789
92, 0, 0, 116.0185241699219
93, 0, 0, 117.2554626464844
94, 0, 0, 111.7870025634766
95, 0, 0, 109.8750991821289
96, 0, 0, 106.6687545776367
97, 0, 0, 106.4892349243164
98, 0, 0, 104.2666091918945
99, 0, 0, 103.3408584594727
100, 0, 0, 102.7936782836914
101, 0, 0, 100.5023193359375
102, 0, 0, 98.37403869628906
103, 0, 0, 99.33583831787109
104, 0, 0, 97.58275604248047
105, 0, 0, 93.17348480224609
106, 0, 0, 93.51183319091797
107, 0, 0, 95.8681640625
108, 0, 0, 91.17489624023438
109, 0, 0, 92.31306457519531
110, 0, 0, 90.69608306884766
111, 0, 0, 90.62186431884766
112, 0, 0, 86.23948669433594
113, 0, 0, 87.163330078125
114, 0, 0, 87.39064025878906
115, 0, 0, 84.99662780761719
116, 0, 0, 83.43875885009766
117, 0, 0, 83.23499298095703
118, 0, 0, 85.77108764648438
119, 0, 0, 82.11574554443359
120, 0, 0, 82.86444091796875
121, 0, 0, 80.59044647216797
122, 0, 0, 80.83176422119141
123, 0, 0, 80.23635864257812
124, 0, 0, 79.41136169433594
125, 0, 0, 78.41669464111328
126, 0, 0, 79.84309387207031
127, 0, 0, 80.25962066650391
128, 0, 0, 75.91032409667969
129, 0, 0, 75.84970092773438
130, 0, 0, 76.28713226318359
131, 0, 0, 73.45116424560547
132, 0, 0, 74.18101501464844
133, 0, 0, 75.08988952636719
134, 0, 0, 74.04878997802734
135, 0, 0, 74.02351379394531
136, 0, 0, 72.70806884765625
137, 0, 0, 73.481689453125
138, 0, 0, 71.97949981689453
139, 0, 0, 73.01352691650391
140, 0, 0, 72.94229125976562
141, 0, 0, 73.15493011474609
142, 0, 0, 70.70832824707031
143, 0, 0, 71.72559356689453
144, 0, 0, 70.31570434570312
145, 0, 0, 70.13633728027344
146, 0, 0, 68.45079040527344
147, 0, 0, 70.11138153076172
148, 0, 0, 69.88557434082031
149, 0, 0, 66.67106628417969
150, 0, 0, 68.33016204833984
151, 0, 0, 68.41587829589844
152, 0, 0, 66.91559600830078
153, 0, 0, 67.95053100585938
154, 0, 0, 66.22829437255859
155, 0, 0, 68.22760772705078
156, 0, 0, 68.55210113525391
157, 0, 0, 63.53259658813477
158, 0, 0, 64.38423919677734
159, 0, 0, 64.32479858398438
160, 0, 0, 64.9791259765625
161, 0, 0, 64.80414581298828
162, 0, 0, 61.85780334472656
163, 0, 0, 62.70317840576172
164, 0, 0, 63.57465744018555
165, 0, 0, 64.66791534423828
166, 0, 0, 63.68269729614258
167, 0, 0, 63.64739227294922
168, 0, 0, 65.14742279052734
169, 0, 0, 60.74992370605469
170, 0, 0, 62.324462890625
171, 0, 0, 61.15791320800781
172, 0, 0, 59.9230842590332
173, 0, 0, 60.52863311767578
174, 0, 0, 61.13731002807617
175, 0, 0, 61.10225677490234
176, 0, 0, 63.11505889892578
177, 0, 0, 61.17532348632812
178, 0, 0, 60.46429061889648
179, 0, 0, 59.88258361816406
