# TOPAS Version: 3.3.p1
# Parameter File: Test.txt
# Results for scorer MLIC_Scorer
# Scored in component: MLIC
# X in 165 bins of 0.2 cm
# Y in 1 bin  of 10 cm
# Z in 1 bin  of 10 cm
# EnergyDeposit ( MeV ) : Sum   
0, 0, 0, 0
1, 0, 0, 0
2, 0, 0, 0
3, 0, 0, 0
4, 0, 0, 0
5, 0, 0, 0
6, 0, 0, 0
7, 0, 0, 0
8, 0, 0, 0
9, 0, 0, 0
10, 0, 0, 0
11, 0, 0, 0
12, 0, 0, 0
13, 0, 0, 0
14, 0, 0, 0
15, 0, 0, 0
16, 0, 0, 0
17, 0, 0, 0
18, 0, 0, 0
19, 0, 0, 0
20, 0, 0, 0
21, 0, 0, 0
22, 0, 0, 0
23, 0, 0, 0
24, 0, 0, 0
25, 0, 0, 0
26, 0, 0, 0
27, 0, 0, 0
28, 0, 0, 0
29, 0, 0, 0
30, 0, 0, 0
31, 0, 0, 0
32, 0, 0, 0
33, 0, 0, 0
34, 0, 0, 0
35, 0, 0, 0
36, 0, 0, 0
37, 0, 0, 0
38, 0, 0, 0
39, 0, 0, 0
40, 0, 0, 0
41, 0, 0, 0
42, 0, 0, 0
43, 0, 0, 0
44, 0, 0, 0
45, 0, 0, 0
46, 0, 0, 0
47, 0, 0, 0
48, 0, 0, 0
49, 0, 0, 0
50, 0, 0, 0
51, 0, 0, 0
52, 0, 0, 0
53, 0, 0, 0
54, 0, 0, 0
55, 0, 0, 0
56, 0, 0, 0
57, 0, 0, 0
58, 0, 0, 0
59, 0, 0, 0
60, 0, 0, 0
61, 0, 0, 0
62, 0, 0, 0
63, 0, 0, 0
64, 0, 0, 0
65, 0, 0, 0
66, 0, 0, 0
67, 0, 0, 0
68, 0, 0, 0
69, 0, 0, 0
70, 0, 0, 0
71, 0, 0, 0
72, 0, 0, 0
73, 0, 0, 0
74, 0, 0, 0
75, 0, 0, 0
76, 0, 0, 0
77, 0, 0, 0
78, 0, 0, 0
79, 0, 0, 0
80, 0, 0, 0
81, 0, 0, 0.02631111443042755
82, 0, 0, 0
83, 0, 0, 0
84, 0, 0, 0
85, 0, 0, 0.04311131313443184
86, 0, 0, 0
87, 0, 0, 0
88, 0, 0, 0
89, 0, 0, 0
90, 0, 0, 0
91, 0, 0, 0
92, 0, 0, 0
93, 0, 0, 0
94, 0, 0, 9.377786636352539
95, 0, 0, 24.67481231689453
96, 0, 0, 119.0866470336914
97, 0, 0, 514.0855102539062
98, 0, 0, 1353.234497070312
99, 0, 0, 2756.6240234375
100, 0, 0, 4460.296875
101, 0, 0, 5292.15966796875
102, 0, 0, 5353.31982421875
103, 0, 0, 4970.36376953125
104, 0, 0, 4290.71484375
105, 0, 0, 3781.82958984375
106, 0, 0, 3428.263427734375
107, 0, 0, 3154.860107421875
108, 0, 0, 2943.78466796875
109, 0, 0, 2782.314453125
110, 0, 0, 2645.061279296875
111, 0, 0, 2522.275146484375
112, 0, 0, 2429.05615234375
113, 0, 0, 2348.0224609375
114, 0, 0, 2264.953369140625
115, 0, 0, 2198.048095703125
116, 0, 0, 2132.796875
117, 0, 0, 2069.020751953125
118, 0, 0, 2024.874877929688
119, 0, 0, 1979.128173828125
120, 0, 0, 1925.693725585938
121, 0, 0, 1889.458984375
122, 0, 0, 1848.26025390625
123, 0, 0, 1825.421508789062
124, 0, 0, 1773.325439453125
125, 0, 0, 1756.802490234375
126, 0, 0, 1716.538330078125
127, 0, 0, 1689.715576171875
128, 0, 0, 1667.650390625
129, 0, 0, 1643.789428710938
130, 0, 0, 1624.67626953125
131, 0, 0, 1596.13037109375
132, 0, 0, 1579.8232421875
133, 0, 0, 1555.126586914062
134, 0, 0, 1545.566162109375
135, 0, 0, 1524.407836914062
136, 0, 0, 1500.858276367188
137, 0, 0, 1486.62353515625
138, 0, 0, 1463.906860351562
139, 0, 0, 1448.123413085938
140, 0, 0, 1422.98388671875
141, 0, 0, 1419.628173828125
142, 0, 0, 1402.339599609375
143, 0, 0, 1394.413452148438
144, 0, 0, 1371.40869140625
145, 0, 0, 1362.765502929688
146, 0, 0, 1352.363037109375
147, 0, 0, 1341.145629882812
148, 0, 0, 1324.078125
149, 0, 0, 1312.168334960938
150, 0, 0, 1296.6484375
151, 0, 0, 1290.688110351562
152, 0, 0, 1282.127075195312
153, 0, 0, 1268.28662109375
154, 0, 0, 1269.275390625
155, 0, 0, 1252.080932617188
156, 0, 0, 1242.720703125
157, 0, 0, 1235.488159179688
158, 0, 0, 1226.7763671875
159, 0, 0, 1215.94482421875
160, 0, 0, 1214.4609375
161, 0, 0, 1206.297119140625
162, 0, 0, 1192.437377929688
163, 0, 0, 1184.525146484375
164, 0, 0, 1186.047607421875
