# TOPAS Version: 3.3.p1
# Parameter File: Test.txt
# Results for scorer MLIC_Scorer
# Scored in component: MLIC
# X in 180 bins of 0.177778 cm
# Y in 1 bin  of 10 cm
# Z in 1 bin  of 10 cm
# EnergyDeposit ( MeV ) : Sum   
0, 0, 0, 0
1, 0, 0, 0
2, 0, 0, 0
3, 0, 0, 0
4, 0, 0, 0
5, 0, 0, 0
6, 0, 0, 0
7, 0, 0, 0
8, 0, 0, 0
9, 0, 0, 0
10, 0, 0, 0
11, 0, 0, 0
12, 0, 0, 0
13, 0, 0, 0
14, 0, 0, 0
15, 0, 0, 0
16, 0, 0, 0
17, 0, 0, 0
18, 0, 0, 0
19, 0, 0, 0
20, 0, 0, 0
21, 0, 0, 0
22, 0, 0, 0
23, 0, 0, 0
24, 0, 0, 0
25, 0, 0, 0
26, 0, 0, 0
27, 0, 0, 0
28, 0, 0, 0
29, 0, 0, 0
30, 0, 0, 0
31, 0, 0, 0
32, 0, 0, 0
33, 0, 0, 0
34, 0, 0, 0
35, 0, 0, 0
36, 0, 0, 0
37, 0, 0, 0
38, 0, 0, 0
39, 0, 0, 0
40, 0, 0, 0
41, 0, 0, 0
42, 0, 0, 0
43, 0, 0, 0
44, 0, 0, 0
45, 0, 0, 0
46, 0, 0, 0
47, 0, 0, 0
48, 0, 0, 0
49, 0, 0, 0
50, 0, 0, 0
51, 0, 0, 0
52, 0, 0, 0
53, 0, 0, 0
54, 0, 0, 0
55, 0, 0, 0
56, 0, 0, 0
57, 0, 0, 0
58, 0, 0, 0
59, 0, 0, 0
60, 0, 0, 0
61, 0, 0, 0
62, 0, 0, 0
63, 0, 0, 0
64, 0, 0, 0
65, 0, 0, 0
66, 0, 0, 0
67, 0, 0, 0
68, 0, 0, 0
69, 0, 0, 0
70, 0, 0, 0
71, 0, 0, 0
72, 0, 0, 0
73, 0, 0, 0
74, 0, 0, 0
75, 0, 0, 0
76, 0, 0, 0
77, 0, 0, 0
78, 0, 0, 0
79, 0, 0, 0.02025255374610424
80, 0, 0, 0
81, 0, 0, 0
82, 0, 0, 0.001369228935800493
83, 0, 0, 0
84, 0, 0, 0.0005133225349709392
85, 0, 0, 0
86, 0, 0, 0
87, 0, 0, 0
88, 0, 0, 0
89, 0, 0, 0
90, 0, 0, 0
91, 0, 0, 0
92, 0, 0, 0
93, 0, 0, 0
94, 0, 0, 0
95, 0, 0, 0
96, 0, 0, 0
97, 0, 0, 0
98, 0, 0, 0
99, 0, 0, 0
100, 0, 0, 0
101, 0, 0, 0
102, 0, 0, 0
103, 0, 0, 0
104, 0, 0, 0
105, 0, 0, 0
106, 0, 0, 0
107, 0, 0, 0
108, 0, 0, 0
109, 0, 0, 0
110, 0, 0, 0
111, 0, 0, 0
112, 0, 0, 24.68850135803223
113, 0, 0, 164.89697265625
114, 0, 0, 674.322998046875
115, 0, 0, 1460.363525390625
116, 0, 0, 2776.392822265625
117, 0, 0, 4175.69384765625
118, 0, 0, 5120.68310546875
119, 0, 0, 5029.4384765625
120, 0, 0, 4551.16064453125
121, 0, 0, 3947.783203125
122, 0, 0, 3498.39208984375
123, 0, 0, 3162.90478515625
124, 0, 0, 2925.908935546875
125, 0, 0, 2736.22265625
126, 0, 0, 2586.7373046875
127, 0, 0, 2460.418212890625
128, 0, 0, 2353.314697265625
129, 0, 0, 2263.849365234375
130, 0, 0, 2187.634765625
131, 0, 0, 2110.169189453125
132, 0, 0, 2052.336181640625
133, 0, 0, 1988.330810546875
134, 0, 0, 1936.35986328125
135, 0, 0, 1887.904907226562
136, 0, 0, 1838.4052734375
137, 0, 0, 1807.150146484375
138, 0, 0, 1763.213012695312
139, 0, 0, 1734.819580078125
140, 0, 0, 1692.256225585938
141, 0, 0, 1662.128662109375
142, 0, 0, 1636.833374023438
143, 0, 0, 1606.982543945312
144, 0, 0, 1584.141479492188
145, 0, 0, 1560.9345703125
146, 0, 0, 1530.671020507812
147, 0, 0, 1515.69873046875
148, 0, 0, 1489.055419921875
149, 0, 0, 1475.314697265625
150, 0, 0, 1453.599853515625
151, 0, 0, 1430.766723632812
152, 0, 0, 1411.51123046875
153, 0, 0, 1399.682739257812
154, 0, 0, 1387.740356445312
155, 0, 0, 1366.297607421875
156, 0, 0, 1344.373657226562
157, 0, 0, 1333.361450195312
158, 0, 0, 1323.087158203125
159, 0, 0, 1306.455322265625
160, 0, 0, 1295.791870117188
161, 0, 0, 1284.897338867188
162, 0, 0, 1272.188110351562
163, 0, 0, 1258.864501953125
164, 0, 0, 1246.216186523438
165, 0, 0, 1242.472290039062
166, 0, 0, 1222.358764648438
167, 0, 0, 1221.183959960938
168, 0, 0, 1203.287719726562
169, 0, 0, 1192.408203125
170, 0, 0, 1190.134887695312
171, 0, 0, 1175.593139648438
172, 0, 0, 1178.576171875
173, 0, 0, 1163.892333984375
174, 0, 0, 1156.750244140625
175, 0, 0, 1144.663940429688
176, 0, 0, 1139.780151367188
177, 0, 0, 1128.700927734375
178, 0, 0, 1120.087890625
179, 0, 0, 1105.782592773438
