# TOPAS Version: 3.3.p1
# Parameter File: Test.txt
# Results for scorer MLIC_Scorer
# Scored in component: MLIC
# X in 180 bins of 0.183333 cm
# Y in 1 bin  of 10 cm
# Z in 1 bin  of 10 cm
# EnergyDeposit ( MeV ) : Sum   
0, 0, 0, 0
1, 0, 0, 0
2, 0, 0, 0
3, 0, 0, 0
4, 0, 0, 0
5, 0, 0, 0
6, 0, 0, 0
7, 0, 0, 0
8, 0, 0, 0
9, 0, 0, 0
10, 0, 0, 0
11, 0, 0, 0
12, 0, 0, 0
13, 0, 0, 0
14, 0, 0, 0
15, 0, 0, 0
16, 0, 0, 0
17, 0, 0, 0
18, 0, 0, 0
19, 0, 0, 0
20, 0, 0, 0
21, 0, 0, 0
22, 0, 0, 0
23, 0, 0, 0
24, 0, 0, 0
25, 0, 0, 0
26, 0, 0, 0
27, 0, 0, 0
28, 0, 0, 0
29, 0, 0, 0
30, 0, 0, 0
31, 0, 0, 0
32, 0, 0, 0
33, 0, 0, 0
34, 0, 0, 0
35, 0, 0, 0
36, 0, 0, 0
37, 0, 0, 0
38, 0, 0, 0
39, 0, 0, 0
40, 0, 0, 0
41, 0, 0, 0
42, 0, 0, 0
43, 0, 0, 0
44, 0, 0, 0
45, 0, 0, 0
46, 0, 0, 0
47, 0, 0, 0
48, 0, 0, 0
49, 0, 0, 0
50, 0, 0, 0
51, 0, 0, 0
52, 0, 0, 0
53, 0, 0, 0
54, 0, 0, 0
55, 0, 0, 0
56, 0, 0, 0
57, 0, 0, 0
58, 0, 0, 0
59, 0, 0, 0
60, 0, 0, 0
61, 0, 0, 0
62, 0, 0, 0
63, 0, 0, 0
64, 0, 0, 0
65, 0, 0, 0
66, 0, 0, 0
67, 0, 0, 0
68, 0, 0, 0
69, 0, 0, 0
70, 0, 0, 0
71, 0, 0, 0
72, 0, 0, 0
73, 0, 0, 0
74, 0, 0, 0
75, 0, 0, 0
76, 0, 0, 4.32456111907959
77, 0, 0, 30.6044864654541
78, 0, 0, 166.1527252197266
79, 0, 0, 689.5537719726562
80, 0, 0, 1661.1748046875
81, 0, 0, 2831.833984375
82, 0, 0, 4221.30859375
83, 0, 0, 5143.08447265625
84, 0, 0, 5022.6787109375
85, 0, 0, 4614.8916015625
86, 0, 0, 4064.124755859375
87, 0, 0, 3558.35546875
88, 0, 0, 3213.3193359375
89, 0, 0, 2976.240234375
90, 0, 0, 2781.5869140625
91, 0, 0, 2629.430419921875
92, 0, 0, 2504.59716796875
93, 0, 0, 2397.58203125
94, 0, 0, 2295.8876953125
95, 0, 0, 2209.6376953125
96, 0, 0, 2150.634033203125
97, 0, 0, 2084.528564453125
98, 0, 0, 2021.901123046875
99, 0, 0, 1971.493286132812
100, 0, 0, 1917.241088867188
101, 0, 0, 1878.335327148438
102, 0, 0, 1831.884643554688
103, 0, 0, 1796.602661132812
104, 0, 0, 1754.13134765625
105, 0, 0, 1721.948486328125
106, 0, 0, 1696.057250976562
107, 0, 0, 1660.770874023438
108, 0, 0, 1637.982177734375
109, 0, 0, 1600.349243164062
110, 0, 0, 1583.934448242188
111, 0, 0, 1564.520141601562
112, 0, 0, 1529.65771484375
113, 0, 0, 1521.057006835938
114, 0, 0, 1492.77880859375
115, 0, 0, 1481.724975585938
116, 0, 0, 1458.917724609375
117, 0, 0, 1435.287841796875
118, 0, 0, 1424.047119140625
119, 0, 0, 1402.840698242188
120, 0, 0, 1387.37353515625
121, 0, 0, 1381.663940429688
122, 0, 0, 1359.34765625
123, 0, 0, 1351.289672851562
124, 0, 0, 1325.6357421875
125, 0, 0, 1318.001342773438
126, 0, 0, 1305.553344726562
127, 0, 0, 1294.07275390625
128, 0, 0, 1283.80419921875
129, 0, 0, 1269.684448242188
130, 0, 0, 1255.307006835938
131, 0, 0, 1251.95556640625
132, 0, 0, 1237.12939453125
133, 0, 0, 1227.173095703125
134, 0, 0, 1213.844970703125
135, 0, 0, 1208.60107421875
136, 0, 0, 1199.614868164062
137, 0, 0, 1199.112915039062
138, 0, 0, 1177.477172851562
139, 0, 0, 1171.962768554688
140, 0, 0, 1166.08544921875
141, 0, 0, 1153.71826171875
142, 0, 0, 1140.850341796875
143, 0, 0, 1143.720336914062
144, 0, 0, 1136.171997070312
145, 0, 0, 1123.335083007812
146, 0, 0, 1121.582397460938
147, 0, 0, 1112.7451171875
148, 0, 0, 1117.86083984375
149, 0, 0, 1099.858032226562
150, 0, 0, 1094.2431640625
151, 0, 0, 1082.74072265625
152, 0, 0, 1082.60302734375
153, 0, 0, 1075.893188476562
154, 0, 0, 1064.973754882812
155, 0, 0, 1054.930541992188
156, 0, 0, 1058.740234375
157, 0, 0, 1043.763916015625
158, 0, 0, 1040.138916015625
159, 0, 0, 1028.044311523438
160, 0, 0, 1038.490600585938
161, 0, 0, 1032.685302734375
162, 0, 0, 1029.709838867188
163, 0, 0, 1023.272705078125
164, 0, 0, 1014.330871582031
165, 0, 0, 1015.43212890625
166, 0, 0, 996.81591796875
167, 0, 0, 995.2840576171875
168, 0, 0, 993.5107421875
169, 0, 0, 988.4555053710938
170, 0, 0, 990.603515625
171, 0, 0, 975.4647216796875
172, 0, 0, 969.244140625
173, 0, 0, 973.5040283203125
174, 0, 0, 972.9593505859375
175, 0, 0, 964.44677734375
176, 0, 0, 962.868408203125
177, 0, 0, 958.8563232421875
178, 0, 0, 952.593994140625
179, 0, 0, 950.073486328125
