# TOPAS Version: 3.3.p1
# Parameter File: Test.txt
# Results for scorer MLIC_Scorer
# Scored in component: MLIC
# X in 165 bins of 0.2 cm
# Y in 1 bin  of 10 cm
# Z in 1 bin  of 10 cm
# EnergyDeposit ( MeV ) : Sum   
0, 0, 0, 0
1, 0, 0, 0
2, 0, 0, 0
3, 0, 0, 0
4, 0, 0, 0
5, 0, 0, 0
6, 0, 0, 0
7, 0, 0, 0
8, 0, 0, 0
9, 0, 0, 0
10, 0, 0, 0
11, 0, 0, 0
12, 0, 0, 0
13, 0, 0, 0
14, 0, 0, 0
15, 0, 0, 0
16, 0, 0, 0
17, 0, 0, 0
18, 0, 0, 0
19, 0, 0, 0
20, 0, 0, 0
21, 0, 0, 0
22, 0, 0, 0
23, 0, 0, 0
24, 0, 0, 0
25, 0, 0, 0
26, 0, 0, 0
27, 0, 0, 0
28, 0, 0, 0
29, 0, 0, 0
30, 0, 0, 0
31, 0, 0, 0
32, 0, 0, 0
33, 0, 0, 0
34, 0, 0, 0
35, 0, 0, 0
36, 0, 0, 0
37, 0, 0, 0
38, 0, 0, 0
39, 0, 0, 0
40, 0, 0, 0
41, 0, 0, 0
42, 0, 0, 0
43, 0, 0, 0
44, 0, 0, 0
45, 0, 0, 0
46, 0, 0, 0
47, 0, 0, 0
48, 0, 0, 0.04031115770339966
49, 0, 0, 0
50, 0, 0, 7.37199661671184e-05
51, 0, 0, 0
52, 0, 0, 0
53, 0, 0, 0
54, 0, 0, 0
55, 0, 0, 0.04379025101661682
56, 0, 0, 0
57, 0, 0, 0
58, 0, 0, 19.82707214355469
59, 0, 0, 158.0449066162109
60, 0, 0, 500.9224548339844
61, 0, 0, 1378.309692382812
62, 0, 0, 2879.432861328125
63, 0, 0, 4746.03759765625
64, 0, 0, 5553.62646484375
65, 0, 0, 5393.7763671875
66, 0, 0, 4775.95947265625
67, 0, 0, 4207.7060546875
68, 0, 0, 3734.718505859375
69, 0, 0, 3383.751220703125
70, 0, 0, 3140.779296875
71, 0, 0, 2931.612060546875
72, 0, 0, 2769.157958984375
73, 0, 0, 2633.49853515625
74, 0, 0, 2519.70654296875
75, 0, 0, 2425.1533203125
76, 0, 0, 2336.8427734375
77, 0, 0, 2260.645751953125
78, 0, 0, 2185.583984375
79, 0, 0, 2125.57177734375
80, 0, 0, 2073.656005859375
81, 0, 0, 2017.59423828125
82, 0, 0, 1974.574096679688
83, 0, 0, 1934.6181640625
84, 0, 0, 1895.765502929688
85, 0, 0, 1845.970703125
86, 0, 0, 1806.46142578125
87, 0, 0, 1779.275146484375
88, 0, 0, 1742.71435546875
89, 0, 0, 1719.798706054688
90, 0, 0, 1697.388916015625
91, 0, 0, 1673.091552734375
92, 0, 0, 1641.316284179688
93, 0, 0, 1614.403198242188
94, 0, 0, 1601.987548828125
95, 0, 0, 1576.330444335938
96, 0, 0, 1554.540893554688
97, 0, 0, 1535.05712890625
98, 0, 0, 1511.011962890625
99, 0, 0, 1499.3603515625
100, 0, 0, 1483.184814453125
101, 0, 0, 1462.412353515625
102, 0, 0, 1447.671630859375
103, 0, 0, 1441.943969726562
104, 0, 0, 1419.33544921875
105, 0, 0, 1405.582885742188
106, 0, 0, 1380.774169921875
107, 0, 0, 1378.107788085938
108, 0, 0, 1365.116821289062
109, 0, 0, 1348.926147460938
110, 0, 0, 1345.17578125
111, 0, 0, 1328.559448242188
112, 0, 0, 1311.095458984375
113, 0, 0, 1306.521484375
114, 0, 0, 1288.052490234375
115, 0, 0, 1287.244995117188
116, 0, 0, 1270.96533203125
117, 0, 0, 1267.211669921875
118, 0, 0, 1258.103271484375
119, 0, 0, 1243.5693359375
120, 0, 0, 1230.06103515625
121, 0, 0, 1223.318359375
122, 0, 0, 1216.55322265625
123, 0, 0, 1205.066528320312
124, 0, 0, 1204.108276367188
125, 0, 0, 1201.803955078125
126, 0, 0, 1188.602661132812
127, 0, 0, 1181.420776367188
128, 0, 0, 1166.997436523438
129, 0, 0, 1170.343994140625
130, 0, 0, 1163.399658203125
131, 0, 0, 1150.859497070312
132, 0, 0, 1149.0986328125
133, 0, 0, 1134.889038085938
134, 0, 0, 1137.785888671875
135, 0, 0, 1125.00439453125
136, 0, 0, 1124.684204101562
137, 0, 0, 1105.124267578125
138, 0, 0, 1100.900634765625
139, 0, 0, 1097.914794921875
140, 0, 0, 1096.162841796875
141, 0, 0, 1086.818115234375
142, 0, 0, 1084.722778320312
143, 0, 0, 1077.984375
144, 0, 0, 1069.269165039062
145, 0, 0, 1064.504760742188
146, 0, 0, 1070.135009765625
147, 0, 0, 1061.775756835938
148, 0, 0, 1054.578857421875
149, 0, 0, 1044.5947265625
150, 0, 0, 1041.716918945312
151, 0, 0, 1038.176513671875
152, 0, 0, 1037.619018554688
153, 0, 0, 1028.380249023438
154, 0, 0, 1023.704711914062
155, 0, 0, 1021.183166503906
156, 0, 0, 1011.720092773438
157, 0, 0, 1016.25048828125
158, 0, 0, 1006.598388671875
159, 0, 0, 1004.264343261719
160, 0, 0, 1003.081481933594
161, 0, 0, 997.5619506835938
162, 0, 0, 998.2247314453125
163, 0, 0, 999.4761352539062
164, 0, 0, 982.3225708007812
