# TOPAS Version: 3.3.p1
# Parameter File: Test.txt
# Results for scorer MLIC_Scorer
# Scored in component: MLIC
# X in 180 bins of 0.177778 cm
# Y in 1 bin  of 10 cm
# Z in 1 bin  of 10 cm
# EnergyDeposit ( MeV ) : Sum   
0, 0, 0, 0
1, 0, 0, 0
2, 0, 0, 0
3, 0, 0, 0
4, 0, 0, 0
5, 0, 0, 0
6, 0, 0, 0
7, 0, 0, 0
8, 0, 0, 0
9, 0, 0, 0
10, 0, 0, 0
11, 0, 0, 0
12, 0, 0, 0
13, 0, 0, 0
14, 0, 0, 0
15, 0, 0, 0
16, 0, 0, 0
17, 0, 0, 0
18, 0, 0, 0
19, 0, 0, 0
20, 0, 0, 0
21, 0, 0, 0
22, 0, 0, 0
23, 0, 0, 0
24, 0, 0, 0
25, 0, 0, 0
26, 0, 0, 0
27, 0, 0, 0
28, 0, 0, 0
29, 0, 0, 0
30, 0, 0, 0
31, 0, 0, 0
32, 0, 0, 0
33, 0, 0, 0
34, 0, 0, 0
35, 0, 0, 0
36, 0, 0, 0
37, 0, 0, 0
38, 0, 0, 0
39, 0, 0, 0
40, 0, 0, 0
41, 0, 0, 0
42, 0, 0, 0
43, 0, 0, 0
44, 0, 0, 0
45, 0, 0, 0
46, 0, 0, 0
47, 0, 0, 0
48, 0, 0, 0
49, 0, 0, 0
50, 0, 0, 0
51, 0, 0, 0
52, 0, 0, 0
53, 0, 0, 0
54, 0, 0, 0
55, 0, 0, 0
56, 0, 0, 0
57, 0, 0, 0
58, 0, 0, 0
59, 0, 0, 0
60, 0, 0, 0
61, 0, 0, 0
62, 0, 0, 0
63, 0, 0, 0
64, 0, 0, 0
65, 0, 0, 0
66, 0, 0, 0
67, 0, 0, 0
68, 0, 0, 0
69, 0, 0, 0
70, 0, 0, 0
71, 0, 0, 0
72, 0, 0, 0
73, 0, 0, 0
74, 0, 0, 0
75, 0, 0, 0
76, 0, 0, 0
77, 0, 0, 0
78, 0, 0, 0
79, 0, 0, 0
80, 0, 0, 0
81, 0, 0, 0
82, 0, 0, 0
83, 0, 0, 0
84, 0, 0, 0
85, 0, 0, 0
86, 0, 0, 0
87, 0, 0, 0
88, 0, 0, 0
89, 0, 0, 0
90, 0, 0, 0
91, 0, 0, 0
92, 0, 0, 0
93, 0, 0, 0
94, 0, 0, 0
95, 0, 0, 0
96, 0, 0, 0
97, 0, 0, 0
98, 0, 0, 0
99, 0, 0, 0
100, 0, 0, 0
101, 0, 0, 0
102, 0, 0, 0
103, 0, 0, 0
104, 0, 0, 0
105, 0, 0, 0
106, 0, 0, 0
107, 0, 0, 0
108, 0, 0, 0
109, 0, 0, 0
110, 0, 0, 0
111, 0, 0, 0
112, 0, 0, 0
113, 0, 0, 0
114, 0, 0, 0
115, 0, 0, 0
116, 0, 0, 0
117, 0, 0, 0
118, 0, 0, 0
119, 0, 0, 0
120, 0, 0, 0
121, 0, 0, 0
122, 0, 0, 0
123, 0, 0, 0
124, 0, 0, 0
125, 0, 0, 0
126, 0, 0, 0
127, 0, 0, 5.088233470916748
128, 0, 0, 36.28649520874023
129, 0, 0, 91.75269317626953
130, 0, 0, 197.3741760253906
131, 0, 0, 286.8746337890625
132, 0, 0, 396.6446533203125
133, 0, 0, 439.7108459472656
134, 0, 0, 430.8031616210938
135, 0, 0, 410.5171813964844
136, 0, 0, 355.7703857421875
137, 0, 0, 316.3616943359375
138, 0, 0, 288.5489501953125
139, 0, 0, 263.7754211425781
140, 0, 0, 247.0804290771484
141, 0, 0, 235.6372222900391
142, 0, 0, 223.4718475341797
143, 0, 0, 214.3774261474609
144, 0, 0, 204.6268768310547
145, 0, 0, 196.9441528320312
146, 0, 0, 193.8603820800781
147, 0, 0, 187.73388671875
148, 0, 0, 181.4552307128906
149, 0, 0, 177.7799835205078
150, 0, 0, 174.5627136230469
151, 0, 0, 169.7115325927734
152, 0, 0, 164.3162536621094
153, 0, 0, 161.4196319580078
154, 0, 0, 157.8166351318359
155, 0, 0, 153.2124786376953
156, 0, 0, 149.4770812988281
157, 0, 0, 149.6404266357422
158, 0, 0, 145.4449310302734
159, 0, 0, 146.4918823242188
160, 0, 0, 141.9936676025391
161, 0, 0, 138.3227996826172
162, 0, 0, 139.0491333007812
163, 0, 0, 136.7205505371094
164, 0, 0, 135.5762481689453
165, 0, 0, 134.2874298095703
166, 0, 0, 130.3624420166016
167, 0, 0, 129.9685363769531
168, 0, 0, 127.7327575683594
169, 0, 0, 126.2781753540039
170, 0, 0, 126.1088638305664
171, 0, 0, 124.1541976928711
172, 0, 0, 121.8969650268555
173, 0, 0, 122.8730239868164
174, 0, 0, 121.4842224121094
175, 0, 0, 120.2044448852539
176, 0, 0, 116.1217422485352
177, 0, 0, 116.9137420654297
178, 0, 0, 116.0762634277344
179, 0, 0, 113.2416458129883
