# TOPAS Version: 3.3.p1
# Parameter File: Test.txt
# Results for scorer MLIC_Scorer
# Scored in component: MLIC
# X in 180 bins of 0.177778 cm
# Y in 1 bin  of 10 cm
# Z in 1 bin  of 10 cm
# EnergyDeposit ( MeV ) : Sum   
0, 0, 0, 0
1, 0, 0, 0
2, 0, 0, 0
3, 0, 0, 0
4, 0, 0, 0
5, 0, 0, 0
6, 0, 0, 0
7, 0, 0, 0
8, 0, 0, 0
9, 0, 0, 0
10, 0, 0, 0
11, 0, 0, 0
12, 0, 0, 0
13, 0, 0, 0
14, 0, 0, 0
15, 0, 0, 0
16, 0, 0, 0
17, 0, 0, 0
18, 0, 0, 0
19, 0, 0, 0
20, 0, 0, 0
21, 0, 0, 0
22, 0, 0, 0
23, 0, 0, 0
24, 0, 0, 0
25, 0, 0, 0
26, 0, 0, 0
27, 0, 0, 0
28, 0, 0, 0
29, 0, 0, 0
30, 0, 0, 0
31, 0, 0, 0
32, 0, 0, 0
33, 0, 0, 0
34, 0, 0, 0
35, 0, 0, 0
36, 0, 0, 0
37, 0, 0, 0
38, 0, 0, 0
39, 0, 0, 0
40, 0, 0, 0
41, 0, 0, 0
42, 0, 0, 0
43, 0, 0, 0
44, 0, 0, 0
45, 0, 0, 0
46, 0, 0, 0
47, 0, 0, 0
48, 0, 0, 0.02056311257183552
49, 0, 0, 0
50, 0, 0, 18.68569183349609
51, 0, 0, 60.58231353759766
52, 0, 0, 260.3884887695312
53, 0, 0, 919.671142578125
54, 0, 0, 1915.091796875
55, 0, 0, 3352.2646484375
56, 0, 0, 4490.81494140625
57, 0, 0, 4975.48193359375
58, 0, 0, 4995.17041015625
59, 0, 0, 4332.8193359375
60, 0, 0, 3794.54638671875
61, 0, 0, 3379.0244140625
62, 0, 0, 3078.291259765625
63, 0, 0, 2858.30615234375
64, 0, 0, 2688.981689453125
65, 0, 0, 2537.138427734375
66, 0, 0, 2419.312744140625
67, 0, 0, 2330.9833984375
68, 0, 0, 2237.386962890625
69, 0, 0, 2151.721435546875
70, 0, 0, 2092.7236328125
71, 0, 0, 2027.770141601562
72, 0, 0, 1963.730590820312
73, 0, 0, 1918.489135742188
74, 0, 0, 1873.199340820312
75, 0, 0, 1837.620971679688
76, 0, 0, 1779.701416015625
77, 0, 0, 1754.348510742188
78, 0, 0, 1719.895874023438
79, 0, 0, 1688.206298828125
80, 0, 0, 1654.73779296875
81, 0, 0, 1621.604614257812
82, 0, 0, 1609.6142578125
83, 0, 0, 1571.2685546875
84, 0, 0, 1549.603881835938
85, 0, 0, 1522.387451171875
86, 0, 0, 1505.55224609375
87, 0, 0, 1484.181884765625
88, 0, 0, 1455.80224609375
89, 0, 0, 1439.571533203125
90, 0, 0, 1427.072998046875
91, 0, 0, 1412.389770507812
92, 0, 0, 1393.009399414062
93, 0, 0, 1379.150024414062
94, 0, 0, 1366.572631835938
95, 0, 0, 1339.378662109375
96, 0, 0, 1335.516235351562
97, 0, 0, 1318.526977539062
98, 0, 0, 1301.501953125
99, 0, 0, 1292.170776367188
100, 0, 0, 1281.591918945312
101, 0, 0, 1267.921020507812
102, 0, 0, 1259.872192382812
103, 0, 0, 1245.75830078125
104, 0, 0, 1227.756469726562
105, 0, 0, 1224.41357421875
106, 0, 0, 1215.8212890625
107, 0, 0, 1200.175415039062
108, 0, 0, 1198.455444335938
109, 0, 0, 1186.811645507812
110, 0, 0, 1179.83154296875
111, 0, 0, 1166.8193359375
112, 0, 0, 1155.215576171875
113, 0, 0, 1147.202026367188
114, 0, 0, 1144.941162109375
115, 0, 0, 1131.216552734375
116, 0, 0, 1124.367797851562
117, 0, 0, 1116.65869140625
118, 0, 0, 1105.620971679688
119, 0, 0, 1098.897216796875
120, 0, 0, 1105.554443359375
121, 0, 0, 1082.558471679688
122, 0, 0, 1090.715454101562
123, 0, 0, 1082.508911132812
124, 0, 0, 1071.512817382812
125, 0, 0, 1065.1669921875
126, 0, 0, 1062.841430664062
127, 0, 0, 1047.219848632812
128, 0, 0, 1051.542724609375
129, 0, 0, 1039.778442382812
130, 0, 0, 1033.64208984375
131, 0, 0, 1033.48779296875
132, 0, 0, 1024.7626953125
133, 0, 0, 1022.888305664062
134, 0, 0, 1011.893798828125
135, 0, 0, 1000.879089355469
136, 0, 0, 999.1884155273438
137, 0, 0, 994.8532104492188
138, 0, 0, 997.804931640625
139, 0, 0, 988.9445190429688
140, 0, 0, 982.6177368164062
141, 0, 0, 979.7118530273438
142, 0, 0, 968.2196655273438
143, 0, 0, 969.1357421875
144, 0, 0, 970.3902587890625
145, 0, 0, 965.4288330078125
146, 0, 0, 957.6534423828125
147, 0, 0, 957.9033203125
148, 0, 0, 945.4384155273438
149, 0, 0, 939.9114990234375
150, 0, 0, 938.9080810546875
151, 0, 0, 936.20166015625
152, 0, 0, 929.6107788085938
153, 0, 0, 923.1258544921875
154, 0, 0, 918.8961791992188
155, 0, 0, 921.4013061523438
156, 0, 0, 919.3720092773438
157, 0, 0, 912.6940307617188
158, 0, 0, 907.5411376953125
159, 0, 0, 908.9097290039062
160, 0, 0, 903.8240966796875
161, 0, 0, 901.7749633789062
162, 0, 0, 896.1572265625
163, 0, 0, 902.737060546875
164, 0, 0, 901.7378540039062
165, 0, 0, 891.3683471679688
166, 0, 0, 888.2388916015625
167, 0, 0, 882.0464477539062
168, 0, 0, 884.5028686523438
169, 0, 0, 882.5357055664062
170, 0, 0, 880.2454833984375
171, 0, 0, 869.6921997070312
172, 0, 0, 864.4415283203125
173, 0, 0, 863.1309204101562
174, 0, 0, 864.2539672851562
175, 0, 0, 863.3352661132812
176, 0, 0, 854.9227294921875
177, 0, 0, 858.6419677734375
178, 0, 0, 850.9471435546875
179, 0, 0, 850.3128662109375
