# TOPAS Version: 3.3.p1
# Parameter File: Test.txt
# Results for scorer MLIC_Scorer
# Scored in component: MLIC
# X in 180 bins of 0.177778 cm
# Y in 1 bin  of 10 cm
# Z in 1 bin  of 10 cm
# EnergyDeposit ( MeV ) : Sum   
0, 0, 0, 0
1, 0, 0, 0
2, 0, 0, 0
3, 0, 0, 0
4, 0, 0, 0
5, 0, 0, 0
6, 0, 0, 0
7, 0, 0, 0
8, 0, 0, 0
9, 0, 0, 0
10, 0, 0, 0
11, 0, 0, 0
12, 0, 0, 0
13, 0, 0, 0
14, 0, 0, 0
15, 0, 0, 0
16, 0, 0, 0
17, 0, 0, 0
18, 0, 0, 0
19, 0, 0, 0
20, 0, 0, 0
21, 0, 0, 0
22, 0, 0, 0
23, 0, 0, 0
24, 0, 0, 0
25, 0, 0, 0
26, 0, 0, 0
27, 0, 0, 0
28, 0, 0, 0
29, 0, 0, 0
30, 0, 0, 0
31, 0, 0, 0
32, 0, 0, 0
33, 0, 0, 0
34, 0, 0, 0
35, 0, 0, 0
36, 0, 0, 0
37, 0, 0, 0
38, 0, 0, 0
39, 0, 0, 0
40, 0, 0, 0
41, 0, 0, 0
42, 0, 0, 0
43, 0, 0, 0
44, 0, 0, 0
45, 0, 0, 0
46, 0, 0, 0
47, 0, 0, 0
48, 0, 0, 0
49, 0, 0, 0
50, 0, 0, 0
51, 0, 0, 0
52, 0, 0, 0
53, 0, 0, 0
54, 0, 0, 0
55, 0, 0, 0
56, 0, 0, 0
57, 0, 0, 0
58, 0, 0, 0
59, 0, 0, 0
60, 0, 0, 0
61, 0, 0, 0
62, 0, 0, 0
63, 0, 0, 0
64, 0, 0, 0
65, 0, 0, 0
66, 0, 0, 0
67, 0, 0, 0
68, 0, 0, 0
69, 0, 0, 0
70, 0, 0, 0
71, 0, 0, 0
72, 0, 0, 41.43771743774414
73, 0, 0, 232.0839996337891
74, 0, 0, 707.97216796875
75, 0, 0, 1657.0859375
76, 0, 0, 3002.86865234375
77, 0, 0, 4331.63818359375
78, 0, 0, 4964.19677734375
79, 0, 0, 4940.8818359375
80, 0, 0, 4480.82958984375
81, 0, 0, 3933.912841796875
82, 0, 0, 3453.30615234375
83, 0, 0, 3135.481689453125
84, 0, 0, 2910.016357421875
85, 0, 0, 2717.048828125
86, 0, 0, 2574.330810546875
87, 0, 0, 2450.263671875
88, 0, 0, 2345.421875
89, 0, 0, 2254.7314453125
90, 0, 0, 2183.277587890625
91, 0, 0, 2111.776611328125
92, 0, 0, 2038.606567382812
93, 0, 0, 1985.87841796875
94, 0, 0, 1927.048950195312
95, 0, 0, 1877.4248046875
96, 0, 0, 1840.248657226562
97, 0, 0, 1799.18017578125
98, 0, 0, 1762.772827148438
99, 0, 0, 1724.0283203125
100, 0, 0, 1699.0068359375
101, 0, 0, 1662.803833007812
102, 0, 0, 1628.888427734375
103, 0, 0, 1605.338623046875
104, 0, 0, 1578.024780273438
105, 0, 0, 1553.459594726562
106, 0, 0, 1536.760375976562
107, 0, 0, 1505.806762695312
108, 0, 0, 1491.832641601562
109, 0, 0, 1463.749389648438
110, 0, 0, 1448.896362304688
111, 0, 0, 1430.097412109375
112, 0, 0, 1411.95263671875
113, 0, 0, 1393.925659179688
114, 0, 0, 1377.7421875
115, 0, 0, 1363.520874023438
116, 0, 0, 1352.1416015625
117, 0, 0, 1337.746704101562
118, 0, 0, 1319.45751953125
119, 0, 0, 1307.662231445312
120, 0, 0, 1297.437866210938
121, 0, 0, 1277.93359375
122, 0, 0, 1271.282104492188
123, 0, 0, 1260.462524414062
124, 0, 0, 1250.475463867188
125, 0, 0, 1230.672729492188
126, 0, 0, 1223.482421875
127, 0, 0, 1219.05810546875
128, 0, 0, 1206.632080078125
129, 0, 0, 1196.493041992188
130, 0, 0, 1181.59228515625
131, 0, 0, 1178.169555664062
132, 0, 0, 1169.616821289062
133, 0, 0, 1163.104125976562
134, 0, 0, 1145.038330078125
135, 0, 0, 1148.190551757812
136, 0, 0, 1135.609497070312
137, 0, 0, 1126.23046875
138, 0, 0, 1116.350830078125
139, 0, 0, 1115.22314453125
140, 0, 0, 1108.24951171875
141, 0, 0, 1102.412719726562
142, 0, 0, 1090.441528320312
143, 0, 0, 1079.930297851562
144, 0, 0, 1072.877685546875
145, 0, 0, 1066.31005859375
146, 0, 0, 1066.87646484375
147, 0, 0, 1058.945678710938
148, 0, 0, 1051.30810546875
149, 0, 0, 1045.388305664062
150, 0, 0, 1046.946899414062
151, 0, 0, 1034.707275390625
152, 0, 0, 1035.53173828125
153, 0, 0, 1027.057250976562
154, 0, 0, 1022.053527832031
155, 0, 0, 1007.982360839844
156, 0, 0, 1007.153442382812
157, 0, 0, 1002.535278320312
158, 0, 0, 999.0831909179688
159, 0, 0, 998.0020141601562
160, 0, 0, 998.5748291015625
161, 0, 0, 992.04248046875
162, 0, 0, 977.4992065429688
163, 0, 0, 979.0311279296875
164, 0, 0, 976.3829956054688
165, 0, 0, 963.405029296875
166, 0, 0, 969.1425170898438
167, 0, 0, 958.04833984375
168, 0, 0, 951.9873046875
169, 0, 0, 946.52490234375
170, 0, 0, 941.9685668945312
171, 0, 0, 942.7968139648438
172, 0, 0, 936.654296875
173, 0, 0, 932.9044799804688
174, 0, 0, 925.9384765625
175, 0, 0, 928.1450805664062
176, 0, 0, 922.9282836914062
177, 0, 0, 926.3092651367188
178, 0, 0, 918.8745727539062
179, 0, 0, 908.5925903320312
