# TOPAS Version: 3.3.p1
# Parameter File: Test.txt
# Results for scorer MLIC_Scorer
# Scored in component: MLIC
# X in 180 bins of 0.177778 cm
# Y in 1 bin  of 10 cm
# Z in 1 bin  of 10 cm
# EnergyDeposit ( MeV ) : Sum   
0, 0, 0, 0.0003138298052363098
1, 0, 0, 0
2, 0, 0, 0.02087461575865746
3, 0, 0, 0
4, 0, 0, 0
5, 0, 0, 0
6, 0, 0, 0
7, 0, 0, 0
8, 0, 0, 0.006449893116950989
9, 0, 0, 0
10, 0, 0, 0
11, 0, 0, 0
12, 0, 0, 0
13, 0, 0, 0
14, 0, 0, 0
15, 0, 0, 0
16, 0, 0, 0
17, 0, 0, 0
18, 0, 0, 24.22836875915527
19, 0, 0, 102.8226699829102
20, 0, 0, 427.8884582519531
21, 0, 0, 1354.874633789062
22, 0, 0, 2700.09423828125
23, 0, 0, 4180.09130859375
24, 0, 0, 4829.79296875
25, 0, 0, 4924.88671875
26, 0, 0, 4627.927734375
27, 0, 0, 4093.77197265625
28, 0, 0, 3592.43017578125
29, 0, 0, 3223.05908203125
30, 0, 0, 2962.880126953125
31, 0, 0, 2761.809326171875
32, 0, 0, 2608.33544921875
33, 0, 0, 2477.11572265625
34, 0, 0, 2371.05419921875
35, 0, 0, 2273.40966796875
36, 0, 0, 2191.28564453125
37, 0, 0, 2121.995361328125
38, 0, 0, 2060.435302734375
39, 0, 0, 1996.5947265625
40, 0, 0, 1943.92626953125
41, 0, 0, 1889.172119140625
42, 0, 0, 1851.883544921875
43, 0, 0, 1807.03955078125
44, 0, 0, 1768.418701171875
45, 0, 0, 1734.398803710938
46, 0, 0, 1697.45458984375
47, 0, 0, 1668.261352539062
48, 0, 0, 1642.932373046875
49, 0, 0, 1611.788452148438
50, 0, 0, 1585.3642578125
51, 0, 0, 1564.40966796875
52, 0, 0, 1531.282348632812
53, 0, 0, 1513.6552734375
54, 0, 0, 1500.090698242188
55, 0, 0, 1466.238403320312
56, 0, 0, 1453.8173828125
57, 0, 0, 1435.833984375
58, 0, 0, 1420.283447265625
59, 0, 0, 1401.961181640625
60, 0, 0, 1382.26123046875
61, 0, 0, 1371.511108398438
62, 0, 0, 1363.471435546875
63, 0, 0, 1340.576782226562
64, 0, 0, 1323.563598632812
65, 0, 0, 1313.737548828125
66, 0, 0, 1298.655639648438
67, 0, 0, 1292.348510742188
68, 0, 0, 1268.130859375
69, 0, 0, 1262.041137695312
70, 0, 0, 1248.771850585938
71, 0, 0, 1236.410766601562
72, 0, 0, 1227.873657226562
73, 0, 0, 1220.32275390625
74, 0, 0, 1212.011352539062
75, 0, 0, 1195.250244140625
76, 0, 0, 1194.053588867188
77, 0, 0, 1178.879760742188
78, 0, 0, 1162.667846679688
79, 0, 0, 1165.132080078125
80, 0, 0, 1162.353637695312
81, 0, 0, 1145.202758789062
82, 0, 0, 1135.047241210938
83, 0, 0, 1124.515258789062
84, 0, 0, 1116.340576171875
85, 0, 0, 1110.109252929688
86, 0, 0, 1113.627075195312
87, 0, 0, 1099.864868164062
88, 0, 0, 1097.713745117188
89, 0, 0, 1087.731567382812
90, 0, 0, 1080.917114257812
91, 0, 0, 1069.707641601562
92, 0, 0, 1068.889892578125
93, 0, 0, 1061.925659179688
94, 0, 0, 1056.304321289062
95, 0, 0, 1057.993286132812
96, 0, 0, 1044.737670898438
97, 0, 0, 1033.357299804688
98, 0, 0, 1032.38232421875
99, 0, 0, 1029.558837890625
100, 0, 0, 1017.943359375
101, 0, 0, 1016.62744140625
102, 0, 0, 1018.009826660156
103, 0, 0, 1004.422668457031
104, 0, 0, 999.792724609375
105, 0, 0, 994.0678100585938
106, 0, 0, 990.3794555664062
107, 0, 0, 987.7411499023438
108, 0, 0, 984.020751953125
109, 0, 0, 983.6898803710938
110, 0, 0, 970.8513793945312
111, 0, 0, 968.3612670898438
112, 0, 0, 970.648193359375
113, 0, 0, 963.2401123046875
114, 0, 0, 961.8721923828125
115, 0, 0, 955.7028198242188
116, 0, 0, 954.5521240234375
117, 0, 0, 943.8326416015625
118, 0, 0, 943.1990356445312
119, 0, 0, 940.2650756835938
120, 0, 0, 934.4179077148438
121, 0, 0, 926.8701782226562
122, 0, 0, 922.6683959960938
123, 0, 0, 919.3143920898438
124, 0, 0, 915.13818359375
125, 0, 0, 911.7737426757812
126, 0, 0, 913.9263305664062
127, 0, 0, 908.9586791992188
128, 0, 0, 900.9326171875
129, 0, 0, 906.3440551757812
130, 0, 0, 888.8997802734375
131, 0, 0, 890.4474487304688
132, 0, 0, 893.3706665039062
133, 0, 0, 887.1759033203125
134, 0, 0, 890.6392822265625
135, 0, 0, 874.320556640625
136, 0, 0, 878.3895263671875
137, 0, 0, 872.9049682617188
138, 0, 0, 873.4397583007812
139, 0, 0, 865.1048583984375
140, 0, 0, 867.5270385742188
141, 0, 0, 859.6958618164062
142, 0, 0, 862.1879272460938
143, 0, 0, 858.50341796875
144, 0, 0, 854.3636474609375
145, 0, 0, 853.8175048828125
146, 0, 0, 848.624267578125
147, 0, 0, 848.4488525390625
148, 0, 0, 841.557861328125
149, 0, 0, 841.1282348632812
150, 0, 0, 837.9168090820312
151, 0, 0, 839.4747314453125
152, 0, 0, 826.5302734375
153, 0, 0, 829.1279907226562
154, 0, 0, 825.1270141601562
155, 0, 0, 829.9337768554688
156, 0, 0, 822.8161010742188
157, 0, 0, 823.990478515625
158, 0, 0, 817.5360717773438
159, 0, 0, 817.6311645507812
160, 0, 0, 820.1992797851562
161, 0, 0, 813.5447998046875
162, 0, 0, 809.9808959960938
163, 0, 0, 807.5140991210938
164, 0, 0, 804.8978881835938
165, 0, 0, 805.3746948242188
166, 0, 0, 801.9706420898438
167, 0, 0, 799.047119140625
168, 0, 0, 800.5485229492188
169, 0, 0, 792.2517700195312
170, 0, 0, 798.8517456054688
171, 0, 0, 791.2626953125
172, 0, 0, 791.2169799804688
173, 0, 0, 786.9600830078125
174, 0, 0, 786.3900146484375
175, 0, 0, 784.6141357421875
176, 0, 0, 786.7549438476562
177, 0, 0, 780.4318237304688
178, 0, 0, 777.2385864257812
179, 0, 0, 774.5286865234375
