# TOPAS Version: 3.3.p1
# Parameter File: Test.txt
# Results for scorer MLIC_Scorer
# Scored in component: MLIC
# X in 180 bins of 0.177778 cm
# Y in 1 bin  of 10 cm
# Z in 1 bin  of 10 cm
# EnergyDeposit ( MeV ) : Sum   
0, 0, 0, 0
1, 0, 0, 0
2, 0, 0, 0
3, 0, 0, 0
4, 0, 0, 0
5, 0, 0, 0
6, 0, 0, 0
7, 0, 0, 0
8, 0, 0, 0
9, 0, 0, 0
10, 0, 0, 0
11, 0, 0, 0
12, 0, 0, 0
13, 0, 0, 0
14, 0, 0, 0
15, 0, 0, 0
16, 0, 0, 0
17, 0, 0, 0
18, 0, 0, 0
19, 0, 0, 0
20, 0, 0, 0
21, 0, 0, 0
22, 0, 0, 0
23, 0, 0, 0
24, 0, 0, 0
25, 0, 0, 0
26, 0, 0, 0
27, 0, 0, 0
28, 0, 0, 0
29, 0, 0, 0
30, 0, 0, 0
31, 0, 0, 0
32, 0, 0, 0
33, 0, 0, 0
34, 0, 0, 0
35, 0, 0, 0
36, 0, 0, 0
37, 0, 0, 0
38, 0, 0, 0
39, 0, 0, 0
40, 0, 0, 0
41, 0, 0, 0
42, 0, 0, 0
43, 0, 0, 0
44, 0, 0, 0
45, 0, 0, 0
46, 0, 0, 0
47, 0, 0, 0
48, 0, 0, 0
49, 0, 0, 0.02299422025680542
50, 0, 0, 0
51, 0, 0, 0
52, 0, 0, 0
53, 0, 0, 0
54, 0, 0, 0
55, 0, 0, 0.02691625617444515
56, 0, 0, 0
57, 0, 0, 0
58, 0, 0, 0
59, 0, 0, 8.874199867248535
60, 0, 0, 98.42359161376953
61, 0, 0, 347.8896179199219
62, 0, 0, 1049.927001953125
63, 0, 0, 2323.22607421875
64, 0, 0, 3796.440673828125
65, 0, 0, 4778.03271484375
66, 0, 0, 5029.58154296875
67, 0, 0, 4757.1279296875
68, 0, 0, 4190.85986328125
69, 0, 0, 3686.9912109375
70, 0, 0, 3288.1748046875
71, 0, 0, 3004.413330078125
72, 0, 0, 2807.58251953125
73, 0, 0, 2641.33544921875
74, 0, 0, 2512.08642578125
75, 0, 0, 2386.878173828125
76, 0, 0, 2298.9619140625
77, 0, 0, 2215.06787109375
78, 0, 0, 2144.120361328125
79, 0, 0, 2069.812255859375
80, 0, 0, 2012.085205078125
81, 0, 0, 1958.699584960938
82, 0, 0, 1905.901733398438
83, 0, 0, 1855.979736328125
84, 0, 0, 1818.201904296875
85, 0, 0, 1778.512084960938
86, 0, 0, 1730.064575195312
87, 0, 0, 1709.031982421875
88, 0, 0, 1681.449340820312
89, 0, 0, 1641.825439453125
90, 0, 0, 1623.231323242188
91, 0, 0, 1587.278442382812
92, 0, 0, 1572.91259765625
93, 0, 0, 1542.191650390625
94, 0, 0, 1522.038452148438
95, 0, 0, 1497.687377929688
96, 0, 0, 1474.869506835938
97, 0, 0, 1463.915649414062
98, 0, 0, 1439.542724609375
99, 0, 0, 1421.596435546875
100, 0, 0, 1399.443603515625
101, 0, 0, 1384.831909179688
102, 0, 0, 1370.00390625
103, 0, 0, 1356.230834960938
104, 0, 0, 1338.159912109375
105, 0, 0, 1337.906616210938
106, 0, 0, 1315.081909179688
107, 0, 0, 1298.473876953125
108, 0, 0, 1287.2626953125
109, 0, 0, 1280.068359375
110, 0, 0, 1267.89404296875
111, 0, 0, 1254.280029296875
112, 0, 0, 1235.535522460938
113, 0, 0, 1235.549194335938
114, 0, 0, 1218.964721679688
115, 0, 0, 1210.358032226562
116, 0, 0, 1196.964477539062
117, 0, 0, 1195.876953125
118, 0, 0, 1187.58544921875
119, 0, 0, 1169.730834960938
120, 0, 0, 1167.709106445312
121, 0, 0, 1155.578002929688
122, 0, 0, 1147.13134765625
123, 0, 0, 1144.953125
124, 0, 0, 1135.0390625
125, 0, 0, 1126.265258789062
126, 0, 0, 1116.154541015625
127, 0, 0, 1106.499145507812
128, 0, 0, 1100.3271484375
129, 0, 0, 1090.948608398438
130, 0, 0, 1084.175170898438
131, 0, 0, 1084.755249023438
132, 0, 0, 1077.762573242188
133, 0, 0, 1070.412963867188
134, 0, 0, 1060.39501953125
135, 0, 0, 1053.397216796875
136, 0, 0, 1047.997802734375
137, 0, 0, 1050.147094726562
138, 0, 0, 1040.668334960938
139, 0, 0, 1034.855224609375
140, 0, 0, 1024.262451171875
141, 0, 0, 1024.98046875
142, 0, 0, 1016.911437988281
143, 0, 0, 1016.690307617188
144, 0, 0, 1003.745422363281
145, 0, 0, 1010.45849609375
146, 0, 0, 990.1859741210938
147, 0, 0, 995.8897705078125
148, 0, 0, 984.7435913085938
149, 0, 0, 983.889404296875
150, 0, 0, 976.14208984375
151, 0, 0, 973.494384765625
152, 0, 0, 963.3276977539062
153, 0, 0, 966.6287841796875
154, 0, 0, 961.3112182617188
155, 0, 0, 955.7352905273438
156, 0, 0, 952.6787719726562
157, 0, 0, 952.0042724609375
158, 0, 0, 943.650634765625
159, 0, 0, 937.8178100585938
160, 0, 0, 939.9913940429688
161, 0, 0, 935.67919921875
162, 0, 0, 931.078125
163, 0, 0, 926.01513671875
164, 0, 0, 925.1481323242188
165, 0, 0, 916.0030517578125
166, 0, 0, 917.8897094726562
167, 0, 0, 896.3654174804688
168, 0, 0, 907.9500732421875
169, 0, 0, 901.6888427734375
170, 0, 0, 895.59521484375
171, 0, 0, 892.9713745117188
172, 0, 0, 894.5543823242188
173, 0, 0, 893.3877563476562
174, 0, 0, 885.737548828125
175, 0, 0, 885.6321411132812
176, 0, 0, 880.00244140625
177, 0, 0, 878.2689208984375
178, 0, 0, 868.34228515625
179, 0, 0, 874.144775390625
