# TOPAS Version: 3.3.p1
# Parameter File: Test.txt
# Results for scorer MLIC_Scorer
# Scored in component: MLIC
# X in 180 bins of 0.177778 cm
# Y in 1 bin  of 10 cm
# Z in 1 bin  of 10 cm
# EnergyDeposit ( MeV ) : Sum   
0, 0, 0, 0
1, 0, 0, 0
2, 0, 0, 0
3, 0, 0, 0
4, 0, 0, 0
5, 0, 0, 0
6, 0, 0, 0
7, 0, 0, 0
8, 0, 0, 0
9, 0, 0, 0
10, 0, 0, 6.861869335174561
11, 0, 0, 65.43722534179688
12, 0, 0, 269.6679382324219
13, 0, 0, 717.7755126953125
14, 0, 0, 1850.11865234375
15, 0, 0, 3227.053955078125
16, 0, 0, 4625.810546875
17, 0, 0, 4997.1494140625
18, 0, 0, 4929.75537109375
19, 0, 0, 4387.39453125
20, 0, 0, 3799.25927734375
21, 0, 0, 3427.115478515625
22, 0, 0, 3087.8974609375
23, 0, 0, 2867.28564453125
24, 0, 0, 2691.265380859375
25, 0, 0, 2549.280029296875
26, 0, 0, 2436.341796875
27, 0, 0, 2321.74658203125
28, 0, 0, 2246.3837890625
29, 0, 0, 2165.145751953125
30, 0, 0, 2092.540771484375
31, 0, 0, 2033.845581054688
32, 0, 0, 1968.232421875
33, 0, 0, 1925.72021484375
34, 0, 0, 1872.148803710938
35, 0, 0, 1833.324340820312
36, 0, 0, 1791.610473632812
37, 0, 0, 1747.522827148438
38, 0, 0, 1718.237426757812
39, 0, 0, 1687.308349609375
40, 0, 0, 1655.925537109375
41, 0, 0, 1628.022338867188
42, 0, 0, 1600.176635742188
43, 0, 0, 1578.097778320312
44, 0, 0, 1548.194702148438
45, 0, 0, 1528.015991210938
46, 0, 0, 1515.939575195312
47, 0, 0, 1482.335083007812
48, 0, 0, 1470.682983398438
49, 0, 0, 1450.919067382812
50, 0, 0, 1433.439086914062
51, 0, 0, 1411.322265625
52, 0, 0, 1400.457885742188
53, 0, 0, 1373.435180664062
54, 0, 0, 1366.991577148438
55, 0, 0, 1346.328857421875
56, 0, 0, 1330.440673828125
57, 0, 0, 1322.498291015625
58, 0, 0, 1308.593383789062
59, 0, 0, 1289.62939453125
60, 0, 0, 1282.309204101562
61, 0, 0, 1265.08935546875
62, 0, 0, 1264.144287109375
63, 0, 0, 1255.480102539062
64, 0, 0, 1228.476806640625
65, 0, 0, 1227.758544921875
66, 0, 0, 1206.6787109375
67, 0, 0, 1199.438110351562
68, 0, 0, 1191.891357421875
69, 0, 0, 1180.961059570312
70, 0, 0, 1180.692993164062
71, 0, 0, 1177.379760742188
72, 0, 0, 1164.699462890625
73, 0, 0, 1151.525756835938
74, 0, 0, 1140.521362304688
75, 0, 0, 1127.884521484375
76, 0, 0, 1126.164916992188
77, 0, 0, 1117.055908203125
78, 0, 0, 1114.480102539062
79, 0, 0, 1106.674926757812
80, 0, 0, 1096.5068359375
81, 0, 0, 1085.765625
82, 0, 0, 1080.66015625
83, 0, 0, 1079.615966796875
84, 0, 0, 1067.283203125
85, 0, 0, 1063.817626953125
86, 0, 0, 1057.438232421875
87, 0, 0, 1058.166015625
88, 0, 0, 1050.089111328125
89, 0, 0, 1045.217529296875
90, 0, 0, 1040.71240234375
91, 0, 0, 1020.593566894531
92, 0, 0, 1025.344970703125
93, 0, 0, 1014.466735839844
94, 0, 0, 1017.264892578125
95, 0, 0, 1006.739562988281
96, 0, 0, 997.3787841796875
97, 0, 0, 999.02197265625
98, 0, 0, 998.4473876953125
99, 0, 0, 987.74951171875
100, 0, 0, 982.15869140625
101, 0, 0, 975.09326171875
102, 0, 0, 974.65673828125
103, 0, 0, 970.7786865234375
104, 0, 0, 966.190185546875
105, 0, 0, 960.4835205078125
106, 0, 0, 966.37646484375
107, 0, 0, 947.6821899414062
108, 0, 0, 952.8209838867188
109, 0, 0, 946.7640991210938
110, 0, 0, 941.539306640625
111, 0, 0, 941.6373291015625
112, 0, 0, 931.1136474609375
113, 0, 0, 936.0642700195312
114, 0, 0, 922.17724609375
115, 0, 0, 925.0162963867188
116, 0, 0, 919.5724487304688
117, 0, 0, 917.5421142578125
118, 0, 0, 915.4853515625
119, 0, 0, 908.1307373046875
120, 0, 0, 903.7778930664062
121, 0, 0, 901.2657470703125
122, 0, 0, 898.8138427734375
123, 0, 0, 895.6477661132812
124, 0, 0, 894.8761596679688
125, 0, 0, 882.4767456054688
126, 0, 0, 882.8182373046875
127, 0, 0, 881.1995239257812
128, 0, 0, 886.3954467773438
129, 0, 0, 872.1481323242188
130, 0, 0, 869.53271484375
131, 0, 0, 874.6685791015625
132, 0, 0, 865.2293090820312
133, 0, 0, 868.1722412109375
134, 0, 0, 867.1923217773438
135, 0, 0, 856.8518676757812
136, 0, 0, 855.812255859375
137, 0, 0, 857.9606323242188
138, 0, 0, 849.5756225585938
139, 0, 0, 850.9402465820312
140, 0, 0, 842.3743286132812
141, 0, 0, 840.4512329101562
142, 0, 0, 831.6355590820312
143, 0, 0, 840.0326538085938
144, 0, 0, 834.8759155273438
145, 0, 0, 832.8811645507812
146, 0, 0, 827.0286254882812
147, 0, 0, 830.40966796875
148, 0, 0, 821.4434204101562
149, 0, 0, 825.2869262695312
150, 0, 0, 827.0115966796875
151, 0, 0, 819.890869140625
152, 0, 0, 816.33642578125
153, 0, 0, 816.187744140625
154, 0, 0, 818.3569946289062
155, 0, 0, 813.4700317382812
156, 0, 0, 808.2947998046875
157, 0, 0, 801.0474243164062
158, 0, 0, 803.8580932617188
159, 0, 0, 798.1619262695312
160, 0, 0, 803.293212890625
161, 0, 0, 801.0615234375
162, 0, 0, 794.0906372070312
163, 0, 0, 799.36181640625
164, 0, 0, 797.0904541015625
165, 0, 0, 780.2382202148438
166, 0, 0, 789.466796875
167, 0, 0, 787.0203247070312
168, 0, 0, 781.7234497070312
169, 0, 0, 784.87890625
170, 0, 0, 777.6984252929688
171, 0, 0, 774.1023559570312
172, 0, 0, 775.4974365234375
173, 0, 0, 775.3258056640625
174, 0, 0, 763.9988403320312
175, 0, 0, 770.1063232421875
176, 0, 0, 770.6270751953125
177, 0, 0, 771.0225830078125
178, 0, 0, 768.947509765625
179, 0, 0, 763.7529296875
