# TOPAS Version: 3.3.p1
# Parameter File: Test.txt
# Results for scorer MLIC_Scorer
# Scored in component: MLIC
# X in 180 bins of 0.183333 cm
# Y in 1 bin  of 10 cm
# Z in 1 bin  of 10 cm
# EnergyDeposit ( MeV ) : Sum   
0, 0, 0, 0
1, 0, 0, 0
2, 0, 0, 0
3, 0, 0, 0
4, 0, 0, 0
5, 0, 0, 0
6, 0, 0, 0
7, 0, 0, 0
8, 0, 0, 0
9, 0, 0, 0
10, 0, 0, 0.04056459292769432
11, 0, 0, 0
12, 0, 0, 0
13, 0, 0, 0
14, 0, 0, 0
15, 0, 0, 0
16, 0, 0, 0
17, 0, 0, 0
18, 0, 0, 0
19, 0, 0, 33.64875411987305
20, 0, 0, 131.4161834716797
21, 0, 0, 483.7686462402344
22, 0, 0, 1241.235107421875
23, 0, 0, 2674.808837890625
24, 0, 0, 3989.126708984375
25, 0, 0, 4831.29541015625
26, 0, 0, 5058.8515625
27, 0, 0, 4753.7900390625
28, 0, 0, 4177.201171875
29, 0, 0, 3687.25732421875
30, 0, 0, 3298.019775390625
31, 0, 0, 3027.310546875
32, 0, 0, 2828.023681640625
33, 0, 0, 2666.77197265625
34, 0, 0, 2533.10791015625
35, 0, 0, 2418.757080078125
36, 0, 0, 2329.758056640625
37, 0, 0, 2237.654052734375
38, 0, 0, 2163.223388671875
39, 0, 0, 2092.94091796875
40, 0, 0, 2041.83056640625
41, 0, 0, 1975.444213867188
42, 0, 0, 1939.876708984375
43, 0, 0, 1879.848266601562
44, 0, 0, 1838.855224609375
45, 0, 0, 1804.170776367188
46, 0, 0, 1762.627685546875
47, 0, 0, 1735.84423828125
48, 0, 0, 1704.958740234375
49, 0, 0, 1673.611450195312
50, 0, 0, 1642.810668945312
51, 0, 0, 1613.927490234375
52, 0, 0, 1589.668823242188
53, 0, 0, 1564.291137695312
54, 0, 0, 1546.379638671875
55, 0, 0, 1524.148071289062
56, 0, 0, 1499.0400390625
57, 0, 0, 1485.1123046875
58, 0, 0, 1468.423095703125
59, 0, 0, 1440.585571289062
60, 0, 0, 1430.36181640625
61, 0, 0, 1410.892944335938
62, 0, 0, 1393.74951171875
63, 0, 0, 1381.809448242188
64, 0, 0, 1360.027587890625
65, 0, 0, 1355.545654296875
66, 0, 0, 1334.784545898438
67, 0, 0, 1321.088989257812
68, 0, 0, 1313.874389648438
69, 0, 0, 1306.013671875
70, 0, 0, 1285.588256835938
71, 0, 0, 1276.821166992188
72, 0, 0, 1261.410400390625
73, 0, 0, 1254.280029296875
74, 0, 0, 1251.7041015625
75, 0, 0, 1225.435180664062
76, 0, 0, 1215.406494140625
77, 0, 0, 1212.7001953125
78, 0, 0, 1198.437377929688
79, 0, 0, 1190.0322265625
80, 0, 0, 1186.474853515625
81, 0, 0, 1178.025390625
82, 0, 0, 1162.953857421875
83, 0, 0, 1164.957397460938
84, 0, 0, 1152.17529296875
85, 0, 0, 1140.248779296875
86, 0, 0, 1132.468139648438
87, 0, 0, 1131.152099609375
88, 0, 0, 1124.50830078125
89, 0, 0, 1118.307495117188
90, 0, 0, 1103.618530273438
91, 0, 0, 1102.423217773438
92, 0, 0, 1095.701049804688
93, 0, 0, 1097.46240234375
94, 0, 0, 1089.797973632812
95, 0, 0, 1076.626831054688
96, 0, 0, 1072.7080078125
97, 0, 0, 1069.7275390625
98, 0, 0, 1052.8232421875
99, 0, 0, 1054.372436523438
100, 0, 0, 1048.821166992188
101, 0, 0, 1036.88232421875
102, 0, 0, 1029.374267578125
103, 0, 0, 1030.698364257812
104, 0, 0, 1023.904113769531
105, 0, 0, 1017.871704101562
106, 0, 0, 1014.356384277344
107, 0, 0, 1008.724487304688
108, 0, 0, 995.4324951171875
109, 0, 0, 1001.977722167969
110, 0, 0, 1002.943969726562
111, 0, 0, 987.5204467773438
112, 0, 0, 985.710205078125
113, 0, 0, 990.4712524414062
114, 0, 0, 975.7342529296875
115, 0, 0, 981.2775268554688
116, 0, 0, 973.423095703125
117, 0, 0, 958.4786376953125
118, 0, 0, 962.0746459960938
119, 0, 0, 957.1414794921875
120, 0, 0, 957.3336181640625
121, 0, 0, 945.8114624023438
122, 0, 0, 947.8653564453125
123, 0, 0, 944.5986938476562
124, 0, 0, 938.9412841796875
125, 0, 0, 934.7763061523438
126, 0, 0, 940.3228759765625
127, 0, 0, 930.25146484375
128, 0, 0, 923.9019775390625
129, 0, 0, 923.9515380859375
130, 0, 0, 910.1083984375
131, 0, 0, 917.373046875
132, 0, 0, 906.1203002929688
133, 0, 0, 905.6123046875
134, 0, 0, 905.724365234375
135, 0, 0, 896.779296875
136, 0, 0, 892.8533935546875
137, 0, 0, 896.22509765625
138, 0, 0, 889.4995727539062
139, 0, 0, 887.85986328125
140, 0, 0, 882.1387329101562
141, 0, 0, 888.5996704101562
142, 0, 0, 878.320556640625
143, 0, 0, 881.363525390625
144, 0, 0, 868.9880981445312
145, 0, 0, 870.7459106445312
146, 0, 0, 874.7191772460938
147, 0, 0, 865.3793334960938
148, 0, 0, 867.791015625
149, 0, 0, 857.6773681640625
150, 0, 0, 868.4097900390625
151, 0, 0, 854.935302734375
152, 0, 0, 852.962890625
153, 0, 0, 852.2951049804688
154, 0, 0, 859.1795654296875
155, 0, 0, 849.5894775390625
156, 0, 0, 843.007568359375
157, 0, 0, 842.5642700195312
158, 0, 0, 840.7373657226562
159, 0, 0, 834.9313354492188
160, 0, 0, 833.4474487304688
161, 0, 0, 828.5349731445312
162, 0, 0, 832.4452514648438
163, 0, 0, 833.5222778320312
164, 0, 0, 823.1262817382812
165, 0, 0, 829.0687255859375
166, 0, 0, 823.3478393554688
167, 0, 0, 820.5861206054688
168, 0, 0, 814.7762451171875
169, 0, 0, 813.61865234375
170, 0, 0, 808.9761962890625
171, 0, 0, 806.2721557617188
172, 0, 0, 809.234619140625
173, 0, 0, 799.3970947265625
174, 0, 0, 799.3861694335938
175, 0, 0, 812.215087890625
176, 0, 0, 802.4774169921875
177, 0, 0, 802.6454467773438
178, 0, 0, 796.131591796875
179, 0, 0, 788.0208740234375
