# TOPAS Version: 3.3.p1
# Parameter File: Test.txt
# Results for scorer MLIC_Scorer
# Scored in component: MLIC
# X in 165 bins of 0.2 cm
# Y in 1 bin  of 10 cm
# Z in 1 bin  of 10 cm
# EnergyDeposit ( MeV ) : Sum   
0, 0, 0, 0
1, 0, 0, 0
2, 0, 0, 0
3, 0, 0, 0
4, 0, 0, 0
5, 0, 0, 0
6, 0, 0, 0
7, 0, 0, 0
8, 0, 0, 0
9, 0, 0, 0
10, 0, 0, 0
11, 0, 0, 0
12, 0, 0, 0
13, 0, 0, 0
14, 0, 0, 0
15, 0, 0, 0
16, 0, 0, 0.001549563719891012
17, 0, 0, 0
18, 0, 0, 0
19, 0, 0, 0
20, 0, 0, 0
21, 0, 0, 0
22, 0, 0, 0
23, 0, 0, 0
24, 0, 0, 0
25, 0, 0, 9.31580924987793
26, 0, 0, 112.9396057128906
27, 0, 0, 534.201904296875
28, 0, 0, 1596.341186523438
29, 0, 0, 2992.282470703125
30, 0, 0, 4239.61376953125
31, 0, 0, 5413.95947265625
32, 0, 0, 5524.7958984375
33, 0, 0, 4959.0224609375
34, 0, 0, 4232.53125
35, 0, 0, 3732.035400390625
36, 0, 0, 3376.203125
37, 0, 0, 3118.360107421875
38, 0, 0, 2921.00048828125
39, 0, 0, 2759.861328125
40, 0, 0, 2629.78271484375
41, 0, 0, 2511.74853515625
42, 0, 0, 2422.206787109375
43, 0, 0, 2340.20947265625
44, 0, 0, 2255.461669921875
45, 0, 0, 2188.57470703125
46, 0, 0, 2128.036376953125
47, 0, 0, 2075.835205078125
48, 0, 0, 2008.372924804688
49, 0, 0, 1974.88037109375
50, 0, 0, 1927.477783203125
51, 0, 0, 1885.120849609375
52, 0, 0, 1848.02197265625
53, 0, 0, 1813.448364257812
54, 0, 0, 1779.019409179688
55, 0, 0, 1753.29736328125
56, 0, 0, 1722.520874023438
57, 0, 0, 1685.754516601562
58, 0, 0, 1662.96923828125
59, 0, 0, 1635.160400390625
60, 0, 0, 1618.716918945312
61, 0, 0, 1596.132568359375
62, 0, 0, 1568.528686523438
63, 0, 0, 1556.353149414062
64, 0, 0, 1527.699951171875
65, 0, 0, 1506.818603515625
66, 0, 0, 1494.067749023438
67, 0, 0, 1484.304443359375
68, 0, 0, 1469.347290039062
69, 0, 0, 1448.050903320312
70, 0, 0, 1423.220581054688
71, 0, 0, 1404.667114257812
72, 0, 0, 1393.752319335938
73, 0, 0, 1395.473022460938
74, 0, 0, 1375.938842773438
75, 0, 0, 1367.648803710938
76, 0, 0, 1349.839111328125
77, 0, 0, 1338.061157226562
78, 0, 0, 1329.27197265625
79, 0, 0, 1321.430541992188
80, 0, 0, 1302.235229492188
81, 0, 0, 1294.337036132812
82, 0, 0, 1284.157836914062
83, 0, 0, 1276.724731445312
84, 0, 0, 1259.792724609375
85, 0, 0, 1247.762084960938
86, 0, 0, 1245.720336914062
87, 0, 0, 1239.896728515625
88, 0, 0, 1217.945678710938
89, 0, 0, 1217.39306640625
90, 0, 0, 1197.288208007812
91, 0, 0, 1202.168212890625
92, 0, 0, 1199.229125976562
93, 0, 0, 1191.29052734375
94, 0, 0, 1176.595458984375
95, 0, 0, 1163.235473632812
96, 0, 0, 1163.926635742188
97, 0, 0, 1159.140380859375
98, 0, 0, 1147.979614257812
99, 0, 0, 1142.886596679688
100, 0, 0, 1126.267333984375
101, 0, 0, 1135.763061523438
102, 0, 0, 1130.582763671875
103, 0, 0, 1118.539306640625
104, 0, 0, 1109.434936523438
105, 0, 0, 1108.37451171875
106, 0, 0, 1105.657592773438
107, 0, 0, 1106.674560546875
108, 0, 0, 1090.694580078125
109, 0, 0, 1085.587890625
110, 0, 0, 1086.039428710938
111, 0, 0, 1071.395629882812
112, 0, 0, 1069.44677734375
113, 0, 0, 1062.103515625
114, 0, 0, 1057.740234375
115, 0, 0, 1062.463256835938
116, 0, 0, 1046.610107421875
117, 0, 0, 1041.235107421875
118, 0, 0, 1040.766967773438
119, 0, 0, 1033.4794921875
120, 0, 0, 1027.7119140625
121, 0, 0, 1018.928894042969
122, 0, 0, 1031.83984375
123, 0, 0, 1019.448486328125
124, 0, 0, 1013.5673828125
125, 0, 0, 1005.11279296875
126, 0, 0, 1023.080383300781
127, 0, 0, 998.69873046875
128, 0, 0, 991.1678466796875
129, 0, 0, 996.7719116210938
130, 0, 0, 990.9993286132812
131, 0, 0, 986.9144287109375
132, 0, 0, 982.8173828125
133, 0, 0, 979.4379272460938
134, 0, 0, 975.0961303710938
135, 0, 0, 973.87255859375
136, 0, 0, 967.639404296875
137, 0, 0, 962.8787231445312
138, 0, 0, 963.6266479492188
139, 0, 0, 954.8474731445312
140, 0, 0, 953.713134765625
141, 0, 0, 946.9608154296875
142, 0, 0, 942.775390625
143, 0, 0, 944.7249145507812
144, 0, 0, 940.2176513671875
145, 0, 0, 937.6458740234375
146, 0, 0, 936.2531127929688
147, 0, 0, 936.4055786132812
148, 0, 0, 919.8670654296875
149, 0, 0, 932.4280395507812
150, 0, 0, 914.206298828125
151, 0, 0, 916.803955078125
152, 0, 0, 920.8377075195312
153, 0, 0, 906.131591796875
154, 0, 0, 913.36962890625
155, 0, 0, 905.037841796875
156, 0, 0, 909.2626342773438
157, 0, 0, 901.7676391601562
158, 0, 0, 901.6956787109375
159, 0, 0, 897.73486328125
160, 0, 0, 885.4798583984375
161, 0, 0, 888.6607666015625
162, 0, 0, 884.8673706054688
163, 0, 0, 893.1705322265625
164, 0, 0, 883.6726684570312
