# TOPAS Version: 3.3.p1
# Parameter File: Test.txt
# Results for scorer MLIC_Scorer
# Scored in component: MLIC
# X in 165 bins of 0.2 cm
# Y in 1 bin  of 10 cm
# Z in 1 bin  of 10 cm
# EnergyDeposit ( MeV ) : Sum   
0, 0, 0, 0
1, 0, 0, 0
2, 0, 0, 0
3, 0, 0, 0
4, 0, 0, 0
5, 0, 0, 0
6, 0, 0, 0
7, 0, 0, 0
8, 0, 0, 0
9, 0, 0, 0
10, 0, 0, 0
11, 0, 0, 0
12, 0, 0, 0
13, 0, 0, 0
14, 0, 0, 0
15, 0, 0, 0
16, 0, 0, 0
17, 0, 0, 0
18, 0, 0, 0
19, 0, 0, 0
20, 0, 0, 0
21, 0, 0, 0
22, 0, 0, 0
23, 0, 0, 0
24, 0, 0, 0
25, 0, 0, 0
26, 0, 0, 0
27, 0, 0, 0
28, 0, 0, 0
29, 0, 0, 0
30, 0, 0, 0
31, 0, 0, 0
32, 0, 0, 0
33, 0, 0, 0
34, 0, 0, 0
35, 0, 0, 0
36, 0, 0, 0
37, 0, 0, 0
38, 0, 0, 0
39, 0, 0, 0
40, 0, 0, 0
41, 0, 0, 0
42, 0, 0, 0
43, 0, 0, 0
44, 0, 0, 0
45, 0, 0, 0
46, 0, 0, 0
47, 0, 0, 0
48, 0, 0, 0
49, 0, 0, 0
50, 0, 0, 0
51, 0, 0, 0
52, 0, 0, 0
53, 0, 0, 0
54, 0, 0, 0
55, 0, 0, 0
56, 0, 0, 0
57, 0, 0, 0
58, 0, 0, 0
59, 0, 0, 0
60, 0, 0, 0
61, 0, 0, 0
62, 0, 0, 0
63, 0, 0, 0
64, 0, 0, 0
65, 0, 0, 0
66, 0, 0, 0
67, 0, 0, 0
68, 0, 0, 0
69, 0, 0, 0
70, 0, 0, 0
71, 0, 0, 0
72, 0, 0, 0
73, 0, 0, 0
74, 0, 0, 0
75, 0, 0, 0
76, 0, 0, 0
77, 0, 0, 0
78, 0, 0, 0
79, 0, 0, 0
80, 0, 0, 0.006221722345799208
81, 0, 0, 0
82, 0, 0, 0
83, 0, 0, 0
84, 0, 0, 0
85, 0, 0, 0
86, 0, 0, 0.005963729694485664
87, 0, 0, 0
88, 0, 0, 0.003051757579669356
89, 0, 0, 0
90, 0, 0, 0.008779551833868027
91, 0, 0, 0
92, 0, 0, 0
93, 0, 0, 0
94, 0, 0, 0
95, 0, 0, 0
96, 0, 0, 0
97, 0, 0, 0
98, 0, 0, 0
99, 0, 0, 0
100, 0, 0, 0
101, 0, 0, 0
102, 0, 0, 0
103, 0, 0, 0.02232259511947632
104, 0, 0, 0
105, 0, 0, 0
106, 0, 0, 0
107, 0, 0, 0.000427216844400391
108, 0, 0, 0
109, 0, 0, 0
110, 0, 0, 0
111, 0, 0, 0
112, 0, 0, 1.32200288772583
113, 0, 0, 30.8951358795166
114, 0, 0, 151.3323516845703
115, 0, 0, 457.4991149902344
116, 0, 0, 1500.9755859375
117, 0, 0, 2958.230712890625
118, 0, 0, 4434.02197265625
119, 0, 0, 5222.638671875
120, 0, 0, 5461.71533203125
121, 0, 0, 4863.0009765625
122, 0, 0, 4300.74853515625
123, 0, 0, 3784.78759765625
124, 0, 0, 3403.539306640625
125, 0, 0, 3129.47314453125
126, 0, 0, 2927.795166015625
127, 0, 0, 2771.725341796875
128, 0, 0, 2630.235107421875
129, 0, 0, 2528.19091796875
130, 0, 0, 2426.31103515625
131, 0, 0, 2336.0703125
132, 0, 0, 2265.051513671875
133, 0, 0, 2191.074951171875
134, 0, 0, 2123.96435546875
135, 0, 0, 2077.27001953125
136, 0, 0, 2021.578125
137, 0, 0, 1968.210693359375
138, 0, 0, 1925.784545898438
139, 0, 0, 1889.637939453125
140, 0, 0, 1852.818603515625
141, 0, 0, 1811.405151367188
142, 0, 0, 1781.363647460938
143, 0, 0, 1756.65087890625
144, 0, 0, 1720.407470703125
145, 0, 0, 1695.944213867188
146, 0, 0, 1669.973388671875
147, 0, 0, 1638.762451171875
148, 0, 0, 1625.767700195312
149, 0, 0, 1595.664672851562
150, 0, 0, 1571.044067382812
151, 0, 0, 1555.27392578125
152, 0, 0, 1533.30615234375
153, 0, 0, 1521.081298828125
154, 0, 0, 1498.563720703125
155, 0, 0, 1478.574951171875
156, 0, 0, 1470.5244140625
157, 0, 0, 1442.018432617188
158, 0, 0, 1425.983764648438
159, 0, 0, 1413.321655273438
160, 0, 0, 1402.608154296875
161, 0, 0, 1385.482788085938
162, 0, 0, 1374.099365234375
163, 0, 0, 1360.232299804688
164, 0, 0, 1347.788818359375
