# TOPAS Version: 3.3.p1
# Parameter File: Test.txt
# Results for scorer MLIC_Scorer
# Scored in component: MLIC
# X in 180 bins of 0.183333 cm
# Y in 1 bin  of 10 cm
# Z in 1 bin  of 10 cm
# EnergyDeposit ( MeV ) : Sum   
0, 0, 0, 0
1, 0, 0, 0
2, 0, 0, 0
3, 0, 0, 0
4, 0, 0, 0
5, 0, 0, 0
6, 0, 0, 0
7, 0, 0, 0
8, 0, 0, 0
9, 0, 0, 17.9283275604248
10, 0, 0, 73.33330535888672
11, 0, 0, 367.0635375976562
12, 0, 0, 1227.466552734375
13, 0, 0, 2315.579833984375
14, 0, 0, 3782.070556640625
15, 0, 0, 4929.32861328125
16, 0, 0, 5165.25830078125
17, 0, 0, 4701.7041015625
18, 0, 0, 4251.10107421875
19, 0, 0, 3732.730224609375
20, 0, 0, 3361.585693359375
21, 0, 0, 3077.353515625
22, 0, 0, 2854.609619140625
23, 0, 0, 2689.513671875
24, 0, 0, 2549.9189453125
25, 0, 0, 2438.99462890625
26, 0, 0, 2338.245849609375
27, 0, 0, 2252.21826171875
28, 0, 0, 2176.198974609375
29, 0, 0, 2108.20458984375
30, 0, 0, 2043.051147460938
31, 0, 0, 1991.775634765625
32, 0, 0, 1938.910766601562
33, 0, 0, 1889.894653320312
34, 0, 0, 1855.510864257812
35, 0, 0, 1807.669189453125
36, 0, 0, 1771.68408203125
37, 0, 0, 1737.131103515625
38, 0, 0, 1704.3984375
39, 0, 0, 1671.15625
40, 0, 0, 1645.727783203125
41, 0, 0, 1618.173217773438
42, 0, 0, 1593.945678710938
43, 0, 0, 1568.016235351562
44, 0, 0, 1546.31787109375
45, 0, 0, 1531.357299804688
46, 0, 0, 1510.197143554688
47, 0, 0, 1485.003173828125
48, 0, 0, 1462.856079101562
49, 0, 0, 1445.641235351562
50, 0, 0, 1433.507568359375
51, 0, 0, 1418.350463867188
52, 0, 0, 1408.433715820312
53, 0, 0, 1385.09228515625
54, 0, 0, 1367.733032226562
55, 0, 0, 1352.567993164062
56, 0, 0, 1342.454345703125
57, 0, 0, 1323.9873046875
58, 0, 0, 1311.327026367188
59, 0, 0, 1295.165161132812
60, 0, 0, 1295.460815429688
61, 0, 0, 1274.176513671875
62, 0, 0, 1264.4931640625
63, 0, 0, 1254.728759765625
64, 0, 0, 1231.736206054688
65, 0, 0, 1236.7734375
66, 0, 0, 1225.3076171875
67, 0, 0, 1206.34228515625
68, 0, 0, 1191.772094726562
69, 0, 0, 1198.879638671875
70, 0, 0, 1194.5556640625
71, 0, 0, 1179.494384765625
72, 0, 0, 1171.959716796875
73, 0, 0, 1154.491088867188
74, 0, 0, 1156.596435546875
75, 0, 0, 1148.861938476562
76, 0, 0, 1143.600830078125
77, 0, 0, 1127.269897460938
78, 0, 0, 1124.312255859375
79, 0, 0, 1123.10888671875
80, 0, 0, 1104.419677734375
81, 0, 0, 1101.400512695312
82, 0, 0, 1091.426513671875
83, 0, 0, 1091.427001953125
84, 0, 0, 1086.253051757812
85, 0, 0, 1078.739013671875
86, 0, 0, 1067.507568359375
87, 0, 0, 1063.5673828125
88, 0, 0, 1054.612548828125
89, 0, 0, 1048.551513671875
90, 0, 0, 1048.826416015625
91, 0, 0, 1043.94873046875
92, 0, 0, 1041.500854492188
93, 0, 0, 1028.71142578125
94, 0, 0, 1023.984680175781
95, 0, 0, 1021.293823242188
96, 0, 0, 1016.572692871094
97, 0, 0, 1003.324829101562
98, 0, 0, 1013.220642089844
99, 0, 0, 1003.181701660156
100, 0, 0, 1000.202819824219
101, 0, 0, 996.9514770507812
102, 0, 0, 986.3522338867188
103, 0, 0, 978.1660766601562
104, 0, 0, 977.2883911132812
105, 0, 0, 972.7731323242188
106, 0, 0, 966.8001098632812
107, 0, 0, 967.0575561523438
108, 0, 0, 959.3809814453125
109, 0, 0, 962.7601318359375
110, 0, 0, 952.8824462890625
111, 0, 0, 951.24560546875
112, 0, 0, 950.8041381835938
113, 0, 0, 947.4305419921875
114, 0, 0, 941.6407470703125
115, 0, 0, 937.7536010742188
116, 0, 0, 930.4274291992188
117, 0, 0, 928.5867309570312
118, 0, 0, 920.4083251953125
119, 0, 0, 930.2554931640625
120, 0, 0, 909.3848876953125
121, 0, 0, 916.65576171875
122, 0, 0, 914.00341796875
123, 0, 0, 903.4232788085938
124, 0, 0, 914.4478149414062
125, 0, 0, 898.7991333007812
126, 0, 0, 896.5330810546875
127, 0, 0, 890.0667114257812
128, 0, 0, 892.1671752929688
129, 0, 0, 893.672607421875
130, 0, 0, 887.4849243164062
131, 0, 0, 885.4014892578125
132, 0, 0, 879.0199584960938
133, 0, 0, 882.5725708007812
134, 0, 0, 874.2597045898438
135, 0, 0, 872.5775756835938
136, 0, 0, 869.8160400390625
137, 0, 0, 864.7826538085938
138, 0, 0, 863.2529907226562
139, 0, 0, 862.3107299804688
140, 0, 0, 861.0573120117188
141, 0, 0, 858.6038818359375
142, 0, 0, 856.9147338867188
143, 0, 0, 844.500732421875
144, 0, 0, 846.5779418945312
145, 0, 0, 845.8812255859375
146, 0, 0, 841.1680908203125
147, 0, 0, 839.735595703125
148, 0, 0, 845.9456787109375
149, 0, 0, 835.1114501953125
150, 0, 0, 830.7679443359375
151, 0, 0, 836.1436157226562
152, 0, 0, 827.743408203125
153, 0, 0, 828.7615356445312
154, 0, 0, 827.7424926757812
155, 0, 0, 825.1967163085938
156, 0, 0, 822.7216186523438
157, 0, 0, 816.7669677734375
158, 0, 0, 819.95654296875
159, 0, 0, 820.3865966796875
160, 0, 0, 808.3847045898438
161, 0, 0, 807.2828979492188
162, 0, 0, 814.3853759765625
163, 0, 0, 803.813232421875
164, 0, 0, 802.683349609375
165, 0, 0, 794.141845703125
166, 0, 0, 802.9310302734375
167, 0, 0, 792.8827514648438
168, 0, 0, 793.53466796875
169, 0, 0, 790.8902587890625
170, 0, 0, 788.6854858398438
171, 0, 0, 798.2327270507812
172, 0, 0, 796.7902221679688
173, 0, 0, 786.212890625
174, 0, 0, 785.17919921875
175, 0, 0, 772.9163818359375
176, 0, 0, 778.0653076171875
177, 0, 0, 775.0067749023438
178, 0, 0, 778.087890625
179, 0, 0, 774.9554443359375
