# TOPAS Version: 3.3.p1
# Parameter File: Test.txt
# Results for scorer MLIC_Scorer
# Scored in component: MLIC
# X in 180 bins of 0.177778 cm
# Y in 1 bin  of 10 cm
# Z in 1 bin  of 10 cm
# EnergyDeposit ( MeV ) : Sum   
0, 0, 0, 0
1, 0, 0, 0
2, 0, 0, 0
3, 0, 0, 0
4, 0, 0, 0
5, 0, 0, 0
6, 0, 0, 0
7, 0, 0, 0
8, 0, 0, 0
9, 0, 0, 0
10, 0, 0, 0
11, 0, 0, 0
12, 0, 0, 0
13, 0, 0, 0
14, 0, 0, 0
15, 0, 0, 0
16, 0, 0, 0
17, 0, 0, 0
18, 0, 0, 0
19, 0, 0, 0
20, 0, 0, 0
21, 0, 0, 0
22, 0, 0, 0
23, 0, 0, 0.04954956099390984
24, 0, 0, 0
25, 0, 0, 0
26, 0, 0, 0
27, 0, 0, 0
28, 0, 0, 0
29, 0, 0, 0.000250388344284147
30, 0, 0, 0
31, 0, 0, 0
32, 0, 0, 0
33, 0, 0, 0
34, 0, 0, 0
35, 0, 0, 0
36, 0, 0, 0
37, 0, 0, 0
38, 0, 0, 0
39, 0, 0, 0
40, 0, 0, 0
41, 0, 0, 0
42, 0, 0, 0
43, 0, 0, 0
44, 0, 0, 0
45, 0, 0, 0.002938159042969346
46, 0, 0, 0
47, 0, 0, 0
48, 0, 0, 0.04700683429837227
49, 0, 0, 0
50, 0, 0, 0.0001576905633555725
51, 0, 0, 0
52, 0, 0, 0
53, 0, 0, 0.00339073222130537
54, 0, 0, 0
55, 0, 0, 0
56, 0, 0, 0
57, 0, 0, 0
58, 0, 0, 0.0005802921950817108
59, 0, 0, 0
60, 0, 0, 0
61, 0, 0, 0
62, 0, 0, 0
63, 0, 0, 0
64, 0, 0, 8.432826042175293
65, 0, 0, 118.2997207641602
66, 0, 0, 429.4329833984375
67, 0, 0, 1067.467041015625
68, 0, 0, 2307.775146484375
69, 0, 0, 3694.8486328125
70, 0, 0, 4600.24072265625
71, 0, 0, 4894.1025390625
72, 0, 0, 4695.109375
73, 0, 0, 4292.16796875
74, 0, 0, 3711.845703125
75, 0, 0, 3339.638916015625
76, 0, 0, 3032.197998046875
77, 0, 0, 2820.6669921875
78, 0, 0, 2653.40966796875
79, 0, 0, 2523.9287109375
80, 0, 0, 2399.260986328125
81, 0, 0, 2303.400634765625
82, 0, 0, 2210.52294921875
83, 0, 0, 2143.565185546875
84, 0, 0, 2074.6630859375
85, 0, 0, 2022.924194335938
86, 0, 0, 1958.900024414062
87, 0, 0, 1914.700561523438
88, 0, 0, 1854.28662109375
89, 0, 0, 1819.242797851562
90, 0, 0, 1784.523803710938
91, 0, 0, 1744.339965820312
92, 0, 0, 1710.466430664062
93, 0, 0, 1676.066040039062
94, 0, 0, 1643.337036132812
95, 0, 0, 1622.14453125
96, 0, 0, 1594.961547851562
97, 0, 0, 1578.2392578125
98, 0, 0, 1549.287231445312
99, 0, 0, 1528.1689453125
100, 0, 0, 1497.888427734375
101, 0, 0, 1483.878295898438
102, 0, 0, 1457.552001953125
103, 0, 0, 1443.446533203125
104, 0, 0, 1420.171875
105, 0, 0, 1407.3671875
106, 0, 0, 1387.70458984375
107, 0, 0, 1371.510620117188
108, 0, 0, 1353.63525390625
109, 0, 0, 1344.505981445312
110, 0, 0, 1332.231689453125
111, 0, 0, 1312.683227539062
112, 0, 0, 1299.62255859375
113, 0, 0, 1294.847778320312
114, 0, 0, 1275.41015625
115, 0, 0, 1273.89453125
116, 0, 0, 1255.118774414062
117, 0, 0, 1245.005004882812
118, 0, 0, 1227.826416015625
119, 0, 0, 1225.026489257812
120, 0, 0, 1211.571899414062
121, 0, 0, 1193.298950195312
122, 0, 0, 1186.608764648438
123, 0, 0, 1182.602783203125
124, 0, 0, 1180.127197265625
125, 0, 0, 1167.619384765625
126, 0, 0, 1150.040649414062
127, 0, 0, 1145.182983398438
128, 0, 0, 1141.974365234375
129, 0, 0, 1135.45947265625
130, 0, 0, 1121.968872070312
131, 0, 0, 1115.38037109375
132, 0, 0, 1108.554931640625
133, 0, 0, 1101.658447265625
134, 0, 0, 1098.14892578125
135, 0, 0, 1087.90771484375
136, 0, 0, 1076.406005859375
137, 0, 0, 1082.797607421875
138, 0, 0, 1064.557250976562
139, 0, 0, 1063.710571289062
140, 0, 0, 1055.54345703125
141, 0, 0, 1047.272827148438
142, 0, 0, 1038.302490234375
143, 0, 0, 1038.38134765625
144, 0, 0, 1033.43505859375
145, 0, 0, 1022.329223632812
146, 0, 0, 1026.31787109375
147, 0, 0, 1012.867797851562
148, 0, 0, 1008.333923339844
149, 0, 0, 1008.775939941406
150, 0, 0, 1004.052307128906
151, 0, 0, 999.6636352539062
152, 0, 0, 989.6586303710938
153, 0, 0, 985.24755859375
154, 0, 0, 980.6185913085938
155, 0, 0, 973.646484375
156, 0, 0, 973.80078125
157, 0, 0, 968.6213989257812
158, 0, 0, 967.7343139648438
159, 0, 0, 962.8297119140625
160, 0, 0, 957.8206176757812
161, 0, 0, 940.7081909179688
162, 0, 0, 953.8125610351562
163, 0, 0, 950.2857055664062
164, 0, 0, 935.6297607421875
165, 0, 0, 947.4386596679688
166, 0, 0, 934.5538330078125
167, 0, 0, 932.4686889648438
168, 0, 0, 931.0919189453125
169, 0, 0, 922.65234375
170, 0, 0, 922.0119018554688
171, 0, 0, 916.6928100585938
172, 0, 0, 914.4398193359375
173, 0, 0, 916.258544921875
174, 0, 0, 907.0569458007812
175, 0, 0, 909.0618896484375
176, 0, 0, 900.221435546875
177, 0, 0, 897.526611328125
178, 0, 0, 895.212646484375
179, 0, 0, 885.94775390625
