# TOPAS Version: 3.3.p1
# Parameter File: Test.txt
# Results for scorer MLIC_Scorer
# Scored in component: MLIC
# X in 180 bins of 0.177778 cm
# Y in 1 bin  of 10 cm
# Z in 1 bin  of 10 cm
# EnergyDeposit ( MeV ) : Sum   
0, 0, 0, 0
1, 0, 0, 0
2, 0, 0, 0
3, 0, 0, 0
4, 0, 0, 0
5, 0, 0, 0
6, 0, 0, 0
7, 0, 0, 0
8, 0, 0, 0
9, 0, 0, 0
10, 0, 0, 0
11, 0, 0, 0
12, 0, 0, 0
13, 0, 0, 0
14, 0, 0, 0
15, 0, 0, 0
16, 0, 0, 0
17, 0, 0, 0
18, 0, 0, 0
19, 0, 0, 0
20, 0, 0, 0
21, 0, 0, 0
22, 0, 0, 0
23, 0, 0, 0
24, 0, 0, 0
25, 0, 0, 0
26, 0, 0, 0
27, 0, 0, 0
28, 0, 0, 0
29, 0, 0, 0
30, 0, 0, 0
31, 0, 0, 0
32, 0, 0, 0.00268968939781189
33, 0, 0, 0
34, 0, 0, 0
35, 0, 0, 0
36, 0, 0, 0
37, 0, 0, 0
38, 0, 0, 0
39, 0, 0, 0
40, 0, 0, 0
41, 0, 0, 0
42, 0, 0, 0
43, 0, 0, 0
44, 0, 0, 0
45, 0, 0, 0
46, 0, 0, 0
47, 0, 0, 0
48, 0, 0, 0
49, 0, 0, 0
50, 0, 0, 0
51, 0, 0, 0
52, 0, 0, 52.89663314819336
53, 0, 0, 167.0585021972656
54, 0, 0, 622.4928588867188
55, 0, 0, 1585.619995117188
56, 0, 0, 3124.0263671875
57, 0, 0, 4073.107177734375
58, 0, 0, 4868.0234375
59, 0, 0, 5002.66552734375
60, 0, 0, 4447.7275390625
61, 0, 0, 3973.57861328125
62, 0, 0, 3523.736328125
63, 0, 0, 3166.635009765625
64, 0, 0, 2927.68408203125
65, 0, 0, 2737.037353515625
66, 0, 0, 2587.3505859375
67, 0, 0, 2457.033203125
68, 0, 0, 2365.4951171875
69, 0, 0, 2263.404296875
70, 0, 0, 2182.5009765625
71, 0, 0, 2112.23095703125
72, 0, 0, 2045.276611328125
73, 0, 0, 1992.439819335938
74, 0, 0, 1934.232543945312
75, 0, 0, 1891.556518554688
76, 0, 0, 1842.666015625
77, 0, 0, 1804.285034179688
78, 0, 0, 1756.191162109375
79, 0, 0, 1727.752685546875
80, 0, 0, 1692.105590820312
81, 0, 0, 1659.333374023438
82, 0, 0, 1638.116943359375
83, 0, 0, 1607.12841796875
84, 0, 0, 1575.344116210938
85, 0, 0, 1559.598388671875
86, 0, 0, 1538.7197265625
87, 0, 0, 1510.895263671875
88, 0, 0, 1494.869384765625
89, 0, 0, 1461.259155273438
90, 0, 0, 1444.953491210938
91, 0, 0, 1428.18359375
92, 0, 0, 1411.777709960938
93, 0, 0, 1403.210693359375
94, 0, 0, 1378.737426757812
95, 0, 0, 1361.201782226562
96, 0, 0, 1344.832153320312
97, 0, 0, 1338.242553710938
98, 0, 0, 1330.734619140625
99, 0, 0, 1308.448486328125
100, 0, 0, 1296.506469726562
101, 0, 0, 1290.963745117188
102, 0, 0, 1272.267456054688
103, 0, 0, 1258.4931640625
104, 0, 0, 1253.219604492188
105, 0, 0, 1240.229614257812
106, 0, 0, 1235.844360351562
107, 0, 0, 1217.131713867188
108, 0, 0, 1201.6865234375
109, 0, 0, 1195.908935546875
110, 0, 0, 1187.488525390625
111, 0, 0, 1173.24658203125
112, 0, 0, 1171.823120117188
113, 0, 0, 1162.282348632812
114, 0, 0, 1149.9697265625
115, 0, 0, 1144.1142578125
116, 0, 0, 1140.603759765625
117, 0, 0, 1135.116088867188
118, 0, 0, 1126.453125
119, 0, 0, 1113.32421875
120, 0, 0, 1105.784912109375
121, 0, 0, 1094.587158203125
122, 0, 0, 1097.947143554688
123, 0, 0, 1083.236083984375
124, 0, 0, 1071.320556640625
125, 0, 0, 1069.93115234375
126, 0, 0, 1061.74365234375
127, 0, 0, 1067.785522460938
128, 0, 0, 1057.408447265625
129, 0, 0, 1049.520263671875
130, 0, 0, 1039.526733398438
131, 0, 0, 1037.051635742188
132, 0, 0, 1028.248779296875
133, 0, 0, 1029.470825195312
134, 0, 0, 1019.112670898438
135, 0, 0, 1020.228881835938
136, 0, 0, 1009.91357421875
137, 0, 0, 1015.786743164062
138, 0, 0, 999.7246704101562
139, 0, 0, 986.9036254882812
140, 0, 0, 987.1130981445312
141, 0, 0, 992.9960327148438
142, 0, 0, 978.8893432617188
143, 0, 0, 976.9086303710938
144, 0, 0, 970.391845703125
145, 0, 0, 967.2430419921875
146, 0, 0, 966.574951171875
147, 0, 0, 969.6077880859375
148, 0, 0, 962.4523315429688
149, 0, 0, 953.5350341796875
150, 0, 0, 951.1021118164062
151, 0, 0, 936.2750854492188
152, 0, 0, 936.163330078125
153, 0, 0, 931.9998779296875
154, 0, 0, 931.7822875976562
155, 0, 0, 927.2443237304688
156, 0, 0, 921.4163208007812
157, 0, 0, 920.9248046875
158, 0, 0, 919.9116821289062
159, 0, 0, 919.7218017578125
160, 0, 0, 911.5471801757812
161, 0, 0, 912.9656982421875
162, 0, 0, 896.5331420898438
163, 0, 0, 893.9578857421875
164, 0, 0, 899.7762451171875
165, 0, 0, 893.25537109375
166, 0, 0, 885.1048583984375
167, 0, 0, 890.1145629882812
168, 0, 0, 886.2006225585938
169, 0, 0, 872.7855224609375
170, 0, 0, 867.032958984375
171, 0, 0, 879.7182006835938
172, 0, 0, 876.5260620117188
173, 0, 0, 867.9468383789062
174, 0, 0, 869.9483642578125
175, 0, 0, 865.4801635742188
176, 0, 0, 854.8757934570312
177, 0, 0, 856.2100219726562
178, 0, 0, 848.7607421875
179, 0, 0, 855.5025634765625
