# TOPAS Version: 3.3.p1
# Parameter File: Test.txt
# Results for scorer MLIC_Scorer
# Scored in component: MLIC
# X in 180 bins of 0.177778 cm
# Y in 1 bin  of 10 cm
# Z in 1 bin  of 10 cm
# EnergyDeposit ( MeV ) : Sum   
0, 0, 0, 0
1, 0, 0, 0
2, 0, 0, 0
3, 0, 0, 0
4, 0, 0, 0
5, 0, 0, 0
6, 0, 0, 0
7, 0, 0, 0
8, 0, 0, 0
9, 0, 0, 0
10, 0, 0, 0
11, 0, 0, 0
12, 0, 0, 0
13, 0, 0, 0
14, 0, 0, 0
15, 0, 0, 0
16, 0, 0, 0
17, 0, 0, 0
18, 0, 0, 0
19, 0, 0, 0
20, 0, 0, 0
21, 0, 0, 0
22, 0, 0, 0
23, 0, 0, 0
24, 0, 0, 0
25, 0, 0, 0
26, 0, 0, 0
27, 0, 0, 0
28, 0, 0, 0
29, 0, 0, 0
30, 0, 0, 0
31, 0, 0, 0
32, 0, 0, 0
33, 0, 0, 0
34, 0, 0, 0
35, 0, 0, 0
36, 0, 0, 0
37, 0, 0, 0
38, 0, 0, 0
39, 0, 0, 0
40, 0, 0, 0
41, 0, 0, 0
42, 0, 0, 0
43, 0, 0, 0
44, 0, 0, 0
45, 0, 0, 0
46, 0, 0, 0
47, 0, 0, 0
48, 0, 0, 0
49, 0, 0, 0
50, 0, 0, 0
51, 0, 0, 0
52, 0, 0, 0
53, 0, 0, 0
54, 0, 0, 0
55, 0, 0, 0
56, 0, 0, 0
57, 0, 0, 0
58, 0, 0, 0
59, 0, 0, 0
60, 0, 0, 0
61, 0, 0, 0
62, 0, 0, 0
63, 0, 0, 0
64, 0, 0, 0
65, 0, 0, 0
66, 0, 0, 0
67, 0, 0, 0
68, 0, 0, 0
69, 0, 0, 0
70, 0, 0, 0
71, 0, 0, 0
72, 0, 0, 0
73, 0, 0, 0
74, 0, 0, 0
75, 0, 0, 0
76, 0, 0, 0
77, 0, 0, 0
78, 0, 0, 0
79, 0, 0, 0
80, 0, 0, 0
81, 0, 0, 0.008197923190891743
82, 0, 0, 0
83, 0, 0, 0.0003060510498471558
84, 0, 0, 0
85, 0, 0, 0.01060157548636198
86, 0, 0, 0
87, 0, 0, 0
88, 0, 0, 0
89, 0, 0, 0.01245351973921061
90, 0, 0, 0
91, 0, 0, 0
92, 0, 0, 0
93, 0, 0, 0.01190205849707127
94, 0, 0, 0
95, 0, 0, 0
96, 0, 0, 0
97, 0, 0, 0.04882809147238731
98, 0, 0, 0
99, 0, 0, 0.04999854788184166
100, 0, 0, 0
101, 0, 0, 0
102, 0, 0, 0.0002388135326327756
103, 0, 0, 0
104, 0, 0, 0.04123959690332413
105, 0, 0, 0.003399348119273782
106, 0, 0, 0
107, 0, 0, 0
108, 0, 0, 0
109, 0, 0, 0
110, 0, 0, 0
111, 0, 0, 0
112, 0, 0, 0
113, 0, 0, 0
114, 0, 0, 0
115, 0, 0, 0
116, 0, 0, 7.476254540961236e-05
117, 0, 0, 0
118, 0, 0, 0
119, 0, 0, 0
120, 0, 0, 0
121, 0, 0, 0
122, 0, 0, 0
123, 0, 0, 0
124, 0, 0, 0
125, 0, 0, 0
126, 0, 0, 0
127, 0, 0, 0
128, 0, 0, 0
129, 0, 0, 0
130, 0, 0, 0
131, 0, 0, 0
132, 0, 0, 0
133, 0, 0, 0
134, 0, 0, 0
135, 0, 0, 0
136, 0, 0, 0
137, 0, 0, 0
138, 0, 0, 0
139, 0, 0, 0
140, 0, 0, 0
141, 0, 0, 0
142, 0, 0, 0
143, 0, 0, 0
144, 0, 0, 0
145, 0, 0, 5.926900386810303
146, 0, 0, 29.20331001281738
147, 0, 0, 226.2936401367188
148, 0, 0, 649.030029296875
149, 0, 0, 1640.091186523438
150, 0, 0, 3287.756591796875
151, 0, 0, 4692.7587890625
152, 0, 0, 5112.03369140625
153, 0, 0, 4868.2099609375
154, 0, 0, 4395.2685546875
155, 0, 0, 3830.68017578125
156, 0, 0, 3418.4462890625
157, 0, 0, 3102.742919921875
158, 0, 0, 2876.9130859375
159, 0, 0, 2710.3935546875
160, 0, 0, 2560.71142578125
161, 0, 0, 2433.07470703125
162, 0, 0, 2336.4443359375
163, 0, 0, 2247.204345703125
164, 0, 0, 2164.32666015625
165, 0, 0, 2097.484375
166, 0, 0, 2034.853271484375
167, 0, 0, 1981.403076171875
168, 0, 0, 1925.719604492188
169, 0, 0, 1871.904541015625
170, 0, 0, 1835.838623046875
171, 0, 0, 1792.468383789062
172, 0, 0, 1754.466918945312
173, 0, 0, 1715.004516601562
174, 0, 0, 1691.951171875
175, 0, 0, 1657.753784179688
176, 0, 0, 1625.760620117188
177, 0, 0, 1598.820190429688
178, 0, 0, 1571.113525390625
179, 0, 0, 1544.861206054688
