# TOPAS Version: 3.3.p1
# Parameter File: Test.txt
# Results for scorer MLIC_Scorer
# Scored in component: MLIC
# X in 180 bins of 0.177778 cm
# Y in 1 bin  of 10 cm
# Z in 1 bin  of 10 cm
# EnergyDeposit ( MeV ) : Sum   
0, 0, 0, 0
1, 0, 0, 0
2, 0, 0, 0
3, 0, 0, 0
4, 0, 0, 0
5, 0, 0, 0
6, 0, 0, 0
7, 0, 0, 0
8, 0, 0, 0
9, 0, 0, 0
10, 0, 0, 0
11, 0, 0, 0
12, 0, 0, 0
13, 0, 0, 0
14, 0, 0, 0
15, 0, 0, 0
16, 0, 0, 0
17, 0, 0, 0
18, 0, 0, 0
19, 0, 0, 0
20, 0, 0, 0
21, 0, 0, 0
22, 0, 0, 0
23, 0, 0, 0
24, 0, 0, 0
25, 0, 0, 0
26, 0, 0, 0
27, 0, 0, 0
28, 0, 0, 0
29, 0, 0, 0
30, 0, 0, 0
31, 0, 0, 0
32, 0, 0, 0
33, 0, 0, 0
34, 0, 0, 0
35, 0, 0, 0
36, 0, 0, 0
37, 0, 0, 0
38, 0, 0, 0
39, 0, 0, 0
40, 0, 0, 0
41, 0, 0, 0
42, 0, 0, 0
43, 0, 0, 0
44, 0, 0, 0
45, 0, 0, 0
46, 0, 0, 0
47, 0, 0, 0
48, 0, 0, 0
49, 0, 0, 0
50, 0, 0, 0
51, 0, 0, 0
52, 0, 0, 0
53, 0, 0, 0
54, 0, 0, 0.002266636583954096
55, 0, 0, 0.02698994241654873
56, 0, 0, 0.003155826823785901
57, 0, 0, 0
58, 0, 0, 11.37295818328857
59, 0, 0, 153.1674041748047
60, 0, 0, 491.4627990722656
61, 0, 0, 1283.347534179688
62, 0, 0, 2464.419921875
63, 0, 0, 3981.393310546875
64, 0, 0, 5099.15869140625
65, 0, 0, 5071.65576171875
66, 0, 0, 4548.9169921875
67, 0, 0, 3992.63134765625
68, 0, 0, 3586.4921875
69, 0, 0, 3243.20166015625
70, 0, 0, 2978.931396484375
71, 0, 0, 2775.540771484375
72, 0, 0, 2616
73, 0, 0, 2494.425537109375
74, 0, 0, 2379.713623046875
75, 0, 0, 2287.5244140625
76, 0, 0, 2199.12060546875
77, 0, 0, 2131.5888671875
78, 0, 0, 2060.41455078125
79, 0, 0, 2002.520751953125
80, 0, 0, 1945.709228515625
81, 0, 0, 1894.462890625
82, 0, 0, 1854.599609375
83, 0, 0, 1808.140991210938
84, 0, 0, 1767.080200195312
85, 0, 0, 1736.332763671875
86, 0, 0, 1696.280883789062
87, 0, 0, 1663.84228515625
88, 0, 0, 1647.394165039062
89, 0, 0, 1610.202514648438
90, 0, 0, 1586.983642578125
91, 0, 0, 1560.51123046875
92, 0, 0, 1537.135986328125
93, 0, 0, 1520.833862304688
94, 0, 0, 1496.35546875
95, 0, 0, 1475.913452148438
96, 0, 0, 1455.275390625
97, 0, 0, 1434.676635742188
98, 0, 0, 1427.007080078125
99, 0, 0, 1395.291015625
100, 0, 0, 1381.430786132812
101, 0, 0, 1364.553344726562
102, 0, 0, 1349.908813476562
103, 0, 0, 1341.681762695312
104, 0, 0, 1334.1064453125
105, 0, 0, 1315.0380859375
106, 0, 0, 1298.0400390625
107, 0, 0, 1296.320556640625
108, 0, 0, 1273.828491210938
109, 0, 0, 1259.507446289062
110, 0, 0, 1252.092651367188
111, 0, 0, 1244.995361328125
112, 0, 0, 1233.260864257812
113, 0, 0, 1218.086791992188
114, 0, 0, 1205.687377929688
115, 0, 0, 1191.982543945312
116, 0, 0, 1183.785034179688
117, 0, 0, 1175.45703125
118, 0, 0, 1168.530517578125
119, 0, 0, 1159.707275390625
120, 0, 0, 1158.345458984375
121, 0, 0, 1142.824462890625
122, 0, 0, 1134.194946289062
123, 0, 0, 1136.39111328125
124, 0, 0, 1114.380249023438
125, 0, 0, 1113.586059570312
126, 0, 0, 1103.567016601562
127, 0, 0, 1102.109375
128, 0, 0, 1094.767944335938
129, 0, 0, 1084.067993164062
130, 0, 0, 1079.837890625
131, 0, 0, 1067.602416992188
132, 0, 0, 1071.678100585938
133, 0, 0, 1069.341674804688
134, 0, 0, 1060.96875
135, 0, 0, 1044.92822265625
136, 0, 0, 1042.617431640625
137, 0, 0, 1037.529907226562
138, 0, 0, 1031.086181640625
139, 0, 0, 1027.924438476562
140, 0, 0, 1018.083129882812
141, 0, 0, 1016.535339355469
142, 0, 0, 1003.877197265625
143, 0, 0, 1005.805297851562
144, 0, 0, 1006.396545410156
145, 0, 0, 1005.747131347656
146, 0, 0, 990.0860595703125
147, 0, 0, 987.743896484375
148, 0, 0, 989.5217895507812
149, 0, 0, 977.9556274414062
150, 0, 0, 970.6041259765625
151, 0, 0, 969.4622802734375
152, 0, 0, 969.96337890625
153, 0, 0, 959.7844848632812
154, 0, 0, 956.5908203125
155, 0, 0, 953.005126953125
156, 0, 0, 945.2489013671875
157, 0, 0, 943.7686157226562
158, 0, 0, 943.1585693359375
159, 0, 0, 935.2849731445312
160, 0, 0, 934.5337524414062
161, 0, 0, 935.0330810546875
162, 0, 0, 926.49755859375
163, 0, 0, 923.3616333007812
164, 0, 0, 915.4723510742188
165, 0, 0, 922.6183471679688
166, 0, 0, 919.92822265625
167, 0, 0, 910.7113037109375
168, 0, 0, 903.0880126953125
169, 0, 0, 903.5121459960938
170, 0, 0, 903.9219970703125
171, 0, 0, 888.4697875976562
172, 0, 0, 889.92431640625
173, 0, 0, 882.5528564453125
174, 0, 0, 881.9493408203125
175, 0, 0, 877.8169555664062
176, 0, 0, 882.8648681640625
177, 0, 0, 864.4314575195312
178, 0, 0, 877.0228881835938
179, 0, 0, 869.74365234375
