# TOPAS Version: 3.3.p1
# Parameter File: Test.txt
# Results for scorer MLIC_Scorer
# Scored in component: MLIC
# X in 180 bins of 0.177778 cm
# Y in 1 bin  of 10 cm
# Z in 1 bin  of 10 cm
# EnergyDeposit ( MeV ) : Sum   
0, 0, 0, 0
1, 0, 0, 0
2, 0, 0, 0
3, 0, 0, 0
4, 0, 0, 0
5, 0, 0, 0
6, 0, 0, 0
7, 0, 0, 0
8, 0, 0, 0
9, 0, 0, 0
10, 0, 0, 0
11, 0, 0, 0
12, 0, 0, 0
13, 0, 0, 0
14, 0, 0, 0
15, 0, 0, 0
16, 0, 0, 0
17, 0, 0, 0
18, 0, 0, 0
19, 0, 0, 0
20, 0, 0, 0
21, 0, 0, 0
22, 0, 0, 0
23, 0, 0, 0
24, 0, 0, 0
25, 0, 0, 0
26, 0, 0, 0
27, 0, 0, 0
28, 0, 0, 0
29, 0, 0, 0
30, 0, 0, 0
31, 0, 0, 0
32, 0, 0, 0
33, 0, 0, 0
34, 0, 0, 0
35, 0, 0, 0
36, 0, 0, 0
37, 0, 0, 0
38, 0, 0, 0
39, 0, 0, 0
40, 0, 0, 0
41, 0, 0, 0
42, 0, 0, 0
43, 0, 0, 0
44, 0, 0, 0
45, 0, 0, 0
46, 0, 0, 0
47, 0, 0, 0
48, 0, 0, 0
49, 0, 0, 0
50, 0, 0, 0
51, 0, 0, 0
52, 0, 0, 0
53, 0, 0, 0
54, 0, 0, 0
55, 0, 0, 0
56, 0, 0, 0
57, 0, 0, 0
58, 0, 0, 0
59, 0, 0, 0
60, 0, 0, 0
61, 0, 0, 0
62, 0, 0, 0
63, 0, 0, 0
64, 0, 0, 0
65, 0, 0, 0
66, 0, 0, 0
67, 0, 0, 0
68, 0, 0, 0
69, 0, 0, 0
70, 0, 0, 0
71, 0, 0, 0
72, 0, 0, 0
73, 0, 0, 0
74, 0, 0, 0
75, 0, 0, 0
76, 0, 0, 0
77, 0, 0, 0
78, 0, 0, 0
79, 0, 0, 0
80, 0, 0, 0
81, 0, 0, 0
82, 0, 0, 0
83, 0, 0, 0
84, 0, 0, 0
85, 0, 0, 0
86, 0, 0, 0
87, 0, 0, 0
88, 0, 0, 0
89, 0, 0, 0
90, 0, 0, 0
91, 0, 0, 0
92, 0, 0, 0
93, 0, 0, 0
94, 0, 0, 2.864373207092285
95, 0, 0, 19.68147277832031
96, 0, 0, 56.99753189086914
97, 0, 0, 200.728271484375
98, 0, 0, 319.1467590332031
99, 0, 0, 356.5801086425781
100, 0, 0, 356.6985778808594
101, 0, 0, 296.77685546875
102, 0, 0, 254.2475433349609
103, 0, 0, 225.1458129882812
104, 0, 0, 203.9436798095703
105, 0, 0, 192.261962890625
106, 0, 0, 178.5377044677734
107, 0, 0, 170.1632232666016
108, 0, 0, 161.6471099853516
109, 0, 0, 155.3436737060547
110, 0, 0, 150.8749542236328
111, 0, 0, 144.5272216796875
112, 0, 0, 138.78759765625
113, 0, 0, 134.4591522216797
114, 0, 0, 129.6177520751953
115, 0, 0, 126.8398284912109
116, 0, 0, 123.1263122558594
117, 0, 0, 122.2968521118164
118, 0, 0, 120.0531845092773
119, 0, 0, 117.2066345214844
120, 0, 0, 112.929443359375
121, 0, 0, 110.8521347045898
122, 0, 0, 110.7252883911133
123, 0, 0, 106.6042556762695
124, 0, 0, 104.2683639526367
125, 0, 0, 104.3929977416992
126, 0, 0, 101.6511459350586
127, 0, 0, 97.8167724609375
128, 0, 0, 101.2696990966797
129, 0, 0, 97.65840148925781
130, 0, 0, 97.37310028076172
131, 0, 0, 94.99491882324219
132, 0, 0, 95.06013488769531
133, 0, 0, 92.82848358154297
134, 0, 0, 90.91161346435547
135, 0, 0, 88.62203979492188
136, 0, 0, 91.49643707275391
137, 0, 0, 88.80987548828125
138, 0, 0, 88.918212890625
139, 0, 0, 87.70713043212891
140, 0, 0, 87.64174652099609
141, 0, 0, 84.39234161376953
142, 0, 0, 84.18606567382812
143, 0, 0, 82.95371246337891
144, 0, 0, 84.22164154052734
145, 0, 0, 83.76770782470703
146, 0, 0, 81.60756683349609
147, 0, 0, 80.17230224609375
148, 0, 0, 81.67343139648438
149, 0, 0, 80.30394744873047
150, 0, 0, 76.99703979492188
151, 0, 0, 77.16207122802734
152, 0, 0, 78.11618041992188
153, 0, 0, 78.71649932861328
154, 0, 0, 77.05740356445312
155, 0, 0, 75.14977264404297
156, 0, 0, 74.77645874023438
157, 0, 0, 74.95708465576172
158, 0, 0, 74.41551208496094
159, 0, 0, 73.84722900390625
160, 0, 0, 74.36614227294922
161, 0, 0, 73.82074737548828
162, 0, 0, 71.48377990722656
163, 0, 0, 71.444580078125
164, 0, 0, 70.68577575683594
165, 0, 0, 70.03152465820312
166, 0, 0, 70.77838897705078
167, 0, 0, 69.01155853271484
168, 0, 0, 70.43702697753906
169, 0, 0, 69.78146362304688
170, 0, 0, 68.71685028076172
171, 0, 0, 66.92198944091797
172, 0, 0, 66.95641326904297
173, 0, 0, 68.49814605712891
174, 0, 0, 69.10623168945312
175, 0, 0, 67.40764617919922
176, 0, 0, 67.99827575683594
177, 0, 0, 66.59206390380859
178, 0, 0, 66.20207977294922
179, 0, 0, 66.26511383056641
