# TOPAS Version: 3.3.p1
# Parameter File: Test.txt
# Results for scorer MLIC_Scorer
# Scored in component: MLIC
# X in 180 bins of 0.177778 cm
# Y in 1 bin  of 10 cm
# Z in 1 bin  of 10 cm
# EnergyDeposit ( MeV ) : Sum   
0, 0, 0, 0
1, 0, 0, 0
2, 0, 0, 0
3, 0, 0, 0
4, 0, 0, 0
5, 0, 0, 0
6, 0, 0, 0
7, 0, 0, 0
8, 0, 0, 0
9, 0, 0, 0
10, 0, 0, 0
11, 0, 0, 0
12, 0, 0, 0
13, 0, 0, 0
14, 0, 0, 0
15, 0, 0, 0
16, 0, 0, 0
17, 0, 0, 0
18, 0, 0, 0
19, 0, 0, 0
20, 0, 0, 0
21, 0, 0, 0
22, 0, 0, 0
23, 0, 0, 0
24, 0, 0, 0
25, 0, 0, 0
26, 0, 0, 0
27, 0, 0, 0
28, 0, 0, 0
29, 0, 0, 0
30, 0, 0, 0
31, 0, 0, 0
32, 0, 0, 0
33, 0, 0, 0
34, 0, 0, 0
35, 0, 0, 0
36, 0, 0, 0
37, 0, 0, 0
38, 0, 0, 0
39, 0, 0, 0
40, 0, 0, 0
41, 0, 0, 0.02376676723361015
42, 0, 0, 0.0009337751544080675
43, 0, 0, 0
44, 0, 0, 0
45, 0, 0, 0
46, 0, 0, 0
47, 0, 0, 0
48, 0, 0, 0
49, 0, 0, 0
50, 0, 0, 0.002644037129357457
51, 0, 0, 0
52, 0, 0, 0
53, 0, 0, 0
54, 0, 0, 0
55, 0, 0, 15.73389053344727
56, 0, 0, 50.76227188110352
57, 0, 0, 288.9483947753906
58, 0, 0, 897.4010620117188
59, 0, 0, 1940.247192382812
60, 0, 0, 3355.02734375
61, 0, 0, 4445.3291015625
62, 0, 0, 4922.94384765625
63, 0, 0, 4919.90478515625
64, 0, 0, 4341.083984375
65, 0, 0, 3809.204345703125
66, 0, 0, 3419.769287109375
67, 0, 0, 3090.766357421875
68, 0, 0, 2861.641357421875
69, 0, 0, 2680.801025390625
70, 0, 0, 2544.51025390625
71, 0, 0, 2433.68310546875
72, 0, 0, 2326.90283203125
73, 0, 0, 2232.22998046875
74, 0, 0, 2156.086181640625
75, 0, 0, 2089.096435546875
76, 0, 0, 2032.507568359375
77, 0, 0, 1970.1767578125
78, 0, 0, 1916.641357421875
79, 0, 0, 1875.1689453125
80, 0, 0, 1829.25048828125
81, 0, 0, 1802.361206054688
82, 0, 0, 1747.553833007812
83, 0, 0, 1717.34765625
84, 0, 0, 1684.494750976562
85, 0, 0, 1655.274169921875
86, 0, 0, 1625.015747070312
87, 0, 0, 1598.087524414062
88, 0, 0, 1576.293090820312
89, 0, 0, 1546.501586914062
90, 0, 0, 1527.285522460938
91, 0, 0, 1501.903564453125
92, 0, 0, 1482.097534179688
93, 0, 0, 1477.292846679688
94, 0, 0, 1447.926879882812
95, 0, 0, 1429.782348632812
96, 0, 0, 1417.8505859375
97, 0, 0, 1398.007568359375
98, 0, 0, 1370.939453125
99, 0, 0, 1357.5498046875
100, 0, 0, 1350.679809570312
101, 0, 0, 1327.682250976562
102, 0, 0, 1318.758544921875
103, 0, 0, 1306.960571289062
104, 0, 0, 1293.193481445312
105, 0, 0, 1284.510009765625
106, 0, 0, 1274.771484375
107, 0, 0, 1250.2138671875
108, 0, 0, 1250.62060546875
109, 0, 0, 1241.405883789062
110, 0, 0, 1220.067993164062
111, 0, 0, 1215.383056640625
112, 0, 0, 1209.495727539062
113, 0, 0, 1195.352783203125
114, 0, 0, 1180.092163085938
115, 0, 0, 1174.994384765625
116, 0, 0, 1169.820068359375
117, 0, 0, 1156.70849609375
118, 0, 0, 1150.306274414062
119, 0, 0, 1144.944091796875
120, 0, 0, 1141.4326171875
121, 0, 0, 1121.798828125
122, 0, 0, 1116.298583984375
123, 0, 0, 1114.16259765625
124, 0, 0, 1102.146484375
125, 0, 0, 1097.385620117188
126, 0, 0, 1091.746215820312
127, 0, 0, 1085.31494140625
128, 0, 0, 1072.39697265625
129, 0, 0, 1071.224731445312
130, 0, 0, 1061.445678710938
131, 0, 0, 1060.4912109375
132, 0, 0, 1046.479736328125
133, 0, 0, 1050.83251953125
134, 0, 0, 1035.679321289062
135, 0, 0, 1031.18798828125
136, 0, 0, 1028.732788085938
137, 0, 0, 1030.383422851562
138, 0, 0, 1018.449890136719
139, 0, 0, 1015.800476074219
140, 0, 0, 1009.882080078125
141, 0, 0, 1005.152038574219
142, 0, 0, 993.8381958007812
143, 0, 0, 989.9429321289062
144, 0, 0, 985.36474609375
145, 0, 0, 984.6886596679688
146, 0, 0, 979.7460327148438
147, 0, 0, 975.0645141601562
148, 0, 0, 972.5403442382812
149, 0, 0, 972.0501708984375
150, 0, 0, 961.8276977539062
151, 0, 0, 956.9098510742188
152, 0, 0, 951.6417846679688
153, 0, 0, 947.5479736328125
154, 0, 0, 938.9593505859375
155, 0, 0, 937.8920288085938
156, 0, 0, 938.1404418945312
157, 0, 0, 931.8939208984375
158, 0, 0, 934.4453735351562
159, 0, 0, 925.9029541015625
160, 0, 0, 920.9411010742188
161, 0, 0, 920.1115112304688
162, 0, 0, 916.90771484375
163, 0, 0, 906.7069091796875
164, 0, 0, 902.8882446289062
165, 0, 0, 910.3211669921875
166, 0, 0, 894.7315063476562
167, 0, 0, 898.1277465820312
168, 0, 0, 891.567626953125
169, 0, 0, 892.74755859375
170, 0, 0, 890.9254760742188
171, 0, 0, 889.100830078125
172, 0, 0, 883.490234375
173, 0, 0, 879.925537109375
174, 0, 0, 878.4262084960938
175, 0, 0, 879.2395629882812
176, 0, 0, 870.0119018554688
177, 0, 0, 870.6677856445312
178, 0, 0, 874.333740234375
179, 0, 0, 868.5318603515625
