# TOPAS Version: 3.3.p1
# Parameter File: Test.txt
# Results for scorer MLIC_Scorer
# Scored in component: MLIC
# X in 180 bins of 0.177778 cm
# Y in 1 bin  of 10 cm
# Z in 1 bin  of 10 cm
# EnergyDeposit ( MeV ) : Sum   
0, 0, 0, 0
1, 0, 0, 0
2, 0, 0, 0
3, 0, 0, 0
4, 0, 0, 0
5, 0, 0, 0
6, 0, 0, 0
7, 0, 0, 0
8, 0, 0, 0
9, 0, 0, 0
10, 0, 0, 0
11, 0, 0, 0
12, 0, 0, 0
13, 0, 0, 0
14, 0, 0, 0
15, 0, 0, 0
16, 0, 0, 0
17, 0, 0, 0
18, 0, 0, 0
19, 0, 0, 0
20, 0, 0, 0
21, 0, 0, 0
22, 0, 0, 0
23, 0, 0, 0
24, 0, 0, 0
25, 0, 0, 0
26, 0, 0, 0
27, 0, 0, 0
28, 0, 0, 0
29, 0, 0, 0
30, 0, 0, 0
31, 0, 0, 0
32, 0, 0, 0
33, 0, 0, 0
34, 0, 0, 0
35, 0, 0, 0
36, 0, 0, 0
37, 0, 0, 0
38, 0, 0, 0
39, 0, 0, 0
40, 0, 0, 0
41, 0, 0, 0
42, 0, 0, 0
43, 0, 0, 0
44, 0, 0, 0
45, 0, 0, 0
46, 0, 0, 0
47, 0, 0, 0
48, 0, 0, 0
49, 0, 0, 0
50, 0, 0, 0
51, 0, 0, 0
52, 0, 0, 0
53, 0, 0, 0
54, 0, 0, 0
55, 0, 0, 0
56, 0, 0, 0
57, 0, 0, 0
58, 0, 0, 0
59, 0, 0, 0
60, 0, 0, 0
61, 0, 0, 0
62, 0, 0, 0
63, 0, 0, 0
64, 0, 0, 0
65, 0, 0, 0
66, 0, 0, 0
67, 0, 0, 0
68, 0, 0, 0
69, 0, 0, 0
70, 0, 0, 0
71, 0, 0, 0
72, 0, 0, 0
73, 0, 0, 0
74, 0, 0, 0
75, 0, 0, 0
76, 0, 0, 0
77, 0, 0, 0
78, 0, 0, 0
79, 0, 0, 0
80, 0, 0, 0
81, 0, 0, 0
82, 0, 0, 0
83, 0, 0, 0
84, 0, 0, 0
85, 0, 0, 0
86, 0, 0, 0
87, 0, 0, 0
88, 0, 0, 0
89, 0, 0, 0
90, 0, 0, 0
91, 0, 0, 0
92, 0, 0, 0
93, 0, 0, 0
94, 0, 0, 0
95, 0, 0, 0
96, 0, 0, 0
97, 0, 0, 0
98, 0, 0, 0
99, 0, 0, 0
100, 0, 0, 0
101, 0, 0, 0
102, 0, 0, 0
103, 0, 0, 0
104, 0, 0, 0
105, 0, 0, 0
106, 0, 0, 0
107, 0, 0, 0
108, 0, 0, 0
109, 0, 0, 0
110, 0, 0, 0
111, 0, 0, 0
112, 0, 0, 0
113, 0, 0, 0
114, 0, 0, 2.126327276229858
115, 0, 0, 10.468186378479
116, 0, 0, 91.24805450439453
117, 0, 0, 140.0892181396484
118, 0, 0, 271.1219787597656
119, 0, 0, 367.9419250488281
120, 0, 0, 452.7784118652344
121, 0, 0, 469.6589660644531
122, 0, 0, 421.9614562988281
123, 0, 0, 366.2634582519531
124, 0, 0, 327.428466796875
125, 0, 0, 295.5381164550781
126, 0, 0, 272.1516723632812
127, 0, 0, 254.5156555175781
128, 0, 0, 239.3001708984375
129, 0, 0, 227.7920227050781
130, 0, 0, 219.7670745849609
131, 0, 0, 210.2255554199219
132, 0, 0, 203.5506439208984
133, 0, 0, 195.7495880126953
134, 0, 0, 190.9170227050781
135, 0, 0, 185.8734893798828
136, 0, 0, 179.8995971679688
137, 0, 0, 174.9619598388672
138, 0, 0, 170.4315490722656
139, 0, 0, 165.1819763183594
140, 0, 0, 164.5617980957031
141, 0, 0, 162.4634704589844
142, 0, 0, 155.7654113769531
143, 0, 0, 157.5661315917969
144, 0, 0, 152.2647247314453
145, 0, 0, 150.6332550048828
146, 0, 0, 146.8913421630859
147, 0, 0, 144.2181701660156
148, 0, 0, 144.1596221923828
149, 0, 0, 140.6658020019531
150, 0, 0, 139.7738800048828
151, 0, 0, 134.5499572753906
152, 0, 0, 134.0740509033203
153, 0, 0, 132.6762847900391
154, 0, 0, 130.0948791503906
155, 0, 0, 130.2942810058594
156, 0, 0, 128.1224365234375
157, 0, 0, 125.1838302612305
158, 0, 0, 123.4160308837891
159, 0, 0, 123.4594268798828
160, 0, 0, 121.708122253418
161, 0, 0, 120.2039184570312
162, 0, 0, 118.0387573242188
163, 0, 0, 120.137092590332
164, 0, 0, 115.9966049194336
165, 0, 0, 117.740852355957
166, 0, 0, 114.7794036865234
167, 0, 0, 112.6022109985352
168, 0, 0, 114.8766174316406
169, 0, 0, 114.9916076660156
170, 0, 0, 111.0972366333008
171, 0, 0, 111.1323318481445
172, 0, 0, 109.7509384155273
173, 0, 0, 108.7627182006836
174, 0, 0, 109.1220321655273
175, 0, 0, 108.5505447387695
176, 0, 0, 104.5424423217773
177, 0, 0, 106.8877716064453
178, 0, 0, 104.0410842895508
179, 0, 0, 102.8449554443359
