# TOPAS Version: 3.3.p1
# Parameter File: Test.txt
# Results for scorer MLIC_Scorer
# Scored in component: MLIC
# X in 180 bins of 0.177778 cm
# Y in 1 bin  of 10 cm
# Z in 1 bin  of 10 cm
# EnergyDeposit ( MeV ) : Sum   
0, 0, 0, 0
1, 0, 0, 0
2, 0, 0, 0
3, 0, 0, 0
4, 0, 0, 0
5, 0, 0, 0
6, 0, 0, 0
7, 0, 0, 0
8, 0, 0, 0
9, 0, 0, 0
10, 0, 0, 0
11, 0, 0, 0
12, 0, 0, 0
13, 0, 0, 0
14, 0, 0, 0
15, 0, 0, 0
16, 0, 0, 0
17, 0, 0, 0
18, 0, 0, 0
19, 0, 0, 0
20, 0, 0, 0
21, 0, 0, 0
22, 0, 0, 0
23, 0, 0, 0
24, 0, 0, 0
25, 0, 0, 0
26, 0, 0, 0
27, 0, 0, 0
28, 0, 0, 0
29, 0, 0, 0
30, 0, 0, 0
31, 0, 0, 0
32, 0, 0, 0
33, 0, 0, 0
34, 0, 0, 0
35, 0, 0, 0
36, 0, 0, 0
37, 0, 0, 0
38, 0, 0, 0
39, 0, 0, 0
40, 0, 0, 0
41, 0, 0, 0
42, 0, 0, 0
43, 0, 0, 0
44, 0, 0, 0
45, 0, 0, 0
46, 0, 0, 0
47, 0, 0, 0
48, 0, 0, 0
49, 0, 0, 0
50, 0, 0, 0
51, 0, 0, 0
52, 0, 0, 0
53, 0, 0, 0
54, 0, 0, 0
55, 0, 0, 0
56, 0, 0, 0
57, 0, 0, 0
58, 0, 0, 0
59, 0, 0, 0
60, 0, 0, 0
61, 0, 0, 0
62, 0, 0, 0
63, 0, 0, 0
64, 0, 0, 0
65, 0, 0, 0
66, 0, 0, 0
67, 0, 0, 0
68, 0, 0, 0
69, 0, 0, 0
70, 0, 0, 0
71, 0, 0, 0
72, 0, 0, 0
73, 0, 0, 0
74, 0, 0, 0
75, 0, 0, 0
76, 0, 0, 0
77, 0, 0, 0
78, 0, 0, 0
79, 0, 0, 0
80, 0, 0, 0
81, 0, 0, 0
82, 0, 0, 0
83, 0, 0, 0
84, 0, 0, 0
85, 0, 0, 0
86, 0, 0, 0
87, 0, 0, 0
88, 0, 0, 0
89, 0, 0, 0
90, 0, 0, 0
91, 0, 0, 0
92, 0, 0, 0
93, 0, 0, 0
94, 0, 0, 0
95, 0, 0, 0
96, 0, 0, 0
97, 0, 0, 0
98, 0, 0, 0
99, 0, 0, 0
100, 0, 0, 0
101, 0, 0, 0
102, 0, 0, 0
103, 0, 0, 0
104, 0, 0, 0
105, 0, 0, 0
106, 0, 0, 0
107, 0, 0, 0
108, 0, 0, 0
109, 0, 0, 0
110, 0, 0, 0
111, 0, 0, 0
112, 0, 0, 0
113, 0, 0, 0
114, 0, 0, 0
115, 0, 0, 0
116, 0, 0, 0
117, 0, 0, 0
118, 0, 0, 0
119, 0, 0, 0
120, 0, 0, 0
121, 0, 0, 0.005162597168236971
122, 0, 0, 0
123, 0, 0, 0.05950413644313812
124, 0, 0, 0.02393771894276142
125, 0, 0, 0.005068016704171896
126, 0, 0, 6.119473457336426
127, 0, 0, 46.3062744140625
128, 0, 0, 231.2500305175781
129, 0, 0, 630.460693359375
130, 0, 0, 1478.717041015625
131, 0, 0, 2727.742919921875
132, 0, 0, 4102.703125
133, 0, 0, 4989.501953125
134, 0, 0, 4972.51904296875
135, 0, 0, 4647.63916015625
136, 0, 0, 3966.03515625
137, 0, 0, 3513.385498046875
138, 0, 0, 3166.022705078125
139, 0, 0, 2925.81494140625
140, 0, 0, 2735.963134765625
141, 0, 0, 2579.206787109375
142, 0, 0, 2458.724853515625
143, 0, 0, 2357.42041015625
144, 0, 0, 2263.566162109375
145, 0, 0, 2172.77099609375
146, 0, 0, 2108.76904296875
147, 0, 0, 2043.805908203125
148, 0, 0, 1989.49951171875
149, 0, 0, 1935.760864257812
150, 0, 0, 1885.385864257812
151, 0, 0, 1835.918090820312
152, 0, 0, 1797.71484375
153, 0, 0, 1772.54443359375
154, 0, 0, 1727.650756835938
155, 0, 0, 1697.219604492188
156, 0, 0, 1660.351318359375
157, 0, 0, 1641.483764648438
158, 0, 0, 1610.037231445312
159, 0, 0, 1582.531005859375
160, 0, 0, 1553.84765625
161, 0, 0, 1530.340698242188
162, 0, 0, 1515.585815429688
163, 0, 0, 1493.1962890625
164, 0, 0, 1470.880249023438
165, 0, 0, 1456.81201171875
166, 0, 0, 1431.645629882812
167, 0, 0, 1421.900268554688
168, 0, 0, 1393.407958984375
169, 0, 0, 1384.422607421875
170, 0, 0, 1367.752685546875
171, 0, 0, 1351.97216796875
172, 0, 0, 1341.705078125
173, 0, 0, 1325.843994140625
174, 0, 0, 1311.359008789062
175, 0, 0, 1294.801513671875
176, 0, 0, 1286.68017578125
177, 0, 0, 1268.800659179688
178, 0, 0, 1256.633544921875
179, 0, 0, 1254.699096679688
