# TOPAS Version: 3.3.p1
# Parameter File: Test.txt
# Results for scorer MLIC_Scorer
# Scored in component: MLIC
# X in 180 bins of 0.222222 cm
# Y in 1 bin  of 10 cm
# Z in 1 bin  of 10 cm
# EnergyDeposit ( MeV ) : Sum   
0, 0, 0, 0
1, 0, 0, 0
2, 0, 0, 0
3, 0, 0, 0
4, 0, 0, 0
5, 0, 0, 0
6, 0, 0, 0
7, 0, 0, 0
8, 0, 0, 0
9, 0, 0, 0
10, 0, 0, 0
11, 0, 0, 0
12, 0, 0, 0
13, 0, 0, 0
14, 0, 0, 0
15, 0, 0, 0
16, 0, 0, 0
17, 0, 0, 0
18, 0, 0, 0
19, 0, 0, 0.03155657649040222
20, 0, 0, 0
21, 0, 0, 0
22, 0, 0, 0
23, 0, 0, 0
24, 0, 0, 0
25, 0, 0, 0
26, 0, 0, 0
27, 0, 0, 0
28, 0, 0, 0
29, 0, 0, 0
30, 0, 0, 0
31, 0, 0, 0
32, 0, 0, 0
33, 0, 0, 0
34, 0, 0, 0
35, 0, 0, 0
36, 0, 0, 0
37, 0, 0, 0
38, 0, 0, 0
39, 0, 0, 0
40, 0, 0, 0
41, 0, 0, 0
42, 0, 0, 0
43, 0, 0, 0
44, 0, 0, 0
45, 0, 0, 0
46, 0, 0, 0
47, 0, 0, 0
48, 0, 0, 0
49, 0, 0, 0
50, 0, 0, 0
51, 0, 0, 0
52, 0, 0, 0
53, 0, 0, 0
54, 0, 0, 0
55, 0, 0, 0.02116883732378483
56, 0, 0, 0
57, 0, 0, 12.52808284759521
58, 0, 0, 124.9374084472656
59, 0, 0, 551.7034912109375
60, 0, 0, 2174.612548828125
61, 0, 0, 4404.61181640625
62, 0, 0, 5863.95654296875
63, 0, 0, 6234.61474609375
64, 0, 0, 5497.12158203125
65, 0, 0, 4750.44970703125
66, 0, 0, 4114.44775390625
67, 0, 0, 3701.182861328125
68, 0, 0, 3403.109619140625
69, 0, 0, 3167.850341796875
70, 0, 0, 2990.25390625
71, 0, 0, 2833.6728515625
72, 0, 0, 2719.071044921875
73, 0, 0, 2602.603271484375
74, 0, 0, 2511.700927734375
75, 0, 0, 2425.44287109375
76, 0, 0, 2354.1796875
77, 0, 0, 2279.51513671875
78, 0, 0, 2226.15380859375
79, 0, 0, 2159.129150390625
80, 0, 0, 2111.3896484375
81, 0, 0, 2063.799072265625
82, 0, 0, 2020.804931640625
83, 0, 0, 1983.733642578125
84, 0, 0, 1935.5693359375
85, 0, 0, 1903.242797851562
86, 0, 0, 1866.609985351562
87, 0, 0, 1832.029663085938
88, 0, 0, 1809.6826171875
89, 0, 0, 1783.3896484375
90, 0, 0, 1749.522583007812
91, 0, 0, 1725.112060546875
92, 0, 0, 1699.270629882812
93, 0, 0, 1682.732055664062
94, 0, 0, 1659.994873046875
95, 0, 0, 1637.850830078125
96, 0, 0, 1620.625366210938
97, 0, 0, 1601.785034179688
98, 0, 0, 1580.985229492188
99, 0, 0, 1557.977905273438
100, 0, 0, 1551.347900390625
101, 0, 0, 1538.086547851562
102, 0, 0, 1512.01171875
103, 0, 0, 1509.368774414062
104, 0, 0, 1486.275756835938
105, 0, 0, 1471.61669921875
106, 0, 0, 1460.702880859375
107, 0, 0, 1440.0703125
108, 0, 0, 1424.115112304688
109, 0, 0, 1414.745361328125
110, 0, 0, 1411.216552734375
111, 0, 0, 1400.0244140625
112, 0, 0, 1396.192016601562
113, 0, 0, 1364.607177734375
114, 0, 0, 1368.054321289062
115, 0, 0, 1345.739013671875
116, 0, 0, 1340.07666015625
117, 0, 0, 1327.177490234375
118, 0, 0, 1318.35107421875
119, 0, 0, 1319.3076171875
120, 0, 0, 1306.911499023438
121, 0, 0, 1294.8603515625
122, 0, 0, 1290.649047851562
123, 0, 0, 1274.149047851562
124, 0, 0, 1270.829345703125
125, 0, 0, 1265.53759765625
126, 0, 0, 1261.972045898438
127, 0, 0, 1246.768798828125
128, 0, 0, 1247.850463867188
129, 0, 0, 1229.127685546875
130, 0, 0, 1222.040893554688
131, 0, 0, 1217.795654296875
132, 0, 0, 1208.456298828125
133, 0, 0, 1198.786865234375
134, 0, 0, 1191.933471679688
135, 0, 0, 1199.01611328125
136, 0, 0, 1177.980712890625
137, 0, 0, 1175.868041992188
138, 0, 0, 1173.707153320312
139, 0, 0, 1163.117065429688
140, 0, 0, 1160.276489257812
141, 0, 0, 1148.648193359375
142, 0, 0, 1140.384155273438
143, 0, 0, 1141.853759765625
144, 0, 0, 1143.7021484375
145, 0, 0, 1135.99658203125
146, 0, 0, 1127.422729492188
147, 0, 0, 1123.983276367188
148, 0, 0, 1122.629150390625
149, 0, 0, 1105.120727539062
150, 0, 0, 1108.620483398438
151, 0, 0, 1108.537841796875
152, 0, 0, 1091.447021484375
153, 0, 0, 1093.857055664062
154, 0, 0, 1090.4619140625
155, 0, 0, 1084.067138671875
156, 0, 0, 1080.6318359375
157, 0, 0, 1082.642822265625
158, 0, 0, 1068.755249023438
159, 0, 0, 1062.233520507812
160, 0, 0, 1064.015747070312
161, 0, 0, 1050.590576171875
162, 0, 0, 1050.299194335938
163, 0, 0, 1051.20458984375
164, 0, 0, 1037.570922851562
165, 0, 0, 1042.369995117188
166, 0, 0, 1041.848510742188
167, 0, 0, 1029.154663085938
168, 0, 0, 1025.70556640625
169, 0, 0, 1037.9560546875
170, 0, 0, 1023.624328613281
171, 0, 0, 1014.87109375
172, 0, 0, 1020.134765625
173, 0, 0, 1019.678955078125
174, 0, 0, 1007.577941894531
175, 0, 0, 1003.824035644531
176, 0, 0, 1010.325439453125
177, 0, 0, 1003.762817382812
178, 0, 0, 986.4830932617188
179, 0, 0, 996.98046875
