# TOPAS Version: 3.3.p1
# Parameter File: Test.txt
# Results for scorer MLIC_Scorer
# Scored in component: MLIC
# X in 180 bins of 0.177778 cm
# Y in 1 bin  of 10 cm
# Z in 1 bin  of 10 cm
# EnergyDeposit ( MeV ) : Sum   
0, 0, 0, 0
1, 0, 0, 0
2, 0, 0, 0
3, 0, 0, 32.88472747802734
4, 0, 0, 164.4122619628906
5, 0, 0, 508.7552795410156
6, 0, 0, 1412.789428710938
7, 0, 0, 2679.165283203125
8, 0, 0, 4001.40576171875
9, 0, 0, 4833.60302734375
10, 0, 0, 4891.59130859375
11, 0, 0, 4596.87841796875
12, 0, 0, 4113.10791015625
13, 0, 0, 3594.905029296875
14, 0, 0, 3230.216064453125
15, 0, 0, 2964.244873046875
16, 0, 0, 2768.825927734375
17, 0, 0, 2615.69091796875
18, 0, 0, 2480.842529296875
19, 0, 0, 2371.862548828125
20, 0, 0, 2283.78955078125
21, 0, 0, 2197.01416015625
22, 0, 0, 2125.37890625
23, 0, 0, 2050.50146484375
24, 0, 0, 1998.90673828125
25, 0, 0, 1940.43017578125
26, 0, 0, 1897.39501953125
27, 0, 0, 1851.521850585938
28, 0, 0, 1807.966918945312
29, 0, 0, 1770.096557617188
30, 0, 0, 1733.632080078125
31, 0, 0, 1694.89892578125
32, 0, 0, 1672.713745117188
33, 0, 0, 1638.679321289062
34, 0, 0, 1611.28955078125
35, 0, 0, 1592.864868164062
36, 0, 0, 1560.221923828125
37, 0, 0, 1539.337280273438
38, 0, 0, 1518.951904296875
39, 0, 0, 1494.601440429688
40, 0, 0, 1472.33056640625
41, 0, 0, 1458.35498046875
42, 0, 0, 1436.946044921875
43, 0, 0, 1416.797485351562
44, 0, 0, 1397.8330078125
45, 0, 0, 1383.143798828125
46, 0, 0, 1379.779541015625
47, 0, 0, 1357.67333984375
48, 0, 0, 1338.93310546875
49, 0, 0, 1325.827392578125
50, 0, 0, 1312.212646484375
51, 0, 0, 1307.067138671875
52, 0, 0, 1285.063598632812
53, 0, 0, 1268.607299804688
54, 0, 0, 1261.14501953125
55, 0, 0, 1250.734375
56, 0, 0, 1245.086547851562
57, 0, 0, 1233.888916015625
58, 0, 0, 1220.516967773438
59, 0, 0, 1206.046630859375
60, 0, 0, 1206.01806640625
61, 0, 0, 1189.948852539062
62, 0, 0, 1175.26025390625
63, 0, 0, 1174.407592773438
64, 0, 0, 1162.419799804688
65, 0, 0, 1145.57568359375
66, 0, 0, 1142.2431640625
67, 0, 0, 1138.838500976562
68, 0, 0, 1133.060791015625
69, 0, 0, 1125.47265625
70, 0, 0, 1109.428588867188
71, 0, 0, 1105.725219726562
72, 0, 0, 1094.857666015625
73, 0, 0, 1095.084106445312
74, 0, 0, 1089.515258789062
75, 0, 0, 1076.243896484375
76, 0, 0, 1078.655395507812
77, 0, 0, 1065.034057617188
78, 0, 0, 1057.627319335938
79, 0, 0, 1050.8017578125
80, 0, 0, 1054.492309570312
81, 0, 0, 1037.731079101562
82, 0, 0, 1040.716674804688
83, 0, 0, 1036.739990234375
84, 0, 0, 1027.391235351562
85, 0, 0, 1023.080200195312
86, 0, 0, 1012.268676757812
87, 0, 0, 1019.458129882812
88, 0, 0, 1005.72265625
89, 0, 0, 995.9775390625
90, 0, 0, 998.7057495117188
91, 0, 0, 989.86669921875
92, 0, 0, 990.3260498046875
93, 0, 0, 980.7324829101562
94, 0, 0, 980.6085815429688
95, 0, 0, 966.1267700195312
96, 0, 0, 967.0317993164062
97, 0, 0, 956.7120361328125
98, 0, 0, 949.7200317382812
99, 0, 0, 958.50732421875
100, 0, 0, 946.8875122070312
101, 0, 0, 943.2874145507812
102, 0, 0, 945.3512573242188
103, 0, 0, 942.834228515625
104, 0, 0, 936.342041015625
105, 0, 0, 935.2066040039062
106, 0, 0, 928.0376586914062
107, 0, 0, 926.2911376953125
108, 0, 0, 914.2999877929688
109, 0, 0, 912.63330078125
110, 0, 0, 914.4446411132812
111, 0, 0, 909.6376953125
112, 0, 0, 904.4293212890625
113, 0, 0, 906.5357666015625
114, 0, 0, 895.3751831054688
115, 0, 0, 906.6834716796875
116, 0, 0, 895.402587890625
117, 0, 0, 888.687255859375
118, 0, 0, 879.01806640625
119, 0, 0, 881.466064453125
120, 0, 0, 877.3341674804688
121, 0, 0, 885.157958984375
122, 0, 0, 867.2239990234375
123, 0, 0, 872.2948608398438
124, 0, 0, 874.54736328125
125, 0, 0, 861.8605346679688
126, 0, 0, 870.0172119140625
127, 0, 0, 853.4667358398438
128, 0, 0, 855.19482421875
129, 0, 0, 853.2720336914062
130, 0, 0, 850.329345703125
131, 0, 0, 850.4895629882812
132, 0, 0, 855.955078125
133, 0, 0, 845.1129150390625
134, 0, 0, 838.3361206054688
135, 0, 0, 836.3978271484375
136, 0, 0, 850.883056640625
137, 0, 0, 840.7478637695312
138, 0, 0, 830.7887573242188
139, 0, 0, 827.2477416992188
140, 0, 0, 824.5100708007812
141, 0, 0, 836.11083984375
142, 0, 0, 819.3839111328125
143, 0, 0, 817.318359375
144, 0, 0, 817.9918212890625
145, 0, 0, 814.7342529296875
146, 0, 0, 815.1373901367188
147, 0, 0, 803.7805786132812
148, 0, 0, 821.0264282226562
149, 0, 0, 802.5682983398438
150, 0, 0, 804.9297485351562
151, 0, 0, 804.5853881835938
152, 0, 0, 797.4605712890625
153, 0, 0, 797.287353515625
154, 0, 0, 793.67724609375
155, 0, 0, 790.4456176757812
156, 0, 0, 795.3411865234375
157, 0, 0, 787.955322265625
158, 0, 0, 790.7958984375
159, 0, 0, 782.3751220703125
160, 0, 0, 782.6453247070312
161, 0, 0, 781.7322387695312
162, 0, 0, 785.0316162109375
163, 0, 0, 775.998779296875
164, 0, 0, 776.5137329101562
165, 0, 0, 779.264404296875
166, 0, 0, 774.7266235351562
167, 0, 0, 773.9061889648438
168, 0, 0, 766.1837158203125
169, 0, 0, 766.1442260742188
170, 0, 0, 762.826416015625
171, 0, 0, 758.9722900390625
172, 0, 0, 760.72216796875
173, 0, 0, 756.280029296875
174, 0, 0, 756.4743041992188
175, 0, 0, 759.4988403320312
176, 0, 0, 754.2508544921875
177, 0, 0, 759.7925415039062
178, 0, 0, 756.9404296875
179, 0, 0, 742.4590454101562
