# TOPAS Version: 3.3.p1
# Parameter File: Test.txt
# Results for scorer MLIC_Scorer
# Scored in component: MLIC
# X in 180 bins of 0.177778 cm
# Y in 1 bin  of 10 cm
# Z in 1 bin  of 10 cm
# EnergyDeposit ( MeV ) : Sum   
0, 0, 0, 0
1, 0, 0, 0
2, 0, 0, 0
3, 0, 0, 0
4, 0, 0, 0
5, 0, 0, 0
6, 0, 0, 0
7, 0, 0, 0
8, 0, 0, 0
9, 0, 0, 0
10, 0, 0, 0
11, 0, 0, 0
12, 0, 0, 0
13, 0, 0, 0
14, 0, 0, 0
15, 0, 0, 0
16, 0, 0, 0
17, 0, 0, 0
18, 0, 0, 0.00293305516242981
19, 0, 0, 0
20, 0, 0, 0
21, 0, 0, 0.02612540312111378
22, 0, 0, 0
23, 0, 0, 0
24, 0, 0, 0
25, 0, 0, 0.001224518986418843
26, 0, 0, 0
27, 0, 0, 0
28, 0, 0, 0
29, 0, 0, 0
30, 0, 0, 0
31, 0, 0, 0
32, 0, 0, 0
33, 0, 0, 0
34, 0, 0, 0
35, 0, 0, 0
36, 0, 0, 0
37, 0, 0, 0
38, 0, 0, 0
39, 0, 0, 0
40, 0, 0, 0
41, 0, 0, 0
42, 0, 0, 7.047933578491211
43, 0, 0, 29.38637351989746
44, 0, 0, 107.2068939208984
45, 0, 0, 438.6653137207031
46, 0, 0, 1122.307373046875
47, 0, 0, 2467.5029296875
48, 0, 0, 3937.0751953125
49, 0, 0, 4755.1953125
50, 0, 0, 5064.125
51, 0, 0, 4750.3486328125
52, 0, 0, 4097.83984375
53, 0, 0, 3619.86865234375
54, 0, 0, 3280.024169921875
55, 0, 0, 2991.065673828125
56, 0, 0, 2789.271240234375
57, 0, 0, 2631.0380859375
58, 0, 0, 2495.48291015625
59, 0, 0, 2381.158447265625
60, 0, 0, 2282.696044921875
61, 0, 0, 2207.787353515625
62, 0, 0, 2135.70849609375
63, 0, 0, 2071.0732421875
64, 0, 0, 2004.833862304688
65, 0, 0, 1950.416748046875
66, 0, 0, 1903.315185546875
67, 0, 0, 1858.387817382812
68, 0, 0, 1812.404052734375
69, 0, 0, 1770.893188476562
70, 0, 0, 1736.90185546875
71, 0, 0, 1703.478515625
72, 0, 0, 1670.331420898438
73, 0, 0, 1639.9560546875
74, 0, 0, 1603.969482421875
75, 0, 0, 1585.226318359375
76, 0, 0, 1565.463012695312
77, 0, 0, 1547.642822265625
78, 0, 0, 1516.6650390625
79, 0, 0, 1497.85986328125
80, 0, 0, 1471.722045898438
81, 0, 0, 1453.943969726562
82, 0, 0, 1442.43359375
83, 0, 0, 1419.459594726562
84, 0, 0, 1402.967163085938
85, 0, 0, 1385.572143554688
86, 0, 0, 1373.301879882812
87, 0, 0, 1351.312377929688
88, 0, 0, 1342.13427734375
89, 0, 0, 1323.15478515625
90, 0, 0, 1318.475219726562
91, 0, 0, 1304.550170898438
92, 0, 0, 1285.177490234375
93, 0, 0, 1269.5048828125
94, 0, 0, 1262.861083984375
95, 0, 0, 1250.109741210938
96, 0, 0, 1241.204833984375
97, 0, 0, 1230.788452148438
98, 0, 0, 1225.249633789062
99, 0, 0, 1209.158569335938
100, 0, 0, 1196.903686523438
101, 0, 0, 1187.204956054688
102, 0, 0, 1185.898559570312
103, 0, 0, 1175.202270507812
104, 0, 0, 1165.124755859375
105, 0, 0, 1157.853271484375
106, 0, 0, 1148.517822265625
107, 0, 0, 1136.529418945312
108, 0, 0, 1124.851440429688
109, 0, 0, 1122.783203125
110, 0, 0, 1115.215942382812
111, 0, 0, 1110.318237304688
112, 0, 0, 1099.602905273438
113, 0, 0, 1090.524169921875
114, 0, 0, 1089.650512695312
115, 0, 0, 1074.03662109375
116, 0, 0, 1073.376098632812
117, 0, 0, 1068.069702148438
118, 0, 0, 1059.393920898438
119, 0, 0, 1054.8154296875
120, 0, 0, 1050.656860351562
121, 0, 0, 1040.01025390625
122, 0, 0, 1039.245361328125
123, 0, 0, 1030.871948242188
124, 0, 0, 1023.470031738281
125, 0, 0, 1015.099853515625
126, 0, 0, 1019.512329101562
127, 0, 0, 1014.785888671875
128, 0, 0, 1005.215393066406
129, 0, 0, 1003.146606445312
130, 0, 0, 989.904052734375
131, 0, 0, 990.6807250976562
132, 0, 0, 994.6871337890625
133, 0, 0, 973.255126953125
134, 0, 0, 975.3750610351562
135, 0, 0, 970.1996459960938
136, 0, 0, 972.0076904296875
137, 0, 0, 973.6858520507812
138, 0, 0, 959.660400390625
139, 0, 0, 959.7766723632812
140, 0, 0, 951.4381103515625
141, 0, 0, 944.0989379882812
142, 0, 0, 943.7467041015625
143, 0, 0, 937.9751586914062
144, 0, 0, 942.2703857421875
145, 0, 0, 939.5987548828125
146, 0, 0, 926.0056762695312
147, 0, 0, 927.59814453125
148, 0, 0, 925.82861328125
149, 0, 0, 921.004638671875
150, 0, 0, 912.4249267578125
151, 0, 0, 916.8314208984375
152, 0, 0, 910.9920654296875
153, 0, 0, 907.4652099609375
154, 0, 0, 904.0079956054688
155, 0, 0, 898.1602172851562
156, 0, 0, 897.3473510742188
157, 0, 0, 891.3907470703125
158, 0, 0, 891.2721557617188
159, 0, 0, 879.363037109375
160, 0, 0, 877.7344970703125
161, 0, 0, 884.928466796875
162, 0, 0, 874.9002685546875
163, 0, 0, 880.3683471679688
164, 0, 0, 868.1259765625
165, 0, 0, 870.2715454101562
166, 0, 0, 865.1400756835938
167, 0, 0, 868.2317504882812
168, 0, 0, 862.2488403320312
169, 0, 0, 852.1318969726562
170, 0, 0, 854.0183715820312
171, 0, 0, 856.9691772460938
172, 0, 0, 844.0421752929688
173, 0, 0, 841.8394165039062
174, 0, 0, 840.3341064453125
175, 0, 0, 839.8908081054688
176, 0, 0, 842.4457397460938
177, 0, 0, 839.8201904296875
178, 0, 0, 834.5841064453125
179, 0, 0, 833.3096313476562
