# TOPAS Version: 3.3.p1
# Parameter File: Test.txt
# Results for scorer MLIC_Scorer
# Scored in component: MLIC
# X in 180 bins of 0.177778 cm
# Y in 1 bin  of 10 cm
# Z in 1 bin  of 10 cm
# EnergyDeposit ( MeV ) : Sum   
0, 0, 0, 0
1, 0, 0, 0
2, 0, 0, 0
3, 0, 0, 0
4, 0, 0, 0
5, 0, 0, 0
6, 0, 0, 0
7, 0, 0, 0
8, 0, 0, 0
9, 0, 0, 0
10, 0, 0, 0
11, 0, 0, 0
12, 0, 0, 0
13, 0, 0, 0
14, 0, 0, 0
15, 0, 0, 0
16, 0, 0, 0
17, 0, 0, 0
18, 0, 0, 0
19, 0, 0, 0
20, 0, 0, 0
21, 0, 0, 0
22, 0, 0, 0
23, 0, 0, 0
24, 0, 0, 0
25, 0, 0, 0
26, 0, 0, 0
27, 0, 0, 0
28, 0, 0, 0
29, 0, 0, 0
30, 0, 0, 0
31, 0, 0, 0
32, 0, 0, 0
33, 0, 0, 0
34, 0, 0, 0
35, 0, 0, 0
36, 0, 0, 0
37, 0, 0, 0
38, 0, 0, 0
39, 0, 0, 0
40, 0, 0, 0
41, 0, 0, 0
42, 0, 0, 0
43, 0, 0, 0
44, 0, 0, 0
45, 0, 0, 0
46, 0, 0, 0
47, 0, 0, 0
48, 0, 0, 0
49, 0, 0, 0
50, 0, 0, 0
51, 0, 0, 0
52, 0, 0, 0
53, 0, 0, 0
54, 0, 0, 0
55, 0, 0, 0.0297646950930357
56, 0, 0, 0
57, 0, 0, 0
58, 0, 0, 0
59, 0, 0, 0
60, 0, 0, 0.0001239846460521221
61, 0, 0, 0
62, 0, 0, 0
63, 0, 0, 0
64, 0, 0, 0
65, 0, 0, 0
66, 0, 0, 0
67, 0, 0, 0
68, 0, 0, 0
69, 0, 0, 0
70, 0, 0, 0
71, 0, 0, 0
72, 0, 0, 0
73, 0, 0, 0
74, 0, 0, 0
75, 0, 0, 0
76, 0, 0, 0
77, 0, 0, 0
78, 0, 0, 0
79, 0, 0, 0
80, 0, 0, 0
81, 0, 0, 0
82, 0, 0, 0
83, 0, 0, 0
84, 0, 0, 0
85, 0, 0, 0
86, 0, 0, 0
87, 0, 0, 0.004781280644237995
88, 0, 0, 0
89, 0, 0, 0
90, 0, 0, 56.63693618774414
91, 0, 0, 377.5963439941406
92, 0, 0, 1048.050537109375
93, 0, 0, 2378.234619140625
94, 0, 0, 3899.51318359375
95, 0, 0, 4691.25244140625
96, 0, 0, 5028.07373046875
97, 0, 0, 4670.67724609375
98, 0, 0, 4205.599609375
99, 0, 0, 3675.216552734375
100, 0, 0, 3283.499267578125
101, 0, 0, 3019.4111328125
102, 0, 0, 2795.784423828125
103, 0, 0, 2645.794677734375
104, 0, 0, 2509.649169921875
105, 0, 0, 2387.355224609375
106, 0, 0, 2299.30810546875
107, 0, 0, 2206.6318359375
108, 0, 0, 2140.836181640625
109, 0, 0, 2072.9697265625
110, 0, 0, 2011.080810546875
111, 0, 0, 1956.496826171875
112, 0, 0, 1910.012573242188
113, 0, 0, 1863.22509765625
114, 0, 0, 1818.698608398438
115, 0, 0, 1777.6416015625
116, 0, 0, 1745.84228515625
117, 0, 0, 1702.581176757812
118, 0, 0, 1673.4765625
119, 0, 0, 1643.742919921875
120, 0, 0, 1607.24853515625
121, 0, 0, 1592.875244140625
122, 0, 0, 1560.544189453125
123, 0, 0, 1544.452514648438
124, 0, 0, 1508.861083984375
125, 0, 0, 1496.688842773438
126, 0, 0, 1479.109375
127, 0, 0, 1453.913452148438
128, 0, 0, 1436.86181640625
129, 0, 0, 1421.825805664062
130, 0, 0, 1400.784912109375
131, 0, 0, 1383.774780273438
132, 0, 0, 1370.341796875
133, 0, 0, 1361.030517578125
134, 0, 0, 1339.800170898438
135, 0, 0, 1326.360229492188
136, 0, 0, 1310.904296875
137, 0, 0, 1305.28759765625
138, 0, 0, 1288.7763671875
139, 0, 0, 1277.633544921875
140, 0, 0, 1259.047119140625
141, 0, 0, 1255.4453125
142, 0, 0, 1248.168090820312
143, 0, 0, 1225.416625976562
144, 0, 0, 1225.16357421875
145, 0, 0, 1215.266723632812
146, 0, 0, 1203.159423828125
147, 0, 0, 1190.667846679688
148, 0, 0, 1187.835571289062
149, 0, 0, 1170.744018554688
150, 0, 0, 1158.36669921875
151, 0, 0, 1147.102416992188
152, 0, 0, 1155.714721679688
153, 0, 0, 1138.061645507812
154, 0, 0, 1129.227905273438
155, 0, 0, 1124.196533203125
156, 0, 0, 1108.119140625
157, 0, 0, 1107.41552734375
158, 0, 0, 1112.083374023438
159, 0, 0, 1097.2529296875
160, 0, 0, 1091.275634765625
161, 0, 0, 1083.845092773438
162, 0, 0, 1073.576293945312
163, 0, 0, 1076.378173828125
164, 0, 0, 1060.824462890625
165, 0, 0, 1063.345703125
166, 0, 0, 1048.388549804688
167, 0, 0, 1046.072387695312
168, 0, 0, 1038.235595703125
169, 0, 0, 1028.372680664062
170, 0, 0, 1023.045837402344
171, 0, 0, 1021.439575195312
172, 0, 0, 1016.943542480469
173, 0, 0, 1018.520812988281
174, 0, 0, 1008.44677734375
175, 0, 0, 1007.066650390625
176, 0, 0, 993.2919311523438
177, 0, 0, 997.7286376953125
178, 0, 0, 984.8509521484375
179, 0, 0, 977.40673828125
