# TOPAS Version: 3.3.p1
# Parameter File: Test.txt
# Results for scorer MLIC_Scorer
# Scored in component: MLIC
# X in 180 bins of 0.177778 cm
# Y in 1 bin  of 10 cm
# Z in 1 bin  of 10 cm
# EnergyDeposit ( MeV ) : Sum   
0, 0, 0, 0
1, 0, 0, 0
2, 0, 0, 0
3, 0, 0, 0
4, 0, 0, 0
5, 0, 0, 0
6, 0, 0, 0
7, 0, 0, 0
8, 0, 0, 0
9, 0, 0, 0
10, 0, 0, 0
11, 0, 0, 0
12, 0, 0, 0
13, 0, 0, 0
14, 0, 0, 0
15, 0, 0, 0
16, 0, 0, 0
17, 0, 0, 0
18, 0, 0, 0
19, 0, 0, 0
20, 0, 0, 0
21, 0, 0, 0
22, 0, 0, 0
23, 0, 0, 0
24, 0, 0, 0
25, 0, 0, 0
26, 0, 0, 0
27, 0, 0, 0
28, 0, 0, 0
29, 0, 0, 0
30, 0, 0, 0
31, 0, 0, 0
32, 0, 0, 0
33, 0, 0, 0
34, 0, 0, 0
35, 0, 0, 0
36, 0, 0, 0
37, 0, 0, 0
38, 0, 0, 0
39, 0, 0, 0
40, 0, 0, 0
41, 0, 0, 0
42, 0, 0, 0
43, 0, 0, 0
44, 0, 0, 29.47413444519043
45, 0, 0, 61.98693084716797
46, 0, 0, 365.7028198242188
47, 0, 0, 1159.9052734375
48, 0, 0, 1970.739868164062
49, 0, 0, 3274.147216796875
50, 0, 0, 3947.23046875
51, 0, 0, 4140.1259765625
52, 0, 0, 3992.714599609375
53, 0, 0, 3508.405029296875
54, 0, 0, 3118.20947265625
55, 0, 0, 2790.787109375
56, 0, 0, 2547.497314453125
57, 0, 0, 2367.921630859375
58, 0, 0, 2237.0224609375
59, 0, 0, 2118.39892578125
60, 0, 0, 2023.051147460938
61, 0, 0, 1941.537963867188
62, 0, 0, 1870.759155273438
63, 0, 0, 1802.556518554688
64, 0, 0, 1746.033081054688
65, 0, 0, 1694.133178710938
66, 0, 0, 1650.2607421875
67, 0, 0, 1615.833129882812
68, 0, 0, 1572.606811523438
69, 0, 0, 1535.198486328125
70, 0, 0, 1505.330444335938
71, 0, 0, 1476.917846679688
72, 0, 0, 1446.7666015625
73, 0, 0, 1421.319458007812
74, 0, 0, 1387.8037109375
75, 0, 0, 1366.677856445312
76, 0, 0, 1345.039184570312
77, 0, 0, 1323.149047851562
78, 0, 0, 1303.88916015625
79, 0, 0, 1285.984008789062
80, 0, 0, 1264.553100585938
81, 0, 0, 1247.43017578125
82, 0, 0, 1229.256469726562
83, 0, 0, 1216.537353515625
84, 0, 0, 1201.554809570312
85, 0, 0, 1185.1240234375
86, 0, 0, 1173.384399414062
87, 0, 0, 1158.969482421875
88, 0, 0, 1144.482543945312
89, 0, 0, 1137.779174804688
90, 0, 0, 1117.53759765625
91, 0, 0, 1109.064453125
92, 0, 0, 1098.303955078125
93, 0, 0, 1093.134033203125
94, 0, 0, 1085.796630859375
95, 0, 0, 1065.806518554688
96, 0, 0, 1058.512084960938
97, 0, 0, 1051.858154296875
98, 0, 0, 1039.963256835938
99, 0, 0, 1031.825561523438
100, 0, 0, 1023.483154296875
101, 0, 0, 1012.356384277344
102, 0, 0, 1004.994323730469
103, 0, 0, 996.0732421875
104, 0, 0, 990.9615478515625
105, 0, 0, 982.523193359375
106, 0, 0, 973.2322387695312
107, 0, 0, 973.2307739257812
108, 0, 0, 968.8031005859375
109, 0, 0, 955.8580932617188
110, 0, 0, 954.3643798828125
111, 0, 0, 941.6140747070312
112, 0, 0, 936.7450561523438
113, 0, 0, 927.3963012695312
114, 0, 0, 925.5407104492188
115, 0, 0, 919.2080688476562
116, 0, 0, 912.1976318359375
117, 0, 0, 903.8883666992188
118, 0, 0, 901.8067016601562
119, 0, 0, 897.482666015625
120, 0, 0, 893.8364868164062
121, 0, 0, 881.696044921875
122, 0, 0, 884.5425415039062
123, 0, 0, 878.482421875
124, 0, 0, 867.6439208984375
125, 0, 0, 868.39306640625
126, 0, 0, 862.8609619140625
127, 0, 0, 858.781982421875
128, 0, 0, 856.6527709960938
129, 0, 0, 856.9126586914062
130, 0, 0, 852.0700073242188
131, 0, 0, 839.6011962890625
132, 0, 0, 837.2132568359375
133, 0, 0, 841.7003173828125
134, 0, 0, 831.2533569335938
135, 0, 0, 837.0790405273438
136, 0, 0, 814.198486328125
137, 0, 0, 821.83203125
138, 0, 0, 810.3734741210938
139, 0, 0, 807.7089233398438
140, 0, 0, 810.9969482421875
141, 0, 0, 800.4912719726562
142, 0, 0, 798.0510864257812
143, 0, 0, 803.8731079101562
144, 0, 0, 794.896240234375
145, 0, 0, 792.7796020507812
146, 0, 0, 792.7728881835938
147, 0, 0, 788.1470947265625
148, 0, 0, 782.9100952148438
149, 0, 0, 780.058837890625
150, 0, 0, 780.0294189453125
151, 0, 0, 779.9006958007812
152, 0, 0, 771.4262084960938
153, 0, 0, 762.6136474609375
154, 0, 0, 760.0073852539062
155, 0, 0, 757.3759155273438
156, 0, 0, 757.9627075195312
157, 0, 0, 752.5311279296875
158, 0, 0, 749.4191284179688
159, 0, 0, 752.9056396484375
160, 0, 0, 749.7840576171875
161, 0, 0, 747.3365478515625
162, 0, 0, 746.0240478515625
163, 0, 0, 736.3690795898438
164, 0, 0, 740.695068359375
165, 0, 0, 732.0751342773438
166, 0, 0, 730.6921997070312
167, 0, 0, 732.30322265625
168, 0, 0, 725.2881469726562
169, 0, 0, 720.9225463867188
170, 0, 0, 724.7866821289062
171, 0, 0, 719.8071899414062
172, 0, 0, 714.9086303710938
173, 0, 0, 717.6445922851562
174, 0, 0, 713.453125
175, 0, 0, 708.7429809570312
176, 0, 0, 705.6770629882812
177, 0, 0, 707.5552978515625
178, 0, 0, 711.8930053710938
179, 0, 0, 705.0908813476562
