# TOPAS Version: 3.3.p1
# Parameter File: Test.txt
# Results for scorer MLIC_Scorer
# Scored in component: MLIC
# X in 180 bins of 0.177778 cm
# Y in 1 bin  of 10 cm
# Z in 1 bin  of 10 cm
# EnergyDeposit ( MeV ) : Sum   
0, 0, 0, 0
1, 0, 0, 0
2, 0, 0, 0
3, 0, 0, 0
4, 0, 0, 0
5, 0, 0, 0
6, 0, 0, 0
7, 0, 0, 0
8, 0, 0, 0
9, 0, 0, 0
10, 0, 0, 0
11, 0, 0, 0
12, 0, 0, 0
13, 0, 0, 0
14, 0, 0, 0
15, 0, 0, 0
16, 0, 0, 0
17, 0, 0, 0
18, 0, 0, 0
19, 0, 0, 0
20, 0, 0, 0
21, 0, 0, 0
22, 0, 0, 0
23, 0, 0, 0
24, 0, 0, 0
25, 0, 0, 0
26, 0, 0, 0
27, 0, 0, 0
28, 0, 0, 0
29, 0, 0, 0
30, 0, 0, 0
31, 0, 0, 0
32, 0, 0, 0
33, 0, 0, 0
34, 0, 0, 0
35, 0, 0, 0
36, 0, 0, 0
37, 0, 0, 0
38, 0, 0, 0
39, 0, 0, 0
40, 0, 0, 0
41, 0, 0, 0
42, 0, 0, 0
43, 0, 0, 0
44, 0, 0, 0
45, 0, 0, 0
46, 0, 0, 0
47, 0, 0, 0
48, 0, 0, 0
49, 0, 0, 0
50, 0, 0, 0
51, 0, 0, 0
52, 0, 0, 0
53, 0, 0, 0
54, 0, 0, 0
55, 0, 0, 0
56, 0, 0, 0
57, 0, 0, 0
58, 0, 0, 0
59, 0, 0, 0
60, 0, 0, 0
61, 0, 0, 0
62, 0, 0, 0
63, 0, 0, 0
64, 0, 0, 0
65, 0, 0, 0.002872368320822716
66, 0, 0, 0
67, 0, 0, 0
68, 0, 0, 0
69, 0, 0, 0
70, 0, 0, 0
71, 0, 0, 0
72, 0, 0, 0
73, 0, 0, 0
74, 0, 0, 0
75, 0, 0, 0
76, 0, 0, 0
77, 0, 0, 0
78, 0, 0, 0
79, 0, 0, 0
80, 0, 0, 0
81, 0, 0, 0
82, 0, 0, 0
83, 0, 0, 0
84, 0, 0, 0
85, 0, 0, 0
86, 0, 0, 0.001222469960339367
87, 0, 0, 0.02019111625850201
88, 0, 0, 0
89, 0, 0, 0.0008671669638715684
90, 0, 0, 11.31760501861572
91, 0, 0, 69.28447723388672
92, 0, 0, 243.5960388183594
93, 0, 0, 776.9207763671875
94, 0, 0, 1898.805541992188
95, 0, 0, 3307.956298828125
96, 0, 0, 4687.39599609375
97, 0, 0, 5102.62646484375
98, 0, 0, 4815.88916015625
99, 0, 0, 4356.4736328125
100, 0, 0, 3809.35546875
101, 0, 0, 3371.099365234375
102, 0, 0, 3075.278076171875
103, 0, 0, 2855.101318359375
104, 0, 0, 2680.658935546875
105, 0, 0, 2545.552001953125
106, 0, 0, 2418.562744140625
107, 0, 0, 2321.117431640625
108, 0, 0, 2236.950439453125
109, 0, 0, 2163.89453125
110, 0, 0, 2090.6181640625
111, 0, 0, 2027.796508789062
112, 0, 0, 1967.941040039062
113, 0, 0, 1922.121704101562
114, 0, 0, 1872.092529296875
115, 0, 0, 1828.086547851562
116, 0, 0, 1792.666625976562
117, 0, 0, 1753.352905273438
118, 0, 0, 1721.293090820312
119, 0, 0, 1689.44775390625
120, 0, 0, 1651.947998046875
121, 0, 0, 1629.183837890625
122, 0, 0, 1596.34423828125
123, 0, 0, 1574.938110351562
124, 0, 0, 1554.778564453125
125, 0, 0, 1520.48193359375
126, 0, 0, 1506.72998046875
127, 0, 0, 1483.935546875
128, 0, 0, 1464.350708007812
129, 0, 0, 1439.490844726562
130, 0, 0, 1427.210571289062
131, 0, 0, 1409.834106445312
132, 0, 0, 1395.0732421875
133, 0, 0, 1377.417358398438
134, 0, 0, 1361.796508789062
135, 0, 0, 1352.021850585938
136, 0, 0, 1329.817993164062
137, 0, 0, 1319.428833007812
138, 0, 0, 1309.659423828125
139, 0, 0, 1295.55908203125
140, 0, 0, 1279.469116210938
141, 0, 0, 1268.625854492188
142, 0, 0, 1253.800170898438
143, 0, 0, 1244.644653320312
144, 0, 0, 1228.22119140625
145, 0, 0, 1228.244384765625
146, 0, 0, 1216.210815429688
147, 0, 0, 1206.81640625
148, 0, 0, 1195.186645507812
149, 0, 0, 1184.65966796875
150, 0, 0, 1170.076416015625
151, 0, 0, 1170.098266601562
152, 0, 0, 1155.896850585938
153, 0, 0, 1152.02392578125
154, 0, 0, 1138.552124023438
155, 0, 0, 1123.957397460938
156, 0, 0, 1121.024291992188
157, 0, 0, 1113.412109375
158, 0, 0, 1112.876098632812
159, 0, 0, 1106.362670898438
160, 0, 0, 1085.035400390625
161, 0, 0, 1092.993896484375
162, 0, 0, 1081.7314453125
163, 0, 0, 1075.020385742188
164, 0, 0, 1074.635864257812
165, 0, 0, 1060.423461914062
166, 0, 0, 1055.981323242188
167, 0, 0, 1054.476196289062
168, 0, 0, 1039.81494140625
169, 0, 0, 1038.835693359375
170, 0, 0, 1036.347412109375
171, 0, 0, 1029.403930664062
172, 0, 0, 1031.511596679688
173, 0, 0, 1017.942443847656
174, 0, 0, 1015.593933105469
175, 0, 0, 1013.293029785156
176, 0, 0, 1006.04296875
177, 0, 0, 999.54443359375
178, 0, 0, 995.8687133789062
179, 0, 0, 992.5514526367188
