# TOPAS Version: 3.3.p1
# Parameter File: Test.txt
# Results for scorer MLIC_Scorer
# Scored in component: MLIC
# X in 180 bins of 0.177778 cm
# Y in 1 bin  of 10 cm
# Z in 1 bin  of 10 cm
# EnergyDeposit ( MeV ) : Sum   
0, 0, 0, 0
1, 0, 0, 0
2, 0, 0, 0
3, 0, 0, 0
4, 0, 0, 0
5, 0, 0, 0
6, 0, 0, 0
7, 0, 0, 0
8, 0, 0, 0
9, 0, 0, 0
10, 0, 0, 0
11, 0, 0, 0
12, 0, 0, 0
13, 0, 0, 0
14, 0, 0, 0
15, 0, 0, 0
16, 0, 0, 0
17, 0, 0, 0
18, 0, 0, 0
19, 0, 0, 0
20, 0, 0, 0
21, 0, 0, 0
22, 0, 0, 0
23, 0, 0, 0
24, 0, 0, 0
25, 0, 0, 0
26, 0, 0, 0
27, 0, 0, 0
28, 0, 0, 0
29, 0, 0, 0
30, 0, 0, 0.03738224878907204
31, 0, 0, 0
32, 0, 0, 0
33, 0, 0, 0
34, 0, 0, 0
35, 0, 0, 17.81284141540527
36, 0, 0, 46.59706115722656
37, 0, 0, 196.5861358642578
38, 0, 0, 879.035888671875
39, 0, 0, 1533.286010742188
40, 0, 0, 3220.203857421875
41, 0, 0, 4735.36865234375
42, 0, 0, 4959.52197265625
43, 0, 0, 4902.25830078125
44, 0, 0, 4374.0712890625
45, 0, 0, 3840.209228515625
46, 0, 0, 3404.184814453125
47, 0, 0, 3127.55810546875
48, 0, 0, 2875.2001953125
49, 0, 0, 2703.00439453125
50, 0, 0, 2558.751953125
51, 0, 0, 2432.27978515625
52, 0, 0, 2336.3740234375
53, 0, 0, 2255.26708984375
54, 0, 0, 2160.6171875
55, 0, 0, 2098.789306640625
56, 0, 0, 2039.503051757812
57, 0, 0, 1977.110107421875
58, 0, 0, 1923.438354492188
59, 0, 0, 1879.216796875
60, 0, 0, 1831.899169921875
61, 0, 0, 1791.659790039062
62, 0, 0, 1755.312133789062
63, 0, 0, 1719.5556640625
64, 0, 0, 1686.132934570312
65, 0, 0, 1657.78515625
66, 0, 0, 1630.35400390625
67, 0, 0, 1592.992309570312
68, 0, 0, 1574.168701171875
69, 0, 0, 1558.429443359375
70, 0, 0, 1532.405517578125
71, 0, 0, 1501.520629882812
72, 0, 0, 1488.011840820312
73, 0, 0, 1464.742431640625
74, 0, 0, 1453.626342773438
75, 0, 0, 1427.511108398438
76, 0, 0, 1403.630249023438
77, 0, 0, 1397.263427734375
78, 0, 0, 1380.467895507812
79, 0, 0, 1366.052490234375
80, 0, 0, 1351.810913085938
81, 0, 0, 1335.582397460938
82, 0, 0, 1321.396850585938
83, 0, 0, 1305.53857421875
84, 0, 0, 1293.0791015625
85, 0, 0, 1274.29150390625
86, 0, 0, 1272.708862304688
87, 0, 0, 1253.767211914062
88, 0, 0, 1252.359497070312
89, 0, 0, 1232.212036132812
90, 0, 0, 1217.952026367188
91, 0, 0, 1216.170654296875
92, 0, 0, 1203.753295898438
93, 0, 0, 1195.083862304688
94, 0, 0, 1182.507202148438
95, 0, 0, 1177.143188476562
96, 0, 0, 1167.772583007812
97, 0, 0, 1167.029907226562
98, 0, 0, 1154.58740234375
99, 0, 0, 1141.886596679688
100, 0, 0, 1129.919067382812
101, 0, 0, 1130.515991210938
102, 0, 0, 1123.682983398438
103, 0, 0, 1108.375
104, 0, 0, 1111.849365234375
105, 0, 0, 1095.331909179688
106, 0, 0, 1094.155639648438
107, 0, 0, 1094.1572265625
108, 0, 0, 1073.9111328125
109, 0, 0, 1071.020385742188
110, 0, 0, 1068.798217773438
111, 0, 0, 1055.080078125
112, 0, 0, 1056.16748046875
113, 0, 0, 1045.636108398438
114, 0, 0, 1044.305541992188
115, 0, 0, 1032.765502929688
116, 0, 0, 1038.972778320312
117, 0, 0, 1023.164184570312
118, 0, 0, 1025.078735351562
119, 0, 0, 1022.968139648438
120, 0, 0, 1004.658996582031
121, 0, 0, 1004.123718261719
122, 0, 0, 995.0156860351562
123, 0, 0, 994.4660034179688
124, 0, 0, 990.2108154296875
125, 0, 0, 979.4321899414062
126, 0, 0, 982.0087280273438
127, 0, 0, 979.155029296875
128, 0, 0, 970.9336547851562
129, 0, 0, 972.93310546875
130, 0, 0, 967.2185668945312
131, 0, 0, 958.1151123046875
132, 0, 0, 956.3552856445312
133, 0, 0, 957.2364501953125
134, 0, 0, 948.7770385742188
135, 0, 0, 945.8441772460938
136, 0, 0, 937.1204833984375
137, 0, 0, 927.75146484375
138, 0, 0, 930.908935546875
139, 0, 0, 925.9774169921875
140, 0, 0, 929.8768920898438
141, 0, 0, 922.0741577148438
142, 0, 0, 919.8641357421875
143, 0, 0, 916.0985107421875
144, 0, 0, 906.3407592773438
145, 0, 0, 903.2840576171875
146, 0, 0, 906.5651245117188
147, 0, 0, 892.325927734375
148, 0, 0, 892.2095947265625
149, 0, 0, 886.7241821289062
150, 0, 0, 882.9730224609375
151, 0, 0, 883.9071655273438
152, 0, 0, 878.5525512695312
153, 0, 0, 880.227294921875
154, 0, 0, 886.5949096679688
155, 0, 0, 881.6693725585938
156, 0, 0, 880.8405151367188
157, 0, 0, 870.146728515625
158, 0, 0, 866.0418090820312
159, 0, 0, 857.6124877929688
160, 0, 0, 866.4166870117188
161, 0, 0, 867.8726196289062
162, 0, 0, 849.4176635742188
163, 0, 0, 848.0005493164062
164, 0, 0, 845.9121704101562
165, 0, 0, 852.2660522460938
166, 0, 0, 847.7301635742188
167, 0, 0, 840.96484375
168, 0, 0, 838.5371704101562
169, 0, 0, 839.2089233398438
170, 0, 0, 830.5518798828125
171, 0, 0, 828.210205078125
172, 0, 0, 828.2249755859375
173, 0, 0, 819.0108032226562
174, 0, 0, 826.9242553710938
175, 0, 0, 817.2249145507812
176, 0, 0, 811.8019409179688
177, 0, 0, 815.9783935546875
178, 0, 0, 802.7650146484375
179, 0, 0, 816.4166870117188
