# TOPAS Version: 3.3.p1
# Parameter File: Test.txt
# Results for scorer MLIC_Scorer
# Scored in component: MLIC
# X in 180 bins of 0.177778 cm
# Y in 1 bin  of 10 cm
# Z in 1 bin  of 10 cm
# EnergyDeposit ( MeV ) : Sum   
0, 0, 0, 0
1, 0, 0, 0
2, 0, 0, 0
3, 0, 0, 0
4, 0, 0, 0
5, 0, 0, 0
6, 0, 0, 0
7, 0, 0, 0
8, 0, 0, 0
9, 0, 0, 0
10, 0, 0, 0
11, 0, 0, 0
12, 0, 0, 0
13, 0, 0, 0
14, 0, 0, 0
15, 0, 0, 0
16, 0, 0, 0
17, 0, 0, 0
18, 0, 0, 0
19, 0, 0, 0
20, 0, 0, 0
21, 0, 0, 0
22, 0, 0, 0
23, 0, 0, 0
24, 0, 0, 0
25, 0, 0, 0
26, 0, 0, 0
27, 0, 0, 0
28, 0, 0, 0
29, 0, 0, 0
30, 0, 0, 0
31, 0, 0, 0
32, 0, 0, 0
33, 0, 0, 0
34, 0, 0, 0
35, 0, 0, 0
36, 0, 0, 0
37, 0, 0, 0
38, 0, 0, 0
39, 0, 0, 0
40, 0, 0, 0
41, 0, 0, 0
42, 0, 0, 0
43, 0, 0, 0
44, 0, 0, 0
45, 0, 0, 0
46, 0, 0, 0
47, 0, 0, 0
48, 0, 0, 0
49, 0, 0, 0
50, 0, 0, 0.04039017111063004
51, 0, 0, 0
52, 0, 0, 0
53, 0, 0, 0
54, 0, 0, 0
55, 0, 0, 0
56, 0, 0, 0
57, 0, 0, 0
58, 0, 0, 0
59, 0, 0, 0
60, 0, 0, 0
61, 0, 0, 0
62, 0, 0, 0
63, 0, 0, 0
64, 0, 0, 0
65, 0, 0, 0
66, 0, 0, 0
67, 0, 0, 0
68, 0, 0, 0
69, 0, 0, 0
70, 0, 0, 0
71, 0, 0, 0
72, 0, 0, 0
73, 0, 0, 0.007604026235640049
74, 0, 0, 0
75, 0, 0, 0
76, 0, 0, 0
77, 0, 0, 0.04357609525322914
78, 0, 0, 0
79, 0, 0, 0.001618701149709523
80, 0, 0, 0
81, 0, 0, 0
82, 0, 0, 0
83, 0, 0, 0
84, 0, 0, 0
85, 0, 0, 0
86, 0, 0, 0
87, 0, 0, 0
88, 0, 0, 0
89, 0, 0, 0
90, 0, 0, 0.0073487120680511
91, 0, 0, 0
92, 0, 0, 0
93, 0, 0, 0
94, 0, 0, 0
95, 0, 0, 0
96, 0, 0, 0
97, 0, 0, 0
98, 0, 0, 0
99, 0, 0, 19.56042861938477
100, 0, 0, 77.34215545654297
101, 0, 0, 370.6740417480469
102, 0, 0, 926.269287109375
103, 0, 0, 2118.127197265625
104, 0, 0, 3797.296875
105, 0, 0, 4748.48486328125
106, 0, 0, 4997.77783203125
107, 0, 0, 4835.77880859375
108, 0, 0, 4276.97119140625
109, 0, 0, 3683.063720703125
110, 0, 0, 3299.16748046875
111, 0, 0, 3014.134521484375
112, 0, 0, 2821.5517578125
113, 0, 0, 2651.232421875
114, 0, 0, 2513.753173828125
115, 0, 0, 2405.309326171875
116, 0, 0, 2308.46728515625
117, 0, 0, 2220.80078125
118, 0, 0, 2138.171630859375
119, 0, 0, 2075.20458984375
120, 0, 0, 2017.137817382812
121, 0, 0, 1959.562133789062
122, 0, 0, 1911.811889648438
123, 0, 0, 1869.008666992188
124, 0, 0, 1827.263916015625
125, 0, 0, 1786.08154296875
126, 0, 0, 1743.4716796875
127, 0, 0, 1712.93017578125
128, 0, 0, 1680.2841796875
129, 0, 0, 1646.717895507812
130, 0, 0, 1620.958740234375
131, 0, 0, 1591.289428710938
132, 0, 0, 1565.3310546875
133, 0, 0, 1543.424194335938
134, 0, 0, 1522.196411132812
135, 0, 0, 1496.188354492188
136, 0, 0, 1478.088012695312
137, 0, 0, 1462.576171875
138, 0, 0, 1442.29443359375
139, 0, 0, 1427.836059570312
140, 0, 0, 1412.368774414062
141, 0, 0, 1392.50830078125
142, 0, 0, 1370.59423828125
143, 0, 0, 1356.244262695312
144, 0, 0, 1342.558959960938
145, 0, 0, 1328.552368164062
146, 0, 0, 1312.309326171875
147, 0, 0, 1290.857421875
148, 0, 0, 1294.037475585938
149, 0, 0, 1276.186767578125
150, 0, 0, 1264.262084960938
151, 0, 0, 1257.728393554688
152, 0, 0, 1243.07958984375
153, 0, 0, 1238.12255859375
154, 0, 0, 1223.682006835938
155, 0, 0, 1213.609008789062
156, 0, 0, 1205.281616210938
157, 0, 0, 1185.852783203125
158, 0, 0, 1185.082397460938
159, 0, 0, 1168.721923828125
160, 0, 0, 1163.401611328125
161, 0, 0, 1154.972900390625
162, 0, 0, 1142.734985351562
163, 0, 0, 1138.650756835938
164, 0, 0, 1128.0234375
165, 0, 0, 1133.036743164062
166, 0, 0, 1115.723754882812
167, 0, 0, 1112.46533203125
168, 0, 0, 1105.070922851562
169, 0, 0, 1094.725219726562
170, 0, 0, 1090.662841796875
171, 0, 0, 1072.879150390625
172, 0, 0, 1078.788452148438
173, 0, 0, 1067.522827148438
174, 0, 0, 1064.557373046875
175, 0, 0, 1054.14794921875
176, 0, 0, 1045.39208984375
177, 0, 0, 1036.651000976562
178, 0, 0, 1039.189331054688
179, 0, 0, 1034.853393554688
