# TOPAS Version: 3.3.p1
# Parameter File: Test.txt
# Results for scorer MLIC_Scorer
# Scored in component: MLIC
# X in 180 bins of 0.183333 cm
# Y in 1 bin  of 10 cm
# Z in 1 bin  of 10 cm
# EnergyDeposit ( MeV ) : Sum   
0, 0, 0, 0.002617060905322433
1, 0, 0, 0.02558994479477406
2, 0, 0, 0
3, 0, 0, 0.05581887066364288
4, 0, 0, 0
5, 0, 0, 0
6, 0, 0, 0
7, 0, 0, 8.515693664550781
8, 0, 0, 30.26935005187988
9, 0, 0, 185.1370086669922
10, 0, 0, 505.6651306152344
11, 0, 0, 1229.1650390625
12, 0, 0, 2575.874755859375
13, 0, 0, 4065.15478515625
14, 0, 0, 5013.80908203125
15, 0, 0, 5231.759765625
16, 0, 0, 4767.21435546875
17, 0, 0, 4100.8466796875
18, 0, 0, 3618.227783203125
19, 0, 0, 3277.320068359375
20, 0, 0, 3012.818603515625
21, 0, 0, 2818.412353515625
22, 0, 0, 2659.221435546875
23, 0, 0, 2522.098876953125
24, 0, 0, 2413.35400390625
25, 0, 0, 2324.9013671875
26, 0, 0, 2235.73583984375
27, 0, 0, 2167.30712890625
28, 0, 0, 2091.646728515625
29, 0, 0, 2031.117309570312
30, 0, 0, 1982.148681640625
31, 0, 0, 1934.599975585938
32, 0, 0, 1883.084716796875
33, 0, 0, 1839.098022460938
34, 0, 0, 1803.952392578125
35, 0, 0, 1765.781127929688
36, 0, 0, 1735.065063476562
37, 0, 0, 1706.971435546875
38, 0, 0, 1673.176025390625
39, 0, 0, 1639.615966796875
40, 0, 0, 1612.234741210938
41, 0, 0, 1584.368530273438
42, 0, 0, 1565.197509765625
43, 0, 0, 1542.271118164062
44, 0, 0, 1521.216186523438
45, 0, 0, 1500.566528320312
46, 0, 0, 1483.921020507812
47, 0, 0, 1463.422607421875
48, 0, 0, 1438.0419921875
49, 0, 0, 1426.885009765625
50, 0, 0, 1405.319458007812
51, 0, 0, 1393.39501953125
52, 0, 0, 1380.572265625
53, 0, 0, 1359.739135742188
54, 0, 0, 1353.185302734375
55, 0, 0, 1343.00830078125
56, 0, 0, 1326.478759765625
57, 0, 0, 1309.368530273438
58, 0, 0, 1298.597534179688
59, 0, 0, 1285.756103515625
60, 0, 0, 1276.641235351562
61, 0, 0, 1261.770263671875
62, 0, 0, 1253.295654296875
63, 0, 0, 1241.8623046875
64, 0, 0, 1224.376098632812
65, 0, 0, 1224.8837890625
66, 0, 0, 1215.392333984375
67, 0, 0, 1194.576416015625
68, 0, 0, 1193.502563476562
69, 0, 0, 1184.530395507812
70, 0, 0, 1179.187866210938
71, 0, 0, 1166.928466796875
72, 0, 0, 1159.275390625
73, 0, 0, 1146.237426757812
74, 0, 0, 1148.140502929688
75, 0, 0, 1135.241943359375
76, 0, 0, 1127.661499023438
77, 0, 0, 1126.236083984375
78, 0, 0, 1111.082397460938
79, 0, 0, 1115.531860351562
80, 0, 0, 1089.5693359375
81, 0, 0, 1100.83154296875
82, 0, 0, 1082.565795898438
83, 0, 0, 1086.376831054688
84, 0, 0, 1067.481323242188
85, 0, 0, 1067.64013671875
86, 0, 0, 1062.558471679688
87, 0, 0, 1049.32861328125
88, 0, 0, 1056.980590820312
89, 0, 0, 1047.067626953125
90, 0, 0, 1031.9248046875
91, 0, 0, 1038.0283203125
92, 0, 0, 1025.075439453125
93, 0, 0, 1027.20458984375
94, 0, 0, 1015.520324707031
95, 0, 0, 1025.3212890625
96, 0, 0, 1008.902770996094
97, 0, 0, 998.4867553710938
98, 0, 0, 997.5428466796875
99, 0, 0, 998.9142456054688
100, 0, 0, 990.2220458984375
101, 0, 0, 980.1200561523438
102, 0, 0, 981.274658203125
103, 0, 0, 974.1920166015625
104, 0, 0, 972.3978881835938
105, 0, 0, 968.0610961914062
106, 0, 0, 965.197265625
107, 0, 0, 961.5339965820312
108, 0, 0, 958.5454711914062
109, 0, 0, 951.76904296875
110, 0, 0, 949.9996337890625
111, 0, 0, 943.1031494140625
112, 0, 0, 935.8240356445312
113, 0, 0, 938.7477416992188
114, 0, 0, 934.0897216796875
115, 0, 0, 930.512939453125
116, 0, 0, 928.3046264648438
117, 0, 0, 929.5364990234375
118, 0, 0, 916.8500366210938
119, 0, 0, 918.8778686523438
120, 0, 0, 911.52783203125
121, 0, 0, 904.3845825195312
122, 0, 0, 901.3058471679688
123, 0, 0, 899.19970703125
124, 0, 0, 897.6870727539062
125, 0, 0, 893.6051025390625
126, 0, 0, 893.7715454101562
127, 0, 0, 891.6632690429688
128, 0, 0, 884.1702880859375
129, 0, 0, 884.1502685546875
130, 0, 0, 883.8414306640625
131, 0, 0, 887.6329345703125
132, 0, 0, 874.027099609375
133, 0, 0, 878.2572631835938
134, 0, 0, 881.5199584960938
135, 0, 0, 863.3961791992188
136, 0, 0, 869.9243774414062
137, 0, 0, 859.4421997070312
138, 0, 0, 863.2183227539062
139, 0, 0, 851.9232788085938
140, 0, 0, 854.8876953125
141, 0, 0, 849.6388549804688
142, 0, 0, 849.947998046875
143, 0, 0, 852.688232421875
144, 0, 0, 846.0032958984375
145, 0, 0, 845.6118774414062
146, 0, 0, 838.8328247070312
147, 0, 0, 834.7222290039062
148, 0, 0, 832.0218505859375
149, 0, 0, 829.7192993164062
150, 0, 0, 831.3112182617188
151, 0, 0, 822.6349487304688
152, 0, 0, 826.5924682617188
153, 0, 0, 827.8197631835938
154, 0, 0, 820.6160278320312
155, 0, 0, 822.3152465820312
156, 0, 0, 813.259765625
157, 0, 0, 810.5615234375
158, 0, 0, 809.4879150390625
159, 0, 0, 807.4580688476562
160, 0, 0, 817.0552978515625
161, 0, 0, 810.1987915039062
162, 0, 0, 801.8685913085938
163, 0, 0, 799.3096923828125
164, 0, 0, 795.5785522460938
165, 0, 0, 793.970458984375
166, 0, 0, 801.6788330078125
167, 0, 0, 783.4061889648438
168, 0, 0, 793.637939453125
169, 0, 0, 788.4553833007812
170, 0, 0, 792.2393188476562
171, 0, 0, 786.1776123046875
172, 0, 0, 791.0885620117188
173, 0, 0, 787.646240234375
174, 0, 0, 781.1253051757812
175, 0, 0, 779.2211303710938
176, 0, 0, 776.9467163085938
177, 0, 0, 773.3416748046875
178, 0, 0, 779.2185668945312
179, 0, 0, 777.2609252929688
