# TOPAS Version: 3.3.p1
# Parameter File: Test.txt
# Results for scorer MLIC_Scorer
# Scored in component: MLIC
# X in 180 bins of 0.183333 cm
# Y in 1 bin  of 10 cm
# Z in 1 bin  of 10 cm
# EnergyDeposit ( MeV ) : Sum   
0, 0, 0, 0
1, 0, 0, 0
2, 0, 0, 0
3, 0, 0, 0
4, 0, 0, 0
5, 0, 0, 0
6, 0, 0, 0
7, 0, 0, 0
8, 0, 0, 0
9, 0, 0, 0
10, 0, 0, 0
11, 0, 0, 0
12, 0, 0, 0
13, 0, 0, 0
14, 0, 0, 0
15, 0, 0, 0
16, 0, 0, 0
17, 0, 0, 0
18, 0, 0, 0
19, 0, 0, 0
20, 0, 0, 0
21, 0, 0, 0
22, 0, 0, 0
23, 0, 0, 0
24, 0, 0, 0
25, 0, 0, 0
26, 0, 0, 0
27, 0, 0, 0
28, 0, 0, 0
29, 0, 0, 0
30, 0, 0, 0
31, 0, 0, 0
32, 0, 0, 0
33, 0, 0, 0
34, 0, 0, 0
35, 0, 0, 0
36, 0, 0, 0
37, 0, 0, 0
38, 0, 0, 0
39, 0, 0, 0
40, 0, 0, 0
41, 0, 0, 0
42, 0, 0, 0
43, 0, 0, 0
44, 0, 0, 0
45, 0, 0, 0
46, 0, 0, 0
47, 0, 0, 0
48, 0, 0, 0
49, 0, 0, 0
50, 0, 0, 0
51, 0, 0, 0
52, 0, 0, 0
53, 0, 0, 0
54, 0, 0, 0
55, 0, 0, 0
56, 0, 0, 0
57, 0, 0, 0
58, 0, 0, 0
59, 0, 0, 0
60, 0, 0, 0
61, 0, 0, 0
62, 0, 0, 0
63, 0, 0, 0
64, 0, 0, 0
65, 0, 0, 0
66, 0, 0, 0.02728279866278172
67, 0, 0, 0
68, 0, 0, 0
69, 0, 0, 0
70, 0, 0, 0
71, 0, 0, 0
72, 0, 0, 0
73, 0, 0, 0
74, 0, 0, 0
75, 0, 0, 0
76, 0, 0, 0
77, 0, 0, 0
78, 0, 0, 0
79, 0, 0, 0
80, 0, 0, 0
81, 0, 0, 0
82, 0, 0, 0
83, 0, 0, 0
84, 0, 0, 0
85, 0, 0, 0
86, 0, 0, 0
87, 0, 0, 0
88, 0, 0, 0
89, 0, 0, 0
90, 0, 0, 0
91, 0, 0, 14.14495849609375
92, 0, 0, 144.4887542724609
93, 0, 0, 440.6494750976562
94, 0, 0, 1167.1826171875
95, 0, 0, 2604.499267578125
96, 0, 0, 3942.87109375
97, 0, 0, 5149.95458984375
98, 0, 0, 5170.26025390625
99, 0, 0, 4687.32421875
100, 0, 0, 4159.998046875
101, 0, 0, 3657.119384765625
102, 0, 0, 3287.906494140625
103, 0, 0, 3030.477783203125
104, 0, 0, 2824.822509765625
105, 0, 0, 2662.82421875
106, 0, 0, 2525.45751953125
107, 0, 0, 2417.35888671875
108, 0, 0, 2324.313232421875
109, 0, 0, 2241.480224609375
110, 0, 0, 2158.011962890625
111, 0, 0, 2101.998779296875
112, 0, 0, 2038.905395507812
113, 0, 0, 1983.16552734375
114, 0, 0, 1927.39453125
115, 0, 0, 1894.7265625
116, 0, 0, 1844.64013671875
117, 0, 0, 1799.401245117188
118, 0, 0, 1778.930908203125
119, 0, 0, 1736.664428710938
120, 0, 0, 1705.56396484375
121, 0, 0, 1666.441162109375
122, 0, 0, 1637.690063476562
123, 0, 0, 1618.783081054688
124, 0, 0, 1585.8125
125, 0, 0, 1567.598266601562
126, 0, 0, 1542.052734375
127, 0, 0, 1524.205810546875
128, 0, 0, 1501.128173828125
129, 0, 0, 1477.21826171875
130, 0, 0, 1465.294677734375
131, 0, 0, 1442.337524414062
132, 0, 0, 1431.911743164062
133, 0, 0, 1408.605712890625
134, 0, 0, 1394.313720703125
135, 0, 0, 1377.648193359375
136, 0, 0, 1373.392822265625
137, 0, 0, 1348.793090820312
138, 0, 0, 1346.668579101562
139, 0, 0, 1319.377319335938
140, 0, 0, 1310.500854492188
141, 0, 0, 1298.90283203125
142, 0, 0, 1290.819580078125
143, 0, 0, 1270.513061523438
144, 0, 0, 1269.510375976562
145, 0, 0, 1254.643798828125
146, 0, 0, 1238.93896484375
147, 0, 0, 1226.156860351562
148, 0, 0, 1220.567260742188
149, 0, 0, 1203.299194335938
150, 0, 0, 1204.72021484375
151, 0, 0, 1193.3525390625
152, 0, 0, 1189.3203125
153, 0, 0, 1175.222534179688
154, 0, 0, 1167.5966796875
155, 0, 0, 1166.060668945312
156, 0, 0, 1157.769897460938
157, 0, 0, 1138.009521484375
158, 0, 0, 1129.0986328125
159, 0, 0, 1134.05126953125
160, 0, 0, 1124.9736328125
161, 0, 0, 1116.304321289062
162, 0, 0, 1103.166748046875
163, 0, 0, 1102.822998046875
164, 0, 0, 1092.91650390625
165, 0, 0, 1089.576416015625
166, 0, 0, 1075.72509765625
167, 0, 0, 1072.007446289062
168, 0, 0, 1069.240356445312
169, 0, 0, 1063.111206054688
170, 0, 0, 1055.952758789062
171, 0, 0, 1059.152465820312
172, 0, 0, 1046.771484375
173, 0, 0, 1036.336669921875
174, 0, 0, 1028.619873046875
175, 0, 0, 1028.522338867188
176, 0, 0, 1023.965209960938
177, 0, 0, 1014.458251953125
178, 0, 0, 1010.174499511719
179, 0, 0, 1012.056640625
