# TOPAS Version: 3.3.p1
# Parameter File: Test.txt
# Results for scorer MLIC_Scorer
# Scored in component: MLIC
# X in 180 bins of 0.183333 cm
# Y in 1 bin  of 10 cm
# Z in 1 bin  of 10 cm
# EnergyDeposit ( MeV ) : Sum   
0, 0, 0, 0
1, 0, 0, 0
2, 0, 0, 0
3, 0, 0, 0
4, 0, 0, 0
5, 0, 0, 0
6, 0, 0, 0
7, 0, 0, 0
8, 0, 0, 0
9, 0, 0, 0
10, 0, 0, 0
11, 0, 0, 0
12, 0, 0, 0
13, 0, 0, 0
14, 0, 0, 0
15, 0, 0, 0
16, 0, 0, 0
17, 0, 0, 0
18, 0, 0, 0
19, 0, 0, 0
20, 0, 0, 0
21, 0, 0, 0
22, 0, 0, 0
23, 0, 0, 0
24, 0, 0, 0
25, 0, 0, 0
26, 0, 0, 0
27, 0, 0, 0
28, 0, 0, 0
29, 0, 0, 0
30, 0, 0, 0
31, 0, 0, 0
32, 0, 0, 0
33, 0, 0, 0
34, 0, 0, 0
35, 0, 0, 0
36, 0, 0, 0
37, 0, 0, 0
38, 0, 0, 0
39, 0, 0, 0
40, 0, 0, 0
41, 0, 0, 0
42, 0, 0, 0
43, 0, 0, 0
44, 0, 0, 0
45, 0, 0, 0
46, 0, 0, 0
47, 0, 0, 0
48, 0, 0, 0
49, 0, 0, 0
50, 0, 0, 0
51, 0, 0, 0
52, 0, 0, 0
53, 0, 0, 0
54, 0, 0, 0
55, 0, 0, 0
56, 0, 0, 0
57, 0, 0, 0
58, 0, 0, 0
59, 0, 0, 0
60, 0, 0, 0
61, 0, 0, 0
62, 0, 0, 0
63, 0, 0, 0
64, 0, 0, 0
65, 0, 0, 0
66, 0, 0, 0
67, 0, 0, 0
68, 0, 0, 0
69, 0, 0, 0
70, 0, 0, 0
71, 0, 0, 0
72, 0, 0, 0
73, 0, 0, 0
74, 0, 0, 0
75, 0, 0, 0
76, 0, 0, 0
77, 0, 0, 0
78, 0, 0, 0
79, 0, 0, 0
80, 0, 0, 0
81, 0, 0, 0
82, 0, 0, 0
83, 0, 0, 0
84, 0, 0, 0
85, 0, 0, 0
86, 0, 0, 0
87, 0, 0, 0
88, 0, 0, 0
89, 0, 0, 0
90, 0, 0, 0
91, 0, 0, 0
92, 0, 0, 0
93, 0, 0, 0
94, 0, 0, 0
95, 0, 0, 0
96, 0, 0, 0
97, 0, 0, 0
98, 0, 0, 0
99, 0, 0, 0
100, 0, 0, 0
101, 0, 0, 0
102, 0, 0, 0
103, 0, 0, 0
104, 0, 0, 0
105, 0, 0, 0
106, 0, 0, 0
107, 0, 0, 0
108, 0, 0, 0
109, 0, 0, 0
110, 0, 0, 0
111, 0, 0, 0
112, 0, 0, 0
113, 0, 0, 0
114, 0, 0, 0
115, 0, 0, 0
116, 0, 0, 0
117, 0, 0, 0
118, 0, 0, 0
119, 0, 0, 0
120, 0, 0, 0
121, 0, 0, 0
122, 0, 0, 0
123, 0, 0, 0
124, 0, 0, 0
125, 0, 0, 0
126, 0, 0, 0
127, 0, 0, 0
128, 0, 0, 0
129, 0, 0, 0
130, 0, 0, 0
131, 0, 0, 0
132, 0, 0, 0
133, 0, 0, 22.20567893981934
134, 0, 0, 45.9677619934082
135, 0, 0, 201.6425170898438
136, 0, 0, 770.3186645507812
137, 0, 0, 1853.214721679688
138, 0, 0, 3145.630615234375
139, 0, 0, 4474.13671875
140, 0, 0, 5286.833984375
141, 0, 0, 5001.96337890625
142, 0, 0, 4492.14404296875
143, 0, 0, 3902.298583984375
144, 0, 0, 3469.966552734375
145, 0, 0, 3167.44482421875
146, 0, 0, 2927.246826171875
147, 0, 0, 2751.14697265625
148, 0, 0, 2603.853271484375
149, 0, 0, 2480.131591796875
150, 0, 0, 2373.2578125
151, 0, 0, 2282.996826171875
152, 0, 0, 2207.47998046875
153, 0, 0, 2139.421630859375
154, 0, 0, 2071.559814453125
155, 0, 0, 2008.5244140625
156, 0, 0, 1963.949340820312
157, 0, 0, 1911.339599609375
158, 0, 0, 1869.714233398438
159, 0, 0, 1826.287475585938
160, 0, 0, 1796.629516601562
161, 0, 0, 1750.999267578125
162, 0, 0, 1731.12890625
163, 0, 0, 1690.437866210938
164, 0, 0, 1655.942749023438
165, 0, 0, 1631.39990234375
166, 0, 0, 1605.319091796875
167, 0, 0, 1571.672119140625
168, 0, 0, 1556.6064453125
169, 0, 0, 1533.659057617188
170, 0, 0, 1511.305297851562
171, 0, 0, 1486.224975585938
172, 0, 0, 1472.606811523438
173, 0, 0, 1459.952392578125
174, 0, 0, 1440.905151367188
175, 0, 0, 1418.248291015625
176, 0, 0, 1405.035522460938
177, 0, 0, 1383.965209960938
178, 0, 0, 1377.975952148438
179, 0, 0, 1362.973999023438
