# TOPAS Version: 3.3.p1
# Parameter File: Test.txt
# Results for scorer MLIC_Scorer
# Scored in component: MLIC
# X in 165 bins of 0.2 cm
# Y in 1 bin  of 10 cm
# Z in 1 bin  of 10 cm
# EnergyDeposit ( MeV ) : Sum   
0, 0, 0, 0
1, 0, 0, 0
2, 0, 0, 0
3, 0, 0, 0
4, 0, 0, 0
5, 0, 0, 0
6, 0, 0, 0
7, 0, 0, 0
8, 0, 0, 0
9, 0, 0, 0
10, 0, 0, 0
11, 0, 0, 0
12, 0, 0, 0
13, 0, 0, 0
14, 0, 0, 0
15, 0, 0, 0
16, 0, 0, 0
17, 0, 0, 0
18, 0, 0, 0
19, 0, 0, 0
20, 0, 0, 0
21, 0, 0, 0
22, 0, 0, 0
23, 0, 0, 0
24, 0, 0, 0
25, 0, 0, 0
26, 0, 0, 0
27, 0, 0, 0
28, 0, 0, 0
29, 0, 0, 0
30, 0, 0, 0
31, 0, 0, 0
32, 0, 0, 0
33, 0, 0, 0
34, 0, 0, 0
35, 0, 0, 0
36, 0, 0, 0
37, 0, 0, 0
38, 0, 0, 0
39, 0, 0, 0
40, 0, 0, 0
41, 0, 0, 0
42, 0, 0, 0
43, 0, 0, 0
44, 0, 0, 0
45, 0, 0, 0
46, 0, 0, 0
47, 0, 0, 0
48, 0, 0, 0
49, 0, 0, 0
50, 0, 0, 0
51, 0, 0, 0
52, 0, 0, 0
53, 0, 0, 0
54, 0, 0, 0
55, 0, 0, 0
56, 0, 0, 0
57, 0, 0, 0
58, 0, 0, 0
59, 0, 0, 0
60, 0, 0, 0
61, 0, 0, 0
62, 0, 0, 0
63, 0, 0, 0
64, 0, 0, 0
65, 0, 0, 0
66, 0, 0, 0
67, 0, 0, 0
68, 0, 0, 0
69, 0, 0, 0
70, 0, 0, 0
71, 0, 0, 0
72, 0, 0, 0.04213808104395866
73, 0, 0, 0
74, 0, 0, 0
75, 0, 0, 0
76, 0, 0, 0
77, 0, 0, 0
78, 0, 0, 0
79, 0, 0, 0
80, 0, 0, 0
81, 0, 0, 0
82, 0, 0, 0
83, 0, 0, 0
84, 0, 0, 0
85, 0, 0, 0
86, 0, 0, 0
87, 0, 0, 0
88, 0, 0, 0
89, 0, 0, 0
90, 0, 0, 0.0007023984217084944
91, 0, 0, 0
92, 0, 0, 0.02561895176768303
93, 0, 0, 0
94, 0, 0, 0
95, 0, 0, 0
96, 0, 0, 15.12555599212646
97, 0, 0, 117.2665328979492
98, 0, 0, 467.1145629882812
99, 0, 0, 1329.329345703125
100, 0, 0, 3005.301025390625
101, 0, 0, 4470.0205078125
102, 0, 0, 5443.24267578125
103, 0, 0, 5451.7392578125
104, 0, 0, 4992.02685546875
105, 0, 0, 4260.021484375
106, 0, 0, 3742.656494140625
107, 0, 0, 3375.5966796875
108, 0, 0, 3128.599853515625
109, 0, 0, 2936.390869140625
110, 0, 0, 2773.667236328125
111, 0, 0, 2643.11962890625
112, 0, 0, 2524.5146484375
113, 0, 0, 2423.36474609375
114, 0, 0, 2341.05810546875
115, 0, 0, 2266.938232421875
116, 0, 0, 2193.796142578125
117, 0, 0, 2130.331298828125
118, 0, 0, 2062.549560546875
119, 0, 0, 2019.865112304688
120, 0, 0, 1977.235473632812
121, 0, 0, 1928.748046875
122, 0, 0, 1887.20068359375
123, 0, 0, 1850.524291992188
124, 0, 0, 1820.759887695312
125, 0, 0, 1784.615966796875
126, 0, 0, 1765.359252929688
127, 0, 0, 1728.942626953125
128, 0, 0, 1695.108032226562
129, 0, 0, 1666.699340820312
130, 0, 0, 1636.869018554688
131, 0, 0, 1617.848876953125
132, 0, 0, 1595.262329101562
133, 0, 0, 1572.096801757812
134, 0, 0, 1561.157470703125
135, 0, 0, 1541.251098632812
136, 0, 0, 1514.416259765625
137, 0, 0, 1498.463134765625
138, 0, 0, 1477.71826171875
139, 0, 0, 1470.832641601562
140, 0, 0, 1444.588134765625
141, 0, 0, 1428.688110351562
142, 0, 0, 1425.838256835938
143, 0, 0, 1402.527587890625
144, 0, 0, 1391.776489257812
145, 0, 0, 1371.433959960938
146, 0, 0, 1362.682373046875
147, 0, 0, 1346.347290039062
148, 0, 0, 1329.971313476562
149, 0, 0, 1325.820068359375
150, 0, 0, 1316.265380859375
151, 0, 0, 1306.805786132812
152, 0, 0, 1292.813598632812
153, 0, 0, 1288.402587890625
154, 0, 0, 1269.083862304688
155, 0, 0, 1263.96923828125
156, 0, 0, 1251.609130859375
157, 0, 0, 1244.662475585938
158, 0, 0, 1235.568969726562
159, 0, 0, 1226.855102539062
160, 0, 0, 1218.838256835938
161, 0, 0, 1213.0712890625
162, 0, 0, 1203.57666015625
163, 0, 0, 1188.879028320312
164, 0, 0, 1182.200927734375
