# TOPAS Version: 3.3.p1
# Parameter File: Test.txt
# Results for scorer MLIC_Scorer
# Scored in component: MLIC
# X in 180 bins of 0.177778 cm
# Y in 1 bin  of 10 cm
# Z in 1 bin  of 10 cm
# EnergyDeposit ( MeV ) : Sum   
0, 0, 0, 0
1, 0, 0, 0
2, 0, 0, 0
3, 0, 0, 0
4, 0, 0, 0
5, 0, 0, 0
6, 0, 0, 0
7, 0, 0, 0
8, 0, 0, 0
9, 0, 0, 0
10, 0, 0, 0
11, 0, 0, 0
12, 0, 0, 0
13, 0, 0, 0
14, 0, 0, 0
15, 0, 0, 0
16, 0, 0, 0
17, 0, 0, 0
18, 0, 0, 0
19, 0, 0, 0
20, 0, 0, 0
21, 0, 0, 0
22, 0, 0, 0
23, 0, 0, 0
24, 0, 0, 0
25, 0, 0, 0
26, 0, 0, 0
27, 0, 0, 0
28, 0, 0, 0
29, 0, 0, 0
30, 0, 0, 0
31, 0, 0, 0
32, 0, 0, 0
33, 0, 0, 0
34, 0, 0, 0
35, 0, 0, 0
36, 0, 0, 0
37, 0, 0, 0
38, 0, 0, 0
39, 0, 0, 0
40, 0, 0, 0
41, 0, 0, 0
42, 0, 0, 0
43, 0, 0, 0
44, 0, 0, 0
45, 0, 0, 0
46, 0, 0, 0
47, 0, 0, 0
48, 0, 0, 0
49, 0, 0, 0
50, 0, 0, 0
51, 0, 0, 0
52, 0, 0, 0
53, 0, 0, 0
54, 0, 0, 0
55, 0, 0, 0
56, 0, 0, 0
57, 0, 0, 0
58, 0, 0, 0
59, 0, 0, 0
60, 0, 0, 0
61, 0, 0, 0
62, 0, 0, 0
63, 0, 0, 0
64, 0, 0, 0
65, 0, 0, 0
66, 0, 0, 0
67, 0, 0, 0
68, 0, 0, 0
69, 0, 0, 0
70, 0, 0, 0
71, 0, 0, 0
72, 0, 0, 0
73, 0, 0, 0
74, 0, 0, 0
75, 0, 0, 0
76, 0, 0, 0
77, 0, 0, 0
78, 0, 0, 0
79, 0, 0, 0
80, 0, 0, 0
81, 0, 0, 0
82, 0, 0, 0
83, 0, 0, 0
84, 0, 0, 0
85, 0, 0, 0
86, 0, 0, 0
87, 0, 0, 0
88, 0, 0, 0
89, 0, 0, 0
90, 0, 0, 0
91, 0, 0, 0
92, 0, 0, 0
93, 0, 0, 0
94, 0, 0, 0
95, 0, 0, 0
96, 0, 0, 0
97, 0, 0, 0
98, 0, 0, 0
99, 0, 0, 0
100, 0, 0, 0
101, 0, 0, 0
102, 0, 0, 0
103, 0, 0, 0
104, 0, 0, 0
105, 0, 0, 0
106, 0, 0, 0
107, 0, 0, 0
108, 0, 0, 0
109, 0, 0, 0
110, 0, 0, 0
111, 0, 0, 0
112, 0, 0, 0
113, 0, 0, 0
114, 0, 0, 0
115, 0, 0, 0
116, 0, 0, 0.02964824251830578
117, 0, 0, 25.16840744018555
118, 0, 0, 145.1631927490234
119, 0, 0, 584.244873046875
120, 0, 0, 1511.285034179688
121, 0, 0, 2912.66259765625
122, 0, 0, 4178.39306640625
123, 0, 0, 4821.052734375
124, 0, 0, 5083.0517578125
125, 0, 0, 4469.74560546875
126, 0, 0, 3977.534912109375
127, 0, 0, 3529.533447265625
128, 0, 0, 3189.990478515625
129, 0, 0, 2939.923095703125
130, 0, 0, 2753.843017578125
131, 0, 0, 2593.399169921875
132, 0, 0, 2473.397216796875
133, 0, 0, 2355.18310546875
134, 0, 0, 2271.6533203125
135, 0, 0, 2181.639892578125
136, 0, 0, 2120.287353515625
137, 0, 0, 2044.400268554688
138, 0, 0, 2000.89990234375
139, 0, 0, 1934.4482421875
140, 0, 0, 1887.188720703125
141, 0, 0, 1840.596435546875
142, 0, 0, 1798.693481445312
143, 0, 0, 1771.0478515625
144, 0, 0, 1727.337280273438
145, 0, 0, 1692.233520507812
146, 0, 0, 1670.6201171875
147, 0, 0, 1639.550415039062
148, 0, 0, 1604.920043945312
149, 0, 0, 1582.162353515625
150, 0, 0, 1562.007202148438
151, 0, 0, 1532.889892578125
152, 0, 0, 1515.902709960938
153, 0, 0, 1488.910034179688
154, 0, 0, 1471.338989257812
155, 0, 0, 1449.994384765625
156, 0, 0, 1435.293579101562
157, 0, 0, 1418.324462890625
158, 0, 0, 1401.250732421875
159, 0, 0, 1382.021850585938
160, 0, 0, 1367.929565429688
161, 0, 0, 1343.072387695312
162, 0, 0, 1341.628540039062
163, 0, 0, 1322.10693359375
164, 0, 0, 1311.484497070312
165, 0, 0, 1289.503540039062
166, 0, 0, 1288.997314453125
167, 0, 0, 1278.300537109375
168, 0, 0, 1265.715576171875
169, 0, 0, 1245.336547851562
170, 0, 0, 1237.4677734375
171, 0, 0, 1227.62353515625
172, 0, 0, 1220.064819335938
173, 0, 0, 1210.940673828125
174, 0, 0, 1197.96923828125
175, 0, 0, 1187.665405273438
176, 0, 0, 1179.079467773438
177, 0, 0, 1167.167846679688
178, 0, 0, 1159.035034179688
179, 0, 0, 1151.233764648438
