# TOPAS Version: 3.3.p1
# Parameter File: testing_last_position.txt
# Results for scorer MLIC_Scorer
# Scored in component: MLIC
# X in 165 bins of 0.2 cm
# Y in 1 bin  of 10 cm
# Z in 1 bin  of 10 cm
# DosetoMedium ( Gy ) : Sum   
0, 0, 0, 3.046783474385667e-13
1, 0, 0, 3.499592431029921e-15
2, 0, 0, 1.778192935779355e-13
3, 0, 0, 5.438758235551573e-14
4, 0, 0, 4.608295624437819e-13
5, 0, 0, 3.601720159097932e-13
6, 0, 0, 1.463235999379919e-13
7, 0, 0, 2.69034553884934e-14
8, 0, 0, 2.264064044750491e-13
9, 0, 0, 3.496640639793352e-13
10, 0, 0, 4.996333953662634e-14
11, 0, 0, 1.986777170732978e-13
12, 0, 0, 4.356785114970063e-13
13, 0, 0, 6.926312821897707e-13
14, 0, 0, 7.377205400380116e-13
15, 0, 0, 3.472618243308134e-13
16, 0, 0, 7.428707714078608e-13
17, 0, 0, 5.984310811647797e-13
18, 0, 0, 6.010431410387318e-13
19, 0, 0, 1.005652158769799e-12
20, 0, 0, 1.00649458385782e-12
21, 0, 0, 1.186240667326588e-12
22, 0, 0, 1.431754020897458e-12
23, 0, 0, 9.598751914835502e-13
24, 0, 0, 9.689638414550616e-13
25, 0, 0, 1.977801603048057e-12
26, 0, 0, 1.227707605716555e-12
27, 0, 0, 1.194349632215042e-12
28, 0, 0, 2.402321831046494e-12
29, 0, 0, 1.134076339781576e-12
30, 0, 0, 6.371807378599548e-13
31, 0, 0, 8.312775381241755e-13
32, 0, 0, 6.413641319424901e-13
33, 0, 0, 2.003150900362072e-12
34, 0, 0, 8.869565780618427e-13
35, 0, 0, 1.914403531533271e-12
36, 0, 0, 2.595229153107281e-12
37, 0, 0, 3.091612686342837e-12
38, 0, 0, 2.282043044116167e-12
39, 0, 0, 6.82561103991508e-13
40, 0, 0, 1.482695476812124e-12
41, 0, 0, 1.867083744555575e-12
42, 0, 0, 2.836498180433522e-12
43, 0, 0, 2.290134878610295e-12
44, 0, 0, 4.966936584249737e-12
45, 0, 0, 4.35345553009836e-12
46, 0, 0, 3.07146018688198e-12
47, 0, 0, 4.619772012853796e-12
48, 0, 0, 3.560167351895904e-12
49, 0, 0, 5.261364260933377e-12
50, 0, 0, 3.580714500947546e-12
51, 0, 0, 3.24331620588092e-12
52, 0, 0, 7.242135710572306e-12
53, 0, 0, 4.944255942163078e-12
54, 0, 0, 7.960030204423596e-12
55, 0, 0, 6.556142347763361e-12
56, 0, 0, 5.224122783670238e-12
57, 0, 0, 6.353761267119395e-12
58, 0, 0, 7.080102129575216e-12
59, 0, 0, 6.658055183572653e-12
60, 0, 0, 1.117470178890745e-11
61, 0, 0, 8.341682379564563e-12
62, 0, 0, 9.852934440557348e-12
63, 0, 0, 9.598950106992632e-12
64, 0, 0, 1.452838283705349e-11
65, 0, 0, 1.41735009145938e-11
66, 0, 0, 1.343595894265359e-11
67, 0, 0, 1.555904190209123e-11
68, 0, 0, 1.713590380703067e-11
69, 0, 0, 1.722741567455888e-11
70, 0, 0, 2.119917089093981e-11
71, 0, 0, 1.473113853123209e-10
72, 0, 0, 2.194580739356411e-09
73, 0, 0, 1.968651552886058e-08
74, 0, 0, 1.767268997809879e-07
75, 0, 0, 1.030711587191036e-06
76, 0, 0, 4.125992745684925e-06
77, 0, 0, 1.161775253422093e-05
78, 0, 0, 2.36862924793968e-05
79, 0, 0, 3.613200169638731e-05
80, 0, 0, 4.322638051235117e-05
81, 0, 0, 4.333908873377368e-05
82, 0, 0, 3.909639053745195e-05
83, 0, 0, 3.411191573832184e-05
84, 0, 0, 3.008193380082957e-05
85, 0, 0, 2.718543146329466e-05
86, 0, 0, 2.508541001589037e-05
87, 0, 0, 2.347374538658187e-05
88, 0, 0, 2.218320332758594e-05
89, 0, 0, 2.111201865773182e-05
90, 0, 0, 2.019808744080365e-05
91, 0, 0, 1.940895162988454e-05
92, 0, 0, 1.8717162674875e-05
93, 0, 0, 1.810059256968088e-05
94, 0, 0, 1.755073026288301e-05
95, 0, 0, 1.705269824014977e-05
96, 0, 0, 1.659927693253849e-05
97, 0, 0, 1.618531678104773e-05
98, 0, 0, 1.580404932610691e-05
99, 0, 0, 1.545348459330853e-05
100, 0, 0, 1.5125567188079e-05
101, 0, 0, 1.482279549236409e-05
102, 0, 0, 1.45383446579217e-05
103, 0, 0, 1.427232200512663e-05
104, 0, 0, 1.402228735969402e-05
105, 0, 0, 1.378687466058182e-05
106, 0, 0, 1.356383472739253e-05
107, 0, 0, 1.335319757345133e-05
108, 0, 0, 1.315423287451267e-05
109, 0, 0, 1.296630307479063e-05
110, 0, 0, 1.278413037653081e-05
111, 0, 0, 1.2611966667464e-05
112, 0, 0, 1.244949635292869e-05
113, 0, 0, 1.229147801495856e-05
114, 0, 0, 1.21414013847243e-05
115, 0, 0, 1.199896996695315e-05
116, 0, 0, 1.186260033136932e-05
117, 0, 0, 1.172829161077971e-05
118, 0, 0, 1.160001193056814e-05
119, 0, 0, 1.147644252341706e-05
120, 0, 0, 1.135654383688234e-05
121, 0, 0, 1.124307436839445e-05
122, 0, 0, 1.113518192141782e-05
123, 0, 0, 1.102776877814904e-05
124, 0, 0, 1.092603542929282e-05
125, 0, 0, 1.082593098544748e-05
126, 0, 0, 1.073041676136199e-05
127, 0, 0, 1.063771196641028e-05
128, 0, 0, 1.054604308592388e-05
129, 0, 0, 1.045660519594094e-05
130, 0, 0, 1.036940284393495e-05
131, 0, 0, 1.028494716592832e-05
132, 0, 0, 1.020110539684538e-05
133, 0, 0, 1.012417578749591e-05
134, 0, 0, 1.004958357953001e-05
135, 0, 0, 9.974343811336439e-06
136, 0, 0, 9.902239071379881e-06
137, 0, 0, 9.832428986555897e-06
138, 0, 0, 9.76522369455779e-06
139, 0, 0, 9.700651389721315e-06
140, 0, 0, 9.635406968300231e-06
141, 0, 0, 9.570415386406239e-06
142, 0, 0, 9.510466043138877e-06
143, 0, 0, 9.451367077417672e-06
144, 0, 0, 9.392078027303796e-06
145, 0, 0, 9.334032256447244e-06
146, 0, 0, 9.277748176828027e-06
147, 0, 0, 9.222522749041673e-06
148, 0, 0, 9.168725227937102e-06
149, 0, 0, 9.117279660131317e-06
150, 0, 0, 9.068925464816857e-06
151, 0, 0, 9.01344719750341e-06
152, 0, 0, 8.962454558059108e-06
153, 0, 0, 8.916762453736737e-06
154, 0, 0, 8.869003977451939e-06
155, 0, 0, 8.823953066894319e-06
156, 0, 0, 8.775839887675829e-06
157, 0, 0, 8.731648449611384e-06
158, 0, 0, 8.688795787747949e-06
159, 0, 0, 8.647901267977431e-06
160, 0, 0, 8.604510185250547e-06
161, 0, 0, 8.562363291275688e-06
162, 0, 0, 8.523173164576292e-06
163, 0, 0, 8.481948498229031e-06
164, 0, 0, 8.44372516439762e-06
