# TOPAS Version: 3.3.p1
# Parameter File: Test.txt
# Results for scorer MLIC_Scorer
# Scored in component: MLIC
# X in 180 bins of 0.177778 cm
# Y in 1 bin  of 10 cm
# Z in 1 bin  of 10 cm
# EnergyDeposit ( MeV ) : Sum   
0, 0, 0, 0
1, 0, 0, 0
2, 0, 0, 0
3, 0, 0, 0
4, 0, 0, 0
5, 0, 0, 0
6, 0, 0, 0
7, 0, 0, 0
8, 0, 0, 0
9, 0, 0, 0
10, 0, 0, 0
11, 0, 0, 0
12, 0, 0, 0
13, 0, 0, 0
14, 0, 0, 0
15, 0, 0, 0
16, 0, 0, 0
17, 0, 0, 0
18, 0, 0, 0
19, 0, 0, 0
20, 0, 0, 0
21, 0, 0, 0
22, 0, 0, 0
23, 0, 0, 0
24, 0, 0, 0
25, 0, 0, 0
26, 0, 0, 0
27, 0, 0, 0
28, 0, 0, 0
29, 0, 0, 0
30, 0, 0, 0
31, 0, 0, 0
32, 0, 0, 0
33, 0, 0, 0
34, 0, 0, 0
35, 0, 0, 0
36, 0, 0, 0
37, 0, 0, 0
38, 0, 0, 0
39, 0, 0, 0
40, 0, 0, 0
41, 0, 0, 0
42, 0, 0, 0
43, 0, 0, 0
44, 0, 0, 0
45, 0, 0, 0
46, 0, 0, 0
47, 0, 0, 0
48, 0, 0, 0
49, 0, 0, 0
50, 0, 0, 0
51, 0, 0, 0
52, 0, 0, 0
53, 0, 0, 0
54, 0, 0, 0
55, 0, 0, 0
56, 0, 0, 0
57, 0, 0, 0
58, 0, 0, 0
59, 0, 0, 0
60, 0, 0, 0
61, 0, 0, 0
62, 0, 0, 0
63, 0, 0, 0
64, 0, 0, 0
65, 0, 0, 0
66, 0, 0, 0.01093901507556438
67, 0, 0, 0
68, 0, 0, 0
69, 0, 0, 0
70, 0, 0, 0
71, 0, 0, 0
72, 0, 0, 0
73, 0, 0, 0
74, 0, 0, 0
75, 0, 0, 0
76, 0, 0, 0
77, 0, 0, 0
78, 0, 0, 0
79, 0, 0, 0.004227293655276299
80, 0, 0, 0.04871196672320366
81, 0, 0, 0
82, 0, 0, 0
83, 0, 0, 0.0006999013712629676
84, 0, 0, 0
85, 0, 0, 7.153762817382812
86, 0, 0, 73.30007171630859
87, 0, 0, 296.6112670898438
88, 0, 0, 856.4820556640625
89, 0, 0, 2061.058349609375
90, 0, 0, 3298.745361328125
91, 0, 0, 4396.9697265625
92, 0, 0, 5028.73046875
93, 0, 0, 4919.3515625
94, 0, 0, 4402.33740234375
95, 0, 0, 3794.683349609375
96, 0, 0, 3380.66943359375
97, 0, 0, 3079.1162109375
98, 0, 0, 2855.6494140625
99, 0, 0, 2689.0947265625
100, 0, 0, 2535.886962890625
101, 0, 0, 2418.73046875
102, 0, 0, 2327.69775390625
103, 0, 0, 2236.040283203125
104, 0, 0, 2157.53271484375
105, 0, 0, 2090.101806640625
106, 0, 0, 2026.827392578125
107, 0, 0, 1970.529296875
108, 0, 0, 1916.674194335938
109, 0, 0, 1872.205810546875
110, 0, 0, 1830.298095703125
111, 0, 0, 1792.216674804688
112, 0, 0, 1754.012939453125
113, 0, 0, 1716.82275390625
114, 0, 0, 1677.993041992188
115, 0, 0, 1657.280883789062
116, 0, 0, 1625.071166992188
117, 0, 0, 1601.478881835938
118, 0, 0, 1571.63720703125
119, 0, 0, 1546.921142578125
120, 0, 0, 1523.633666992188
121, 0, 0, 1506.67041015625
122, 0, 0, 1486.394653320312
123, 0, 0, 1464.716552734375
124, 0, 0, 1437.671508789062
125, 0, 0, 1427.762939453125
126, 0, 0, 1407.730590820312
127, 0, 0, 1394.683227539062
128, 0, 0, 1374.000610351562
129, 0, 0, 1358.933837890625
130, 0, 0, 1345.87646484375
131, 0, 0, 1338.055419921875
132, 0, 0, 1320.606689453125
133, 0, 0, 1301.917602539062
134, 0, 0, 1289.291137695312
135, 0, 0, 1284.334228515625
136, 0, 0, 1268.046630859375
137, 0, 0, 1256.794311523438
138, 0, 0, 1250.438354492188
139, 0, 0, 1227.770751953125
140, 0, 0, 1216.807861328125
141, 0, 0, 1217.566040039062
142, 0, 0, 1202.925415039062
143, 0, 0, 1198.315307617188
144, 0, 0, 1187.573974609375
145, 0, 0, 1176.954711914062
146, 0, 0, 1165.839233398438
147, 0, 0, 1155.747192382812
148, 0, 0, 1142.302368164062
149, 0, 0, 1145.21240234375
150, 0, 0, 1125.461669921875
151, 0, 0, 1120.278076171875
152, 0, 0, 1117.334106445312
153, 0, 0, 1116.33349609375
154, 0, 0, 1101.15869140625
155, 0, 0, 1098.089111328125
156, 0, 0, 1089.263793945312
157, 0, 0, 1084.851806640625
158, 0, 0, 1076.792846679688
159, 0, 0, 1076.870239257812
160, 0, 0, 1065.112182617188
161, 0, 0, 1062.447265625
162, 0, 0, 1049.938598632812
163, 0, 0, 1044.234130859375
164, 0, 0, 1040.251342773438
165, 0, 0, 1035.722290039062
166, 0, 0, 1020.466613769531
167, 0, 0, 1025.168090820312
168, 0, 0, 1021.411865234375
169, 0, 0, 1008.27978515625
170, 0, 0, 1023.577331542969
171, 0, 0, 1001.0908203125
172, 0, 0, 994.9905395507812
173, 0, 0, 994.2716064453125
174, 0, 0, 1002.640808105469
175, 0, 0, 985.6431884765625
176, 0, 0, 983.4668579101562
177, 0, 0, 974.4263916015625
178, 0, 0, 968.1426391601562
179, 0, 0, 966.752685546875
