# TOPAS Version: 3.3.p1
# Parameter File: Test.txt
# Results for scorer MLIC_Scorer
# Scored in component: MLIC
# X in 180 bins of 0.177778 cm
# Y in 1 bin  of 10 cm
# Z in 1 bin  of 10 cm
# EnergyDeposit ( MeV ) : Sum   
0, 0, 0, 0
1, 0, 0, 0
2, 0, 0, 0
3, 0, 0, 0
4, 0, 0, 0
5, 0, 0, 0
6, 0, 0, 0
7, 0, 0, 0
8, 0, 0, 0
9, 0, 0, 0
10, 0, 0, 0
11, 0, 0, 0
12, 0, 0, 0
13, 0, 0, 0
14, 0, 0, 0
15, 0, 0, 0
16, 0, 0, 0
17, 0, 0, 0
18, 0, 0, 0
19, 0, 0, 0
20, 0, 0, 0
21, 0, 0, 0
22, 0, 0, 0
23, 0, 0, 0
24, 0, 0, 0
25, 0, 0, 0
26, 0, 0, 0
27, 0, 0, 0
28, 0, 0, 0
29, 0, 0, 0
30, 0, 0, 0
31, 0, 0, 0
32, 0, 0, 0
33, 0, 0, 0
34, 0, 0, 0
35, 0, 0, 0
36, 0, 0, 0
37, 0, 0, 0
38, 0, 0, 0
39, 0, 0, 0
40, 0, 0, 0
41, 0, 0, 0
42, 0, 0, 0
43, 0, 0, 0
44, 0, 0, 0
45, 0, 0, 0
46, 0, 0, 0
47, 0, 0, 0
48, 0, 0, 0
49, 0, 0, 0
50, 0, 0, 0
51, 0, 0, 0
52, 0, 0, 0
53, 0, 0, 0
54, 0, 0, 0
55, 0, 0, 0
56, 0, 0, 0
57, 0, 0, 0
58, 0, 0, 0
59, 0, 0, 0
60, 0, 0, 0
61, 0, 0, 0
62, 0, 0, 0
63, 0, 0, 0
64, 0, 0, 0
65, 0, 0, 0
66, 0, 0, 0
67, 0, 0, 0
68, 0, 0, 0
69, 0, 0, 0
70, 0, 0, 0
71, 0, 0, 0
72, 0, 0, 0
73, 0, 0, 0
74, 0, 0, 0
75, 0, 0, 0
76, 0, 0, 0
77, 0, 0, 0
78, 0, 0, 0
79, 0, 0, 0
80, 0, 0, 0
81, 0, 0, 0
82, 0, 0, 2.278892040252686
83, 0, 0, 31.72491073608398
84, 0, 0, 106.558837890625
85, 0, 0, 440.9904479980469
86, 0, 0, 1068.740234375
87, 0, 0, 2368.397216796875
88, 0, 0, 4011.63427734375
89, 0, 0, 4685.154296875
90, 0, 0, 5138.0263671875
91, 0, 0, 4738.16162109375
92, 0, 0, 4135.13720703125
93, 0, 0, 3596.60888671875
94, 0, 0, 3265.49365234375
95, 0, 0, 2996.53173828125
96, 0, 0, 2796.253173828125
97, 0, 0, 2636.92333984375
98, 0, 0, 2501.042724609375
99, 0, 0, 2390.17431640625
100, 0, 0, 2289.697021484375
101, 0, 0, 2203.898193359375
102, 0, 0, 2140.324951171875
103, 0, 0, 2067.81591796875
104, 0, 0, 2011.131591796875
105, 0, 0, 1954.923583984375
106, 0, 0, 1899.159545898438
107, 0, 0, 1860.492553710938
108, 0, 0, 1811.232177734375
109, 0, 0, 1776.91552734375
110, 0, 0, 1744.94384765625
111, 0, 0, 1707.832885742188
112, 0, 0, 1673.896118164062
113, 0, 0, 1647.823486328125
114, 0, 0, 1611.708984375
115, 0, 0, 1594.045288085938
116, 0, 0, 1561.133178710938
117, 0, 0, 1534.8203125
118, 0, 0, 1515.962036132812
119, 0, 0, 1495.07666015625
120, 0, 0, 1469.619873046875
121, 0, 0, 1459.115356445312
122, 0, 0, 1433.904052734375
123, 0, 0, 1415.718017578125
124, 0, 0, 1406.144897460938
125, 0, 0, 1384.099487304688
126, 0, 0, 1375.510620117188
127, 0, 0, 1349.998901367188
128, 0, 0, 1336.082885742188
129, 0, 0, 1324.315185546875
130, 0, 0, 1318.227661132812
131, 0, 0, 1295.933715820312
132, 0, 0, 1292.018676757812
133, 0, 0, 1276.556518554688
134, 0, 0, 1259.772216796875
135, 0, 0, 1253.282592773438
136, 0, 0, 1245.714965820312
137, 0, 0, 1236.413940429688
138, 0, 0, 1212.983642578125
139, 0, 0, 1215.232421875
140, 0, 0, 1199.25439453125
141, 0, 0, 1192.4384765625
142, 0, 0, 1177.860473632812
143, 0, 0, 1176.9755859375
144, 0, 0, 1159.79833984375
145, 0, 0, 1157.527954101562
146, 0, 0, 1142.944580078125
147, 0, 0, 1143.291259765625
148, 0, 0, 1122.668579101562
149, 0, 0, 1121.471557617188
150, 0, 0, 1115.310791015625
151, 0, 0, 1111.466552734375
152, 0, 0, 1104.750244140625
153, 0, 0, 1095.438720703125
154, 0, 0, 1085.919067382812
155, 0, 0, 1075.01904296875
156, 0, 0, 1078.106079101562
157, 0, 0, 1070.660888671875
158, 0, 0, 1065.893432617188
159, 0, 0, 1066.329711914062
160, 0, 0, 1048.784423828125
161, 0, 0, 1040.178466796875
162, 0, 0, 1039.598999023438
163, 0, 0, 1036.174072265625
164, 0, 0, 1030.44091796875
165, 0, 0, 1026.482421875
166, 0, 0, 1017.946655273438
167, 0, 0, 1016.572082519531
168, 0, 0, 1007.321105957031
169, 0, 0, 1000.702453613281
170, 0, 0, 987.4586181640625
171, 0, 0, 987.5567626953125
172, 0, 0, 991.3477783203125
173, 0, 0, 979.9971313476562
174, 0, 0, 979.7144165039062
175, 0, 0, 966.8628540039062
176, 0, 0, 964.5888671875
177, 0, 0, 976.1290893554688
178, 0, 0, 964.7880249023438
179, 0, 0, 958.5846557617188
