# TOPAS Version: 3.3.p1
# Parameter File: Test.txt
# Results for scorer MLIC_Scorer
# Scored in component: MLIC
# X in 180 bins of 0.177778 cm
# Y in 1 bin  of 10 cm
# Z in 1 bin  of 10 cm
# EnergyDeposit ( MeV ) : Sum   
0, 0, 0, 0
1, 0, 0, 0
2, 0, 0, 0
3, 0, 0, 0
4, 0, 0, 0
5, 0, 0, 0
6, 0, 0, 0
7, 0, 0, 0
8, 0, 0, 0
9, 0, 0, 0
10, 0, 0, 0
11, 0, 0, 0
12, 0, 0, 0
13, 0, 0, 0
14, 0, 0, 0
15, 0, 0, 0
16, 0, 0, 0
17, 0, 0, 0
18, 0, 0, 0
19, 0, 0, 0
20, 0, 0, 0
21, 0, 0, 0
22, 0, 0, 0
23, 0, 0, 0
24, 0, 0, 0
25, 0, 0, 0
26, 0, 0, 0
27, 0, 0, 0
28, 0, 0, 0
29, 0, 0, 0
30, 0, 0, 0
31, 0, 0, 0
32, 0, 0, 0
33, 0, 0, 0
34, 0, 0, 0
35, 0, 0, 0
36, 0, 0, 0
37, 0, 0, 0
38, 0, 0, 0
39, 0, 0, 0
40, 0, 0, 0
41, 0, 0, 0
42, 0, 0, 0
43, 0, 0, 0
44, 0, 0, 0
45, 0, 0, 0
46, 0, 0, 0
47, 0, 0, 0
48, 0, 0, 0
49, 0, 0, 0
50, 0, 0, 0
51, 0, 0, 0
52, 0, 0, 0
53, 0, 0, 0
54, 0, 0, 0
55, 0, 0, 0
56, 0, 0, 0
57, 0, 0, 0
58, 0, 0, 0
59, 0, 0, 0
60, 0, 0, 0
61, 0, 0, 0
62, 0, 0, 0
63, 0, 0, 0
64, 0, 0, 0
65, 0, 0, 0
66, 0, 0, 0
67, 0, 0, 0
68, 0, 0, 0
69, 0, 0, 0
70, 0, 0, 0
71, 0, 0, 0
72, 0, 0, 0
73, 0, 0, 0
74, 0, 0, 0
75, 0, 0, 0
76, 0, 0, 0
77, 0, 0, 0
78, 0, 0, 0
79, 0, 0, 0
80, 0, 0, 0
81, 0, 0, 0
82, 0, 0, 0
83, 0, 0, 0
84, 0, 0, 0
85, 0, 0, 0
86, 0, 0, 0
87, 0, 0, 0
88, 0, 0, 0
89, 0, 0, 0
90, 0, 0, 0
91, 0, 0, 0
92, 0, 0, 0
93, 0, 0, 0
94, 0, 0, 0
95, 0, 0, 0
96, 0, 0, 0
97, 0, 0, 0
98, 0, 0, 0
99, 0, 0, 0
100, 0, 0, 0
101, 0, 0, 0
102, 0, 0, 0
103, 0, 0, 0
104, 0, 0, 0
105, 0, 0, 0
106, 0, 0, 0
107, 0, 0, 0
108, 0, 0, 0
109, 0, 0, 0
110, 0, 0, 0
111, 0, 0, 0
112, 0, 0, 0
113, 0, 0, 0
114, 0, 0, 0
115, 0, 0, 0
116, 0, 0, 0
117, 0, 0, 0
118, 0, 0, 5.690187454223633
119, 0, 0, 49.50595855712891
120, 0, 0, 129.1419830322266
121, 0, 0, 262.4750671386719
122, 0, 0, 442.4932250976562
123, 0, 0, 508.558349609375
124, 0, 0, 468.4721069335938
125, 0, 0, 418.3024291992188
126, 0, 0, 375.7891845703125
127, 0, 0, 332.3460693359375
128, 0, 0, 298.824951171875
129, 0, 0, 279.2827758789062
130, 0, 0, 257.6359252929688
131, 0, 0, 245.5876617431641
132, 0, 0, 233.5102081298828
133, 0, 0, 225.8200988769531
134, 0, 0, 215.5837249755859
135, 0, 0, 210.1630706787109
136, 0, 0, 198.9351196289062
137, 0, 0, 195.0673828125
138, 0, 0, 188.4522247314453
139, 0, 0, 183.1049652099609
140, 0, 0, 180.4308624267578
141, 0, 0, 174.2680511474609
142, 0, 0, 170.3321075439453
143, 0, 0, 166.6077728271484
144, 0, 0, 163.9381713867188
145, 0, 0, 161.05810546875
146, 0, 0, 157.6626586914062
147, 0, 0, 154.6834259033203
148, 0, 0, 152.5816802978516
149, 0, 0, 149.3737182617188
150, 0, 0, 147.7967681884766
151, 0, 0, 145.2126617431641
152, 0, 0, 145.4167327880859
153, 0, 0, 142.5600891113281
154, 0, 0, 138.7134552001953
155, 0, 0, 138.6925811767578
156, 0, 0, 138.5566711425781
157, 0, 0, 134.6933288574219
158, 0, 0, 133.9577941894531
159, 0, 0, 130.37548828125
160, 0, 0, 129.8323516845703
161, 0, 0, 129.3309326171875
162, 0, 0, 125.8604583740234
163, 0, 0, 125.7887573242188
164, 0, 0, 124.6970443725586
165, 0, 0, 124.5552215576172
166, 0, 0, 119.7184600830078
167, 0, 0, 118.6114349365234
168, 0, 0, 118.7171630859375
169, 0, 0, 118.2649688720703
170, 0, 0, 118.3556137084961
171, 0, 0, 115.614013671875
172, 0, 0, 116.0205230712891
173, 0, 0, 116.4059524536133
174, 0, 0, 114.6908645629883
175, 0, 0, 112.6395874023438
176, 0, 0, 111.4551391601562
177, 0, 0, 113.40673828125
178, 0, 0, 111.5541839599609
179, 0, 0, 108.6186141967773
