# TOPAS Version: 3.3.p1
# Parameter File: Test.txt
# Results for scorer MLIC_Scorer
# Scored in component: MLIC
# X in 180 bins of 0.183333 cm
# Y in 1 bin  of 10 cm
# Z in 1 bin  of 10 cm
# EnergyDeposit ( MeV ) : Sum   
0, 0, 0, 0
1, 0, 0, 0
2, 0, 0, 0
3, 0, 0, 0
4, 0, 0, 0
5, 0, 0, 0
6, 0, 0, 0
7, 0, 0, 0
8, 0, 0, 0
9, 0, 0, 0
10, 0, 0, 0
11, 0, 0, 0
12, 0, 0, 0
13, 0, 0, 0
14, 0, 0, 0
15, 0, 0, 0
16, 0, 0, 0
17, 0, 0, 0
18, 0, 0, 0
19, 0, 0, 0
20, 0, 0, 0
21, 0, 0, 0
22, 0, 0, 0
23, 0, 0, 0
24, 0, 0, 0
25, 0, 0, 0
26, 0, 0, 0
27, 0, 0, 0
28, 0, 0, 0
29, 0, 0, 0
30, 0, 0, 0
31, 0, 0, 0
32, 0, 0, 0
33, 0, 0, 0
34, 0, 0, 0
35, 0, 0, 0
36, 0, 0, 0
37, 0, 0, 0
38, 0, 0, 0
39, 0, 0, 0
40, 0, 0, 0
41, 0, 0, 0
42, 0, 0, 0
43, 0, 0, 0
44, 0, 0, 0
45, 0, 0, 0
46, 0, 0, 0
47, 0, 0, 0
48, 0, 0, 0
49, 0, 0, 0
50, 0, 0, 0
51, 0, 0, 0
52, 0, 0, 0
53, 0, 0, 0
54, 0, 0, 0
55, 0, 0, 0
56, 0, 0, 0
57, 0, 0, 0
58, 0, 0, 0
59, 0, 0, 0
60, 0, 0, 0
61, 0, 0, 0
62, 0, 0, 0
63, 0, 0, 0
64, 0, 0, 0
65, 0, 0, 0
66, 0, 0, 0
67, 0, 0, 0
68, 0, 0, 0
69, 0, 0, 0
70, 0, 0, 0
71, 0, 0, 0
72, 0, 0, 0
73, 0, 0, 0
74, 0, 0, 0
75, 0, 0, 0
76, 0, 0, 0
77, 0, 0, 0
78, 0, 0, 0
79, 0, 0, 0
80, 0, 0, 0
81, 0, 0, 0
82, 0, 0, 0
83, 0, 0, 0
84, 0, 0, 0
85, 0, 0, 0
86, 0, 0, 0
87, 0, 0, 0
88, 0, 0, 0
89, 0, 0, 0
90, 0, 0, 0
91, 0, 0, 0
92, 0, 0, 0
93, 0, 0, 0
94, 0, 0, 0
95, 0, 0, 0
96, 0, 0, 0
97, 0, 0, 0
98, 0, 0, 0
99, 0, 0, 0
100, 0, 0, 0
101, 0, 0, 0
102, 0, 0, 0
103, 0, 0, 0
104, 0, 0, 0
105, 0, 0, 0
106, 0, 0, 0
107, 0, 0, 0
108, 0, 0, 0
109, 0, 0, 0
110, 0, 0, 0
111, 0, 0, 0
112, 0, 0, 0
113, 0, 0, 0.001767826033756137
114, 0, 0, 0
115, 0, 0, 0
116, 0, 0, 0
117, 0, 0, 0
118, 0, 0, 0
119, 0, 0, 0
120, 0, 0, 0
121, 0, 0, 0
122, 0, 0, 0.0007031531422398984
123, 0, 0, 0
124, 0, 0, 0
125, 0, 0, 0
126, 0, 0, 0
127, 0, 0, 0.0606444925069809
128, 0, 0, 0
129, 0, 0, 0.03292283415794373
130, 0, 0, 0
131, 0, 0, 47.3486442565918
132, 0, 0, 289.8646545410156
133, 0, 0, 1084.6201171875
134, 0, 0, 2238.424560546875
135, 0, 0, 3639.7548828125
136, 0, 0, 4783.49951171875
137, 0, 0, 5140.3720703125
138, 0, 0, 4877.7724609375
139, 0, 0, 4365.27685546875
140, 0, 0, 3801.28955078125
141, 0, 0, 3368.8076171875
142, 0, 0, 3078.885986328125
143, 0, 0, 2870.814208984375
144, 0, 0, 2704.353759765625
145, 0, 0, 2562.63818359375
146, 0, 0, 2453.693115234375
147, 0, 0, 2346.9482421875
148, 0, 0, 2259.5732421875
149, 0, 0, 2181.272216796875
150, 0, 0, 2117.563720703125
151, 0, 0, 2050.842041015625
152, 0, 0, 2001.247924804688
153, 0, 0, 1941.526123046875
154, 0, 0, 1901.584838867188
155, 0, 0, 1850.284545898438
156, 0, 0, 1810.47021484375
157, 0, 0, 1775.1787109375
158, 0, 0, 1738.4443359375
159, 0, 0, 1701.50927734375
160, 0, 0, 1673.906372070312
161, 0, 0, 1639.233032226562
162, 0, 0, 1624.831176757812
163, 0, 0, 1605.497680664062
164, 0, 0, 1574.26171875
165, 0, 0, 1551.2529296875
166, 0, 0, 1529.120361328125
167, 0, 0, 1504.0546875
168, 0, 0, 1493.904907226562
169, 0, 0, 1462.476806640625
170, 0, 0, 1449.973999023438
171, 0, 0, 1430.251708984375
172, 0, 0, 1408.311401367188
173, 0, 0, 1401.08740234375
174, 0, 0, 1382.391967773438
175, 0, 0, 1368.502075195312
176, 0, 0, 1351.303100585938
177, 0, 0, 1340.372314453125
178, 0, 0, 1330.15576171875
179, 0, 0, 1312.225708007812
