# TOPAS Version: 3.3.p1
# Parameter File: Test.txt
# Results for scorer MLIC_Scorer
# Scored in component: MLIC
# X in 180 bins of 0.177778 cm
# Y in 1 bin  of 10 cm
# Z in 1 bin  of 10 cm
# EnergyDeposit ( MeV ) : Sum   
0, 0, 0, 0
1, 0, 0, 0
2, 0, 0, 0
3, 0, 0, 0
4, 0, 0, 0.01195126865059137
5, 0, 0, 0.02764702588319778
6, 0, 0, 0
7, 0, 0, 0
8, 0, 0, 0
9, 0, 0, 0
10, 0, 0, 0
11, 0, 0, 0.001510330592282116
12, 0, 0, 0
13, 0, 0, 0
14, 0, 0, 0.000404458463890478
15, 0, 0, 106.0810165405273
16, 0, 0, 508.7020263671875
17, 0, 0, 1284.189819335938
18, 0, 0, 2353.81884765625
19, 0, 0, 3652.275634765625
20, 0, 0, 4808.7158203125
21, 0, 0, 5024.283203125
22, 0, 0, 4700.32568359375
23, 0, 0, 4197.76708984375
24, 0, 0, 3647.731689453125
25, 0, 0, 3273.831787109375
26, 0, 0, 3004.2919921875
27, 0, 0, 2795.8876953125
28, 0, 0, 2634.0341796875
29, 0, 0, 2506.473876953125
30, 0, 0, 2391.34619140625
31, 0, 0, 2294.379638671875
32, 0, 0, 2205.73974609375
33, 0, 0, 2138.486572265625
34, 0, 0, 2063.78271484375
35, 0, 0, 2009.747924804688
36, 0, 0, 1950.6357421875
37, 0, 0, 1902.604858398438
38, 0, 0, 1854.595336914062
39, 0, 0, 1817.643676757812
40, 0, 0, 1777.988403320312
41, 0, 0, 1736.915649414062
42, 0, 0, 1708.631103515625
43, 0, 0, 1676.961547851562
44, 0, 0, 1642.45068359375
45, 0, 0, 1612.135986328125
46, 0, 0, 1587.409301757812
47, 0, 0, 1567.30712890625
48, 0, 0, 1546.786010742188
49, 0, 0, 1519.68798828125
50, 0, 0, 1496.22900390625
51, 0, 0, 1481.95703125
52, 0, 0, 1460.240844726562
53, 0, 0, 1438.142822265625
54, 0, 0, 1417.839233398438
55, 0, 0, 1394.0751953125
56, 0, 0, 1383.33740234375
57, 0, 0, 1368.685913085938
58, 0, 0, 1353.2783203125
59, 0, 0, 1341.218505859375
60, 0, 0, 1336.622924804688
61, 0, 0, 1314.60888671875
62, 0, 0, 1299.295654296875
63, 0, 0, 1287.710693359375
64, 0, 0, 1272.554565429688
65, 0, 0, 1264.408447265625
66, 0, 0, 1251.967041015625
67, 0, 0, 1248.198364257812
68, 0, 0, 1236.519653320312
69, 0, 0, 1222.063842773438
70, 0, 0, 1206.116088867188
71, 0, 0, 1200.857055664062
72, 0, 0, 1188.21044921875
73, 0, 0, 1177.27587890625
74, 0, 0, 1169.505126953125
75, 0, 0, 1169.666625976562
76, 0, 0, 1144.391845703125
77, 0, 0, 1142.153930664062
78, 0, 0, 1142.369506835938
79, 0, 0, 1137.233276367188
80, 0, 0, 1123.640258789062
81, 0, 0, 1110.134155273438
82, 0, 0, 1106.298950195312
83, 0, 0, 1096.012817382812
84, 0, 0, 1095.047729492188
85, 0, 0, 1087.91650390625
86, 0, 0, 1071.451904296875
87, 0, 0, 1068.948486328125
88, 0, 0, 1075.52197265625
89, 0, 0, 1057.170654296875
90, 0, 0, 1049.857055664062
91, 0, 0, 1044.18701171875
92, 0, 0, 1045.060791015625
93, 0, 0, 1037.693237304688
94, 0, 0, 1032.48828125
95, 0, 0, 1030.252319335938
96, 0, 0, 1010.130981445312
97, 0, 0, 1017.661254882812
98, 0, 0, 1014.610778808594
99, 0, 0, 1001.358947753906
100, 0, 0, 1003.678588867188
101, 0, 0, 1000.256713867188
102, 0, 0, 996.59228515625
103, 0, 0, 983.3782348632812
104, 0, 0, 986.0086059570312
105, 0, 0, 978.2794799804688
106, 0, 0, 967.3533935546875
107, 0, 0, 975.3828735351562
108, 0, 0, 962.5616455078125
109, 0, 0, 958.7035522460938
110, 0, 0, 957.7056274414062
111, 0, 0, 959.2366333007812
112, 0, 0, 944.2064208984375
113, 0, 0, 941.1415405273438
114, 0, 0, 942.7913818359375
115, 0, 0, 938.7606201171875
116, 0, 0, 936.3013305664062
117, 0, 0, 929.2112426757812
118, 0, 0, 920.5580444335938
119, 0, 0, 919.95068359375
120, 0, 0, 916.4090576171875
121, 0, 0, 914.0679321289062
122, 0, 0, 911.223388671875
123, 0, 0, 908.1016235351562
124, 0, 0, 898.4326782226562
125, 0, 0, 899.3453369140625
126, 0, 0, 902.1473999023438
127, 0, 0, 893.01025390625
128, 0, 0, 884.031494140625
129, 0, 0, 887.6546020507812
130, 0, 0, 889.171875
131, 0, 0, 884.8341674804688
132, 0, 0, 874.7549438476562
133, 0, 0, 873.0965576171875
134, 0, 0, 870.973388671875
135, 0, 0, 863.574951171875
136, 0, 0, 865.7442016601562
137, 0, 0, 866.6819458007812
138, 0, 0, 855.7395629882812
139, 0, 0, 862.2235107421875
140, 0, 0, 859.2637329101562
141, 0, 0, 849.8945922851562
142, 0, 0, 848.3158569335938
143, 0, 0, 846.4000244140625
144, 0, 0, 848.9993896484375
145, 0, 0, 843.9807739257812
146, 0, 0, 837.2554321289062
147, 0, 0, 837.924560546875
148, 0, 0, 830.0550537109375
149, 0, 0, 830.9122314453125
150, 0, 0, 840.066162109375
151, 0, 0, 827.7365112304688
152, 0, 0, 833.3218994140625
153, 0, 0, 816.415771484375
154, 0, 0, 819.0602416992188
155, 0, 0, 816.9834594726562
156, 0, 0, 818.6072387695312
157, 0, 0, 814.1862182617188
158, 0, 0, 815.5372314453125
159, 0, 0, 805.3063354492188
160, 0, 0, 809.4807739257812
161, 0, 0, 802.7508544921875
162, 0, 0, 796.6624145507812
163, 0, 0, 800.0693969726562
164, 0, 0, 801.915283203125
165, 0, 0, 798.440185546875
166, 0, 0, 795.512451171875
167, 0, 0, 785.660888671875
168, 0, 0, 785.6289672851562
169, 0, 0, 786.7950439453125
170, 0, 0, 789.469970703125
171, 0, 0, 784.3089599609375
172, 0, 0, 777.6029052734375
173, 0, 0, 786.1817016601562
174, 0, 0, 780.6277465820312
175, 0, 0, 774.162109375
176, 0, 0, 775.6962280273438
177, 0, 0, 772.6771240234375
178, 0, 0, 772.07666015625
179, 0, 0, 768.4676513671875
