# TOPAS Version: 3.3.p1
# Parameter File: Test.txt
# Results for scorer MLIC_Scorer
# Scored in component: MLIC
# X in 180 bins of 0.177778 cm
# Y in 1 bin  of 10 cm
# Z in 1 bin  of 10 cm
# EnergyDeposit ( MeV ) : Sum   
0, 0, 0, 0
1, 0, 0, 0
2, 0, 0, 0
3, 0, 0, 0
4, 0, 0, 0
5, 0, 0, 0
6, 0, 0, 0
7, 0, 0, 0
8, 0, 0, 0
9, 0, 0, 0
10, 0, 0, 0
11, 0, 0, 0
12, 0, 0, 0
13, 0, 0, 0
14, 0, 0, 0
15, 0, 0, 0
16, 0, 0, 0
17, 0, 0, 0
18, 0, 0, 0
19, 0, 0, 0
20, 0, 0, 0
21, 0, 0, 0
22, 0, 0, 0.03971965610980988
23, 0, 0, 0
24, 0, 0, 0
25, 0, 0, 0
26, 0, 0, 75.56265258789062
27, 0, 0, 223.2604827880859
28, 0, 0, 840.3974609375
29, 0, 0, 1962.548706054688
30, 0, 0, 3201.928955078125
31, 0, 0, 4448.92578125
32, 0, 0, 5030.87548828125
33, 0, 0, 4928.33740234375
34, 0, 0, 4342.01318359375
35, 0, 0, 3813.44287109375
36, 0, 0, 3384.72021484375
37, 0, 0, 3093.842529296875
38, 0, 0, 2867.3134765625
39, 0, 0, 2697.5576171875
40, 0, 0, 2555.055908203125
41, 0, 0, 2426.428955078125
42, 0, 0, 2334.068603515625
43, 0, 0, 2242.54248046875
44, 0, 0, 2161.782470703125
45, 0, 0, 2092.732421875
46, 0, 0, 2028.2041015625
47, 0, 0, 1975.613159179688
48, 0, 0, 1919.659545898438
49, 0, 0, 1878.956298828125
50, 0, 0, 1835.70263671875
51, 0, 0, 1795.732421875
52, 0, 0, 1751.417358398438
53, 0, 0, 1717.048095703125
54, 0, 0, 1694.080688476562
55, 0, 0, 1655.3984375
56, 0, 0, 1622.999389648438
57, 0, 0, 1593.3388671875
58, 0, 0, 1576.453125
59, 0, 0, 1553.680908203125
60, 0, 0, 1529.644165039062
61, 0, 0, 1504.799682617188
62, 0, 0, 1485.913452148438
63, 0, 0, 1469.052856445312
64, 0, 0, 1448.86572265625
65, 0, 0, 1429.123168945312
66, 0, 0, 1411.040649414062
67, 0, 0, 1388.035766601562
68, 0, 0, 1379.261840820312
69, 0, 0, 1357.834228515625
70, 0, 0, 1346.052124023438
71, 0, 0, 1336.06787109375
72, 0, 0, 1322.481201171875
73, 0, 0, 1304.425170898438
74, 0, 0, 1294.38525390625
75, 0, 0, 1279.482055664062
76, 0, 0, 1268.676147460938
77, 0, 0, 1255.42724609375
78, 0, 0, 1250.786987304688
79, 0, 0, 1231.364868164062
80, 0, 0, 1226.479736328125
81, 0, 0, 1211.883544921875
82, 0, 0, 1210.299194335938
83, 0, 0, 1188.89404296875
84, 0, 0, 1173.52880859375
85, 0, 0, 1174.261962890625
86, 0, 0, 1169.003051757812
87, 0, 0, 1159.194702148438
88, 0, 0, 1144.892211914062
89, 0, 0, 1138.163818359375
90, 0, 0, 1142.199584960938
91, 0, 0, 1125.796997070312
92, 0, 0, 1119.972900390625
93, 0, 0, 1108.129516601562
94, 0, 0, 1101.774536132812
95, 0, 0, 1102.538208007812
96, 0, 0, 1087.1328125
97, 0, 0, 1080.69482421875
98, 0, 0, 1083.117919921875
99, 0, 0, 1069.459228515625
100, 0, 0, 1065.84130859375
101, 0, 0, 1058.767944335938
102, 0, 0, 1059.29833984375
103, 0, 0, 1046.333618164062
104, 0, 0, 1045.16357421875
105, 0, 0, 1032.64501953125
106, 0, 0, 1028.93505859375
107, 0, 0, 1030.872314453125
108, 0, 0, 1019.069274902344
109, 0, 0, 1007.909606933594
110, 0, 0, 1009.258117675781
111, 0, 0, 1005.906982421875
112, 0, 0, 1004.465942382812
113, 0, 0, 995.8214721679688
114, 0, 0, 984.207763671875
115, 0, 0, 977.9140014648438
116, 0, 0, 982.0588989257812
117, 0, 0, 973.4254760742188
118, 0, 0, 978.4644775390625
119, 0, 0, 962.6940307617188
120, 0, 0, 963.7747802734375
121, 0, 0, 958.9779663085938
122, 0, 0, 953.2161254882812
123, 0, 0, 955.0576782226562
124, 0, 0, 941.3497924804688
125, 0, 0, 939.317626953125
126, 0, 0, 945.1776123046875
127, 0, 0, 929.85888671875
128, 0, 0, 931.924560546875
129, 0, 0, 922.6605834960938
130, 0, 0, 923.367431640625
131, 0, 0, 918.04541015625
132, 0, 0, 920.4971313476562
133, 0, 0, 909.4950561523438
134, 0, 0, 904.6729736328125
135, 0, 0, 906.9281005859375
136, 0, 0, 906.9917602539062
137, 0, 0, 905.921875
138, 0, 0, 899.3626098632812
139, 0, 0, 894.8751831054688
140, 0, 0, 885.1446533203125
141, 0, 0, 885.8289184570312
142, 0, 0, 886.66357421875
143, 0, 0, 881.431640625
144, 0, 0, 876.8799438476562
145, 0, 0, 877.4360961914062
146, 0, 0, 874.3876342773438
147, 0, 0, 859.7258911132812
148, 0, 0, 870.5595703125
149, 0, 0, 866.8920288085938
150, 0, 0, 856.3955078125
151, 0, 0, 855.9835205078125
152, 0, 0, 851.0354614257812
153, 0, 0, 852.8513793945312
154, 0, 0, 849.3679809570312
155, 0, 0, 845.2573852539062
156, 0, 0, 840.8031005859375
157, 0, 0, 844.8895263671875
158, 0, 0, 839.6043701171875
159, 0, 0, 836.088623046875
160, 0, 0, 836.6851196289062
161, 0, 0, 825.0278930664062
162, 0, 0, 830.9446411132812
163, 0, 0, 820.938232421875
164, 0, 0, 823.32080078125
165, 0, 0, 820.0858764648438
166, 0, 0, 824.272705078125
167, 0, 0, 814.4784545898438
168, 0, 0, 813.419189453125
169, 0, 0, 819.1100463867188
170, 0, 0, 812.498779296875
171, 0, 0, 809.2169189453125
172, 0, 0, 801.4384765625
173, 0, 0, 806.7008666992188
174, 0, 0, 807.664306640625
175, 0, 0, 806.0827026367188
176, 0, 0, 794.0700073242188
177, 0, 0, 801.1325073242188
178, 0, 0, 801.1242065429688
179, 0, 0, 791.365478515625
