# TOPAS Version: 3.3.p1
# Parameter File: Test.txt
# Results for scorer MLIC_Scorer
# Scored in component: MLIC
# X in 180 bins of 0.183333 cm
# Y in 1 bin  of 10 cm
# Z in 1 bin  of 10 cm
# EnergyDeposit ( MeV ) : Sum   
0, 0, 0, 0
1, 0, 0, 0
2, 0, 0, 0
3, 0, 0, 0
4, 0, 0, 0
5, 0, 0, 0
6, 0, 0, 0
7, 0, 0, 0
8, 0, 0, 0
9, 0, 0, 0
10, 0, 0, 0
11, 0, 0, 0
12, 0, 0, 0
13, 0, 0, 0
14, 0, 0, 0
15, 0, 0, 0
16, 0, 0, 0
17, 0, 0, 0
18, 0, 0, 0
19, 0, 0, 0
20, 0, 0, 0
21, 0, 0, 0
22, 0, 0, 0
23, 0, 0, 0
24, 0, 0, 0
25, 0, 0, 0
26, 0, 0, 0
27, 0, 0, 0
28, 0, 0, 0
29, 0, 0, 0
30, 0, 0, 0
31, 0, 0, 0
32, 0, 0, 0
33, 0, 0, 0
34, 0, 0, 0
35, 0, 0, 0
36, 0, 0, 0
37, 0, 0, 0
38, 0, 0, 0
39, 0, 0, 0
40, 0, 0, 0
41, 0, 0, 0
42, 0, 0, 0.02528054267168045
43, 0, 0, 0
44, 0, 0, 0
45, 0, 0, 0.01780672185122967
46, 0, 0, 0
47, 0, 0, 54.78776550292969
48, 0, 0, 363.9581909179688
49, 0, 0, 1091.333984375
50, 0, 0, 2165.62744140625
51, 0, 0, 3904.338623046875
52, 0, 0, 5055.98583984375
53, 0, 0, 5272.03955078125
54, 0, 0, 4855.74072265625
55, 0, 0, 4221.1279296875
56, 0, 0, 3705.83251953125
57, 0, 0, 3321.842529296875
58, 0, 0, 3047.56591796875
59, 0, 0, 2844.17626953125
60, 0, 0, 2672.18359375
61, 0, 0, 2548.30224609375
62, 0, 0, 2428.656005859375
63, 0, 0, 2329.541015625
64, 0, 0, 2240.7919921875
65, 0, 0, 2172.721923828125
66, 0, 0, 2102.969482421875
67, 0, 0, 2034.6259765625
68, 0, 0, 1984.164306640625
69, 0, 0, 1945.697509765625
70, 0, 0, 1888.424682617188
71, 0, 0, 1846.828247070312
72, 0, 0, 1805.950317382812
73, 0, 0, 1768.082641601562
74, 0, 0, 1740.30126953125
75, 0, 0, 1695.84814453125
76, 0, 0, 1666.114990234375
77, 0, 0, 1650.483764648438
78, 0, 0, 1613.206665039062
79, 0, 0, 1589.8701171875
80, 0, 0, 1572.769897460938
81, 0, 0, 1537.883544921875
82, 0, 0, 1518.35498046875
83, 0, 0, 1509.886962890625
84, 0, 0, 1487.144165039062
85, 0, 0, 1461.144775390625
86, 0, 0, 1444.795532226562
87, 0, 0, 1425.851318359375
88, 0, 0, 1410.330810546875
89, 0, 0, 1394.837768554688
90, 0, 0, 1371.612060546875
91, 0, 0, 1369.3466796875
92, 0, 0, 1350.652954101562
93, 0, 0, 1339.633056640625
94, 0, 0, 1327.062622070312
95, 0, 0, 1307.884643554688
96, 0, 0, 1300.701904296875
97, 0, 0, 1287.272216796875
98, 0, 0, 1273.125244140625
99, 0, 0, 1263.329956054688
100, 0, 0, 1244.009643554688
101, 0, 0, 1244.7490234375
102, 0, 0, 1238.393676757812
103, 0, 0, 1228.409912109375
104, 0, 0, 1208.130126953125
105, 0, 0, 1199.522216796875
106, 0, 0, 1190.482299804688
107, 0, 0, 1190.263549804688
108, 0, 0, 1175.583251953125
109, 0, 0, 1164.924926757812
110, 0, 0, 1158.171630859375
111, 0, 0, 1157.365234375
112, 0, 0, 1146.874145507812
113, 0, 0, 1145.675415039062
114, 0, 0, 1124.737426757812
115, 0, 0, 1121.241577148438
116, 0, 0, 1115.094116210938
117, 0, 0, 1107.773071289062
118, 0, 0, 1099.48828125
119, 0, 0, 1094.41064453125
120, 0, 0, 1090.430908203125
121, 0, 0, 1083.526611328125
122, 0, 0, 1077.004272460938
123, 0, 0, 1072.264892578125
124, 0, 0, 1068.845581054688
125, 0, 0, 1055.468139648438
126, 0, 0, 1051.442138671875
127, 0, 0, 1051.59326171875
128, 0, 0, 1041.588989257812
129, 0, 0, 1032.123901367188
130, 0, 0, 1034.54345703125
131, 0, 0, 1023.492919921875
132, 0, 0, 1026.190307617188
133, 0, 0, 1014.934020996094
134, 0, 0, 1015.850830078125
135, 0, 0, 1000.638305664062
136, 0, 0, 1005.651489257812
137, 0, 0, 998.5291748046875
138, 0, 0, 992.529541015625
139, 0, 0, 982.5197143554688
140, 0, 0, 981.5988159179688
141, 0, 0, 983.5797119140625
142, 0, 0, 975.5941772460938
143, 0, 0, 976.14501953125
144, 0, 0, 972.019775390625
145, 0, 0, 963.2909545898438
146, 0, 0, 958.1587524414062
147, 0, 0, 955.3081665039062
148, 0, 0, 946.4635009765625
149, 0, 0, 950.024658203125
150, 0, 0, 934.8681640625
151, 0, 0, 940.8489990234375
152, 0, 0, 937.5182495117188
153, 0, 0, 930.1240234375
154, 0, 0, 921.7813110351562
155, 0, 0, 929.3681640625
156, 0, 0, 922.3304443359375
157, 0, 0, 916.421630859375
158, 0, 0, 915.5404052734375
159, 0, 0, 914.8927612304688
160, 0, 0, 906.1692504882812
161, 0, 0, 900.3878784179688
162, 0, 0, 899.169189453125
163, 0, 0, 897.5400390625
164, 0, 0, 894.78662109375
165, 0, 0, 893.99609375
166, 0, 0, 889.7579956054688
167, 0, 0, 888.3564453125
168, 0, 0, 886.3280029296875
169, 0, 0, 881.003662109375
170, 0, 0, 876.6786499023438
171, 0, 0, 880.9456787109375
172, 0, 0, 876.4692993164062
173, 0, 0, 868.19921875
174, 0, 0, 864.1815185546875
175, 0, 0, 869.8040771484375
176, 0, 0, 867.3009643554688
177, 0, 0, 841.8482055664062
178, 0, 0, 857.4938354492188
179, 0, 0, 854.7374877929688
