# TOPAS Version: 3.3.p1
# Parameter File: Test.txt
# Results for scorer MLIC_Scorer
# Scored in component: MLIC
# X in 180 bins of 0.222222 cm
# Y in 1 bin  of 10 cm
# Z in 1 bin  of 10 cm
# EnergyDeposit ( MeV ) : Sum   
0, 0, 0, 0
1, 0, 0, 0
2, 0, 0, 0
3, 0, 0, 0
4, 0, 0, 0
5, 0, 0, 0
6, 0, 0, 0
7, 0, 0, 0
8, 0, 0, 0
9, 0, 0, 0
10, 0, 0, 0
11, 0, 0, 0
12, 0, 0, 0
13, 0, 0, 0
14, 0, 0, 0
15, 0, 0, 0
16, 0, 0, 0
17, 0, 0, 0
18, 0, 0, 0
19, 0, 0, 0
20, 0, 0, 0
21, 0, 0, 0
22, 0, 0, 0
23, 0, 0, 0
24, 0, 0, 0
25, 0, 0, 0
26, 0, 0, 0
27, 0, 0, 0
28, 0, 0, 0
29, 0, 0, 0
30, 0, 0, 0
31, 0, 0, 0
32, 0, 0, 0
33, 0, 0, 0
34, 0, 0, 0
35, 0, 0, 0
36, 0, 0, 0
37, 0, 0, 0
38, 0, 0, 0
39, 0, 0, 0
40, 0, 0, 0
41, 0, 0, 0
42, 0, 0, 0
43, 0, 0, 0
44, 0, 0, 0
45, 0, 0, 0
46, 0, 0, 0
47, 0, 0, 0
48, 0, 0, 0
49, 0, 0, 0
50, 0, 0, 0
51, 0, 0, 0
52, 0, 0, 0
53, 0, 0, 0
54, 0, 0, 0
55, 0, 0, 0
56, 0, 0, 0
57, 0, 0, 0
58, 0, 0, 0
59, 0, 0, 0
60, 0, 0, 0
61, 0, 0, 0
62, 0, 0, 0.00235400628298521
63, 0, 0, 0
64, 0, 0, 0
65, 0, 0, 0
66, 0, 0, 0
67, 0, 0, 0
68, 0, 0, 0
69, 0, 0, 0
70, 0, 0, 0.003158142790198326
71, 0, 0, 0
72, 0, 0, 0
73, 0, 0, 0
74, 0, 0, 0.05018553882837296
75, 0, 0, 0.02588350884616375
76, 0, 0, 4.407366752624512
77, 0, 0, 38.75478363037109
78, 0, 0, 189.6270904541016
79, 0, 0, 813.8516235351562
80, 0, 0, 2437.608642578125
81, 0, 0, 4571.72412109375
82, 0, 0, 6195.20166015625
83, 0, 0, 6138.97900390625
84, 0, 0, 5374.8564453125
85, 0, 0, 4612.83447265625
86, 0, 0, 4042.310791015625
87, 0, 0, 3646.274658203125
88, 0, 0, 3359.843017578125
89, 0, 0, 3140.581298828125
90, 0, 0, 2974.5166015625
91, 0, 0, 2818.49365234375
92, 0, 0, 2703.70068359375
93, 0, 0, 2585.964599609375
94, 0, 0, 2502.129638671875
95, 0, 0, 2412.060302734375
96, 0, 0, 2340.689453125
97, 0, 0, 2274.577392578125
98, 0, 0, 2212.90576171875
99, 0, 0, 2160.7109375
100, 0, 0, 2101.842529296875
101, 0, 0, 2058.273193359375
102, 0, 0, 2026.248901367188
103, 0, 0, 1974.981689453125
104, 0, 0, 1939.217041015625
105, 0, 0, 1901.599365234375
106, 0, 0, 1867.4609375
107, 0, 0, 1835.698852539062
108, 0, 0, 1806.554443359375
109, 0, 0, 1779.409545898438
110, 0, 0, 1746.633056640625
111, 0, 0, 1730.646240234375
112, 0, 0, 1699.530517578125
113, 0, 0, 1674.071411132812
114, 0, 0, 1657.853149414062
115, 0, 0, 1631.613403320312
116, 0, 0, 1611.061889648438
117, 0, 0, 1601.749877929688
118, 0, 0, 1578.168334960938
119, 0, 0, 1569.087036132812
120, 0, 0, 1544.495971679688
121, 0, 0, 1528.192993164062
122, 0, 0, 1507.4248046875
123, 0, 0, 1501.003173828125
124, 0, 0, 1479.023559570312
125, 0, 0, 1468.405883789062
126, 0, 0, 1457.253540039062
127, 0, 0, 1434.723022460938
128, 0, 0, 1427.605224609375
129, 0, 0, 1412.872680664062
130, 0, 0, 1407.82666015625
131, 0, 0, 1391.265014648438
132, 0, 0, 1372.812255859375
133, 0, 0, 1364.200805664062
134, 0, 0, 1364.146728515625
135, 0, 0, 1344.570068359375
136, 0, 0, 1334.937622070312
137, 0, 0, 1325.680053710938
138, 0, 0, 1313.311767578125
139, 0, 0, 1308.589965820312
140, 0, 0, 1301.056518554688
141, 0, 0, 1295.647583007812
142, 0, 0, 1281.166259765625
143, 0, 0, 1272.073486328125
144, 0, 0, 1263.922485351562
145, 0, 0, 1251.521484375
146, 0, 0, 1249.239379882812
147, 0, 0, 1241.255737304688
148, 0, 0, 1231.317626953125
149, 0, 0, 1231.195922851562
150, 0, 0, 1211.46875
151, 0, 0, 1212.434448242188
152, 0, 0, 1213.542236328125
153, 0, 0, 1200.287353515625
154, 0, 0, 1193.560546875
155, 0, 0, 1189.777465820312
156, 0, 0, 1184.275634765625
157, 0, 0, 1171.2734375
158, 0, 0, 1168.940795898438
159, 0, 0, 1167.084228515625
160, 0, 0, 1158.874877929688
161, 0, 0, 1160.014404296875
162, 0, 0, 1141.093017578125
163, 0, 0, 1138.240844726562
164, 0, 0, 1141.60205078125
165, 0, 0, 1130.877319335938
166, 0, 0, 1119.912231445312
167, 0, 0, 1115.97509765625
168, 0, 0, 1115.381713867188
169, 0, 0, 1110.653076171875
170, 0, 0, 1106.977783203125
171, 0, 0, 1106.692749023438
172, 0, 0, 1101.418334960938
173, 0, 0, 1098.018676757812
174, 0, 0, 1075.443725585938
175, 0, 0, 1073.245971679688
176, 0, 0, 1077.307861328125
177, 0, 0, 1075.575439453125
178, 0, 0, 1065.41650390625
179, 0, 0, 1069.257080078125
