# TOPAS Version: 3.3.p1
# Parameter File: Test.txt
# Results for scorer MLIC_Scorer
# Scored in component: MLIC
# X in 180 bins of 0.177778 cm
# Y in 1 bin  of 10 cm
# Z in 1 bin  of 10 cm
# EnergyDeposit ( MeV ) : Sum   
0, 0, 0, 0
1, 0, 0, 0
2, 0, 0, 0
3, 0, 0, 0
4, 0, 0, 0
5, 0, 0, 0
6, 0, 0, 0
7, 0, 0, 0
8, 0, 0, 0
9, 0, 0, 0
10, 0, 0, 0
11, 0, 0, 0
12, 0, 0, 0
13, 0, 0, 0
14, 0, 0, 0
15, 0, 0, 0
16, 0, 0, 0
17, 0, 0, 0
18, 0, 0, 0
19, 0, 0, 0
20, 0, 0, 0
21, 0, 0, 0
22, 0, 0, 0
23, 0, 0, 0
24, 0, 0, 0
25, 0, 0, 0
26, 0, 0, 0
27, 0, 0, 0
28, 0, 0, 0
29, 0, 0, 0
30, 0, 0, 0
31, 0, 0, 0
32, 0, 0, 0
33, 0, 0, 0
34, 0, 0, 0
35, 0, 0, 0
36, 0, 0, 0
37, 0, 0, 0
38, 0, 0, 0
39, 0, 0, 0
40, 0, 0, 0
41, 0, 0, 0
42, 0, 0, 0
43, 0, 0, 0
44, 0, 0, 0
45, 0, 0, 0
46, 0, 0, 0
47, 0, 0, 0
48, 0, 0, 0
49, 0, 0, 0
50, 0, 0, 0
51, 0, 0, 0
52, 0, 0, 0
53, 0, 0, 0
54, 0, 0, 0
55, 0, 0, 0
56, 0, 0, 0
57, 0, 0, 0
58, 0, 0, 0
59, 0, 0, 0
60, 0, 0, 0
61, 0, 0, 0
62, 0, 0, 0
63, 0, 0, 0
64, 0, 0, 0
65, 0, 0, 0
66, 0, 0, 0
67, 0, 0, 0
68, 0, 0, 0
69, 0, 0, 0
70, 0, 0, 0
71, 0, 0, 0
72, 0, 0, 0
73, 0, 0, 0
74, 0, 0, 0
75, 0, 0, 0
76, 0, 0, 0
77, 0, 0, 0
78, 0, 0, 0
79, 0, 0, 0
80, 0, 0, 0
81, 0, 0, 0
82, 0, 0, 0
83, 0, 0, 0
84, 0, 0, 0
85, 0, 0, 0
86, 0, 0, 0
87, 0, 0, 0
88, 0, 0, 0
89, 0, 0, 0
90, 0, 0, 0
91, 0, 0, 0
92, 0, 0, 0
93, 0, 0, 0
94, 0, 0, 0
95, 0, 0, 0
96, 0, 0, 0
97, 0, 0, 0.02778654918074608
98, 0, 0, 0.0002130433858837932
99, 0, 0, 0
100, 0, 0, 0
101, 0, 0, 0
102, 0, 0, 0
103, 0, 0, 0
104, 0, 0, 0
105, 0, 0, 0
106, 0, 0, 0
107, 0, 0, 67.61449432373047
108, 0, 0, 172.8547058105469
109, 0, 0, 573.467041015625
110, 0, 0, 1434.25927734375
111, 0, 0, 2809.91943359375
112, 0, 0, 4343.380859375
113, 0, 0, 5087.90087890625
114, 0, 0, 4989.25634765625
115, 0, 0, 4474.5263671875
116, 0, 0, 3953.078369140625
117, 0, 0, 3482.44091796875
118, 0, 0, 3181.84521484375
119, 0, 0, 2932.4365234375
120, 0, 0, 2745.240966796875
121, 0, 0, 2585.50244140625
122, 0, 0, 2464.397705078125
123, 0, 0, 2357.56005859375
124, 0, 0, 2268.6318359375
125, 0, 0, 2179.954833984375
126, 0, 0, 2110.780517578125
127, 0, 0, 2051.964599609375
128, 0, 0, 1987.96630859375
129, 0, 0, 1937.494018554688
130, 0, 0, 1888.195434570312
131, 0, 0, 1843.338012695312
132, 0, 0, 1807.18798828125
133, 0, 0, 1774.044677734375
134, 0, 0, 1730.065673828125
135, 0, 0, 1698.758056640625
136, 0, 0, 1662.517822265625
137, 0, 0, 1634.743286132812
138, 0, 0, 1614.281494140625
139, 0, 0, 1585.243530273438
140, 0, 0, 1556.848510742188
141, 0, 0, 1534.426391601562
142, 0, 0, 1510.962280273438
143, 0, 0, 1491.695434570312
144, 0, 0, 1466.869384765625
145, 0, 0, 1448.665771484375
146, 0, 0, 1435.37109375
147, 0, 0, 1423.442749023438
148, 0, 0, 1398.157104492188
149, 0, 0, 1379.862548828125
150, 0, 0, 1359.31396484375
151, 0, 0, 1353.92578125
152, 0, 0, 1342.961303710938
153, 0, 0, 1324.786743164062
154, 0, 0, 1306.741088867188
155, 0, 0, 1296.062377929688
156, 0, 0, 1282.175048828125
157, 0, 0, 1269.552734375
158, 0, 0, 1261.574951171875
159, 0, 0, 1245.6416015625
160, 0, 0, 1237.108154296875
161, 0, 0, 1225.960205078125
162, 0, 0, 1214.169189453125
163, 0, 0, 1200.444458007812
164, 0, 0, 1200.87451171875
165, 0, 0, 1183.606689453125
166, 0, 0, 1177.5615234375
167, 0, 0, 1166.48974609375
168, 0, 0, 1166.5576171875
169, 0, 0, 1153.8857421875
170, 0, 0, 1138.787353515625
171, 0, 0, 1135.414184570312
172, 0, 0, 1129.098510742188
173, 0, 0, 1119.99267578125
174, 0, 0, 1117.8701171875
175, 0, 0, 1101.615356445312
176, 0, 0, 1105.4892578125
177, 0, 0, 1094.086547851562
178, 0, 0, 1077.5478515625
179, 0, 0, 1079.241821289062
