# TOPAS Version: 3.3.p1
# Parameter File: Test.txt
# Results for scorer MLIC_Scorer
# Scored in component: MLIC
# X in 180 bins of 0.177778 cm
# Y in 1 bin  of 10 cm
# Z in 1 bin  of 10 cm
# EnergyDeposit ( MeV ) : Sum   
0, 0, 0, 0.0004105277184862643
1, 0, 0, 0
2, 0, 0, 0
3, 0, 0, 0
4, 0, 0, 0.008525374345481396
5, 0, 0, 0
6, 0, 0, 0
7, 0, 0, 0.005160392262041569
8, 0, 0, 0.01138428598642349
9, 0, 0, 0
10, 0, 0, 0
11, 0, 0, 0
12, 0, 0, 0.0009696360793896019
13, 0, 0, 0
14, 0, 0, 0
15, 0, 0, 62.06300735473633
16, 0, 0, 344.9043579101562
17, 0, 0, 1075.711303710938
18, 0, 0, 2283.347900390625
19, 0, 0, 3815.509521484375
20, 0, 0, 4907.7236328125
21, 0, 0, 5140.9111328125
22, 0, 0, 4670.29296875
23, 0, 0, 4128.60986328125
24, 0, 0, 3647.609375
25, 0, 0, 3288.679931640625
26, 0, 0, 3008.01318359375
27, 0, 0, 2797.618896484375
28, 0, 0, 2639.17333984375
29, 0, 0, 2506.7509765625
30, 0, 0, 2392.53466796875
31, 0, 0, 2296.68896484375
32, 0, 0, 2209.82080078125
33, 0, 0, 2134.382080078125
34, 0, 0, 2068.71240234375
35, 0, 0, 2003.213989257812
36, 0, 0, 1955.701538085938
37, 0, 0, 1899.1318359375
38, 0, 0, 1859.308349609375
39, 0, 0, 1822.844116210938
40, 0, 0, 1780.821533203125
41, 0, 0, 1740.575317382812
42, 0, 0, 1711.593505859375
43, 0, 0, 1673.625732421875
44, 0, 0, 1648.41796875
45, 0, 0, 1616.681518554688
46, 0, 0, 1591.284790039062
47, 0, 0, 1574.336059570312
48, 0, 0, 1550.724609375
49, 0, 0, 1525.081665039062
50, 0, 0, 1500.091796875
51, 0, 0, 1472.358642578125
52, 0, 0, 1459.288452148438
53, 0, 0, 1439.893920898438
54, 0, 0, 1419.59033203125
55, 0, 0, 1408.384643554688
56, 0, 0, 1392.600219726562
57, 0, 0, 1376.440185546875
58, 0, 0, 1354.897094726562
59, 0, 0, 1344.2099609375
60, 0, 0, 1334.225341796875
61, 0, 0, 1317.540405273438
62, 0, 0, 1304.488647460938
63, 0, 0, 1287.560180664062
64, 0, 0, 1281.148071289062
65, 0, 0, 1268.697387695312
66, 0, 0, 1252.266357421875
67, 0, 0, 1242.05224609375
68, 0, 0, 1232.650634765625
69, 0, 0, 1228.658447265625
70, 0, 0, 1211.856689453125
71, 0, 0, 1203.12060546875
72, 0, 0, 1193.32763671875
73, 0, 0, 1176.477294921875
74, 0, 0, 1166.220703125
75, 0, 0, 1158.603149414062
76, 0, 0, 1155.886474609375
77, 0, 0, 1148.111938476562
78, 0, 0, 1137.253662109375
79, 0, 0, 1138.16015625
80, 0, 0, 1124.703735351562
81, 0, 0, 1106.6162109375
82, 0, 0, 1131.846069335938
83, 0, 0, 1113.837646484375
84, 0, 0, 1096.0888671875
85, 0, 0, 1083.913818359375
86, 0, 0, 1086.953735351562
87, 0, 0, 1080.628173828125
88, 0, 0, 1065.715576171875
89, 0, 0, 1063.109008789062
90, 0, 0, 1054.520874023438
91, 0, 0, 1050.803833007812
92, 0, 0, 1040.178955078125
93, 0, 0, 1036.876831054688
94, 0, 0, 1030.97021484375
95, 0, 0, 1027.92431640625
96, 0, 0, 1025.632080078125
97, 0, 0, 1010.015991210938
98, 0, 0, 1010.775695800781
99, 0, 0, 1006.985961914062
100, 0, 0, 1003.047424316406
101, 0, 0, 992.55517578125
102, 0, 0, 993.4969482421875
103, 0, 0, 984.4033203125
104, 0, 0, 980.7315673828125
105, 0, 0, 974.4999389648438
106, 0, 0, 974.3303833007812
107, 0, 0, 966.8372802734375
108, 0, 0, 968.338623046875
109, 0, 0, 961.4481201171875
110, 0, 0, 944.0607299804688
111, 0, 0, 950.3910522460938
112, 0, 0, 948.8910522460938
113, 0, 0, 945.296630859375
114, 0, 0, 937.9537353515625
115, 0, 0, 935.1361083984375
116, 0, 0, 934.79248046875
117, 0, 0, 928.9149780273438
118, 0, 0, 923.78076171875
119, 0, 0, 915.43603515625
120, 0, 0, 914.0436401367188
121, 0, 0, 917.108154296875
122, 0, 0, 913.6390380859375
123, 0, 0, 903.9581909179688
124, 0, 0, 906.28564453125
125, 0, 0, 905.5144653320312
126, 0, 0, 904.5415649414062
127, 0, 0, 895.5145263671875
128, 0, 0, 893.8900756835938
129, 0, 0, 886.291259765625
130, 0, 0, 885
131, 0, 0, 875.2799072265625
132, 0, 0, 877.7174682617188
133, 0, 0, 883.7213745117188
134, 0, 0, 868.7798461914062
135, 0, 0, 870.9430541992188
136, 0, 0, 866.40087890625
137, 0, 0, 863.25732421875
138, 0, 0, 860.0543823242188
139, 0, 0, 857.5783081054688
140, 0, 0, 859.5535278320312
141, 0, 0, 849.4002075195312
142, 0, 0, 841.9467163085938
143, 0, 0, 852.5817260742188
144, 0, 0, 851.961669921875
145, 0, 0, 841.6563720703125
146, 0, 0, 839.6328125
147, 0, 0, 838.8143310546875
148, 0, 0, 836.8074951171875
149, 0, 0, 835.4725341796875
150, 0, 0, 833.0872802734375
151, 0, 0, 822.950927734375
152, 0, 0, 812.8462524414062
153, 0, 0, 818.4847412109375
154, 0, 0, 820.9376831054688
155, 0, 0, 820.0012817382812
156, 0, 0, 820.167236328125
157, 0, 0, 810.8851928710938
158, 0, 0, 816.3027954101562
159, 0, 0, 808.9508056640625
160, 0, 0, 804.7334594726562
161, 0, 0, 805.4963989257812
162, 0, 0, 803.8768310546875
163, 0, 0, 803.7810668945312
164, 0, 0, 791.2191162109375
165, 0, 0, 798.4483642578125
166, 0, 0, 797.4530029296875
167, 0, 0, 794.7054443359375
168, 0, 0, 795.4716796875
169, 0, 0, 790.5765380859375
170, 0, 0, 785.6705322265625
171, 0, 0, 782.8314208984375
172, 0, 0, 777.5151977539062
173, 0, 0, 774.8740234375
174, 0, 0, 783.3085327148438
175, 0, 0, 778.6726684570312
176, 0, 0, 776.0905151367188
177, 0, 0, 767.194091796875
178, 0, 0, 775.5904541015625
179, 0, 0, 771.64111328125
