# TOPAS Version: 3.3.p1
# Parameter File: Test.txt
# Results for scorer MLIC_Scorer
# Scored in component: MLIC
# X in 165 bins of 0.2 cm
# Y in 1 bin  of 10 cm
# Z in 1 bin  of 10 cm
# EnergyDeposit ( MeV ) : Sum   
0, 0, 0, 0
1, 0, 0, 0
2, 0, 0, 0
3, 0, 0, 0
4, 0, 0, 0
5, 0, 0, 0
6, 0, 0, 0
7, 0, 0, 0
8, 0, 0, 0
9, 0, 0, 0
10, 0, 0, 0
11, 0, 0, 0
12, 0, 0, 0
13, 0, 0, 0
14, 0, 0, 0
15, 0, 0, 0
16, 0, 0, 0
17, 0, 0, 0
18, 0, 0, 0
19, 0, 0, 0
20, 0, 0, 0
21, 0, 0, 0
22, 0, 0, 0
23, 0, 0, 0
24, 0, 0, 0
25, 0, 0, 0
26, 0, 0, 0
27, 0, 0, 0
28, 0, 0, 0.004790268838405609
29, 0, 0, 0
30, 0, 0, 0
31, 0, 0, 0
32, 0, 0, 0
33, 0, 0, 0
34, 0, 0, 0
35, 0, 0, 0
36, 0, 0, 0
37, 0, 0, 0
38, 0, 0, 0
39, 0, 0, 0
40, 0, 0, 0
41, 0, 0, 0
42, 0, 0, 0
43, 0, 0, 0
44, 0, 0, 0
45, 0, 0, 0
46, 0, 0, 0
47, 0, 0, 0
48, 0, 0, 0
49, 0, 0, 0
50, 0, 0, 0
51, 0, 0, 0.004064999986439943
52, 0, 0, 0
53, 0, 0, 0
54, 0, 0, 0.0250221248716116
55, 0, 0, 0
56, 0, 0, 0
57, 0, 0, 0
58, 0, 0, 0
59, 0, 0, 0
60, 0, 0, 0
61, 0, 0, 0.002431339817121625
62, 0, 0, 0
63, 0, 0, 0
64, 0, 0, 0
65, 0, 0, 0
66, 0, 0, 0
67, 0, 0, 0
68, 0, 0, 0
69, 0, 0, 0
70, 0, 0, 0
71, 0, 0, 0
72, 0, 0, 0
73, 0, 0, 0
74, 0, 0, 0
75, 0, 0, 0
76, 0, 0, 0
77, 0, 0, 0
78, 0, 0, 0
79, 0, 0, 0
80, 0, 0, 0
81, 0, 0, 0
82, 0, 0, 0
83, 0, 0, 0
84, 0, 0, 0
85, 0, 0, 0
86, 0, 0, 0
87, 0, 0, 0
88, 0, 0, 0
89, 0, 0, 0
90, 0, 0, 0
91, 0, 0, 0
92, 0, 0, 0
93, 0, 0, 0
94, 0, 0, 0
95, 0, 0, 0
96, 0, 0, 0
97, 0, 0, 0
98, 0, 0, 0
99, 0, 0, 0
100, 0, 0, 0
101, 0, 0, 0.02112985402345657
102, 0, 0, 0
103, 0, 0, 0
104, 0, 0, 0
105, 0, 0, 0
106, 0, 0, 0
107, 0, 0, 10.85400772094727
108, 0, 0, 120.6225662231445
109, 0, 0, 491.8069458007812
110, 0, 0, 1436.9013671875
111, 0, 0, 2823.316162109375
112, 0, 0, 4591.630859375
113, 0, 0, 5480.3037109375
114, 0, 0, 5380.68798828125
115, 0, 0, 4850.4521484375
116, 0, 0, 4294.455078125
117, 0, 0, 3767.80322265625
118, 0, 0, 3393.437255859375
119, 0, 0, 3139.2890625
120, 0, 0, 2933.45654296875
121, 0, 0, 2770.154541015625
122, 0, 0, 2641.640869140625
123, 0, 0, 2526.331298828125
124, 0, 0, 2427.6240234375
125, 0, 0, 2338.25048828125
126, 0, 0, 2271.191162109375
127, 0, 0, 2196.744873046875
128, 0, 0, 2135.169677734375
129, 0, 0, 2071.992431640625
130, 0, 0, 2018.151123046875
131, 0, 0, 1968.046142578125
132, 0, 0, 1928.233520507812
133, 0, 0, 1892.680419921875
134, 0, 0, 1853.341064453125
135, 0, 0, 1810.299926757812
136, 0, 0, 1778.458374023438
137, 0, 0, 1753.000854492188
138, 0, 0, 1715.039306640625
139, 0, 0, 1695.845703125
140, 0, 0, 1671.479736328125
141, 0, 0, 1641.3662109375
142, 0, 0, 1615.238647460938
143, 0, 0, 1596.532836914062
144, 0, 0, 1572.733154296875
145, 0, 0, 1555.119995117188
146, 0, 0, 1537.977661132812
147, 0, 0, 1510.228271484375
148, 0, 0, 1500.499389648438
149, 0, 0, 1482.3779296875
150, 0, 0, 1462.682983398438
151, 0, 0, 1449.854736328125
152, 0, 0, 1428.647216796875
153, 0, 0, 1427.520141601562
154, 0, 0, 1397.045654296875
155, 0, 0, 1379.509155273438
156, 0, 0, 1368.27978515625
157, 0, 0, 1364.6513671875
158, 0, 0, 1355.631103515625
159, 0, 0, 1335.95361328125
160, 0, 0, 1325.615600585938
161, 0, 0, 1317.89501953125
162, 0, 0, 1315.82861328125
163, 0, 0, 1293.392822265625
164, 0, 0, 1285.706298828125
