# TOPAS Version: 3.3.p1
# Parameter File: Test.txt
# Results for scorer MLIC_Scorer
# Scored in component: MLIC
# X in 180 bins of 0.222222 cm
# Y in 1 bin  of 10 cm
# Z in 1 bin  of 10 cm
# EnergyDeposit ( MeV ) : Sum   
0, 0, 0, 0
1, 0, 0, 0
2, 0, 0, 0
3, 0, 0, 0
4, 0, 0, 0
5, 0, 0, 0
6, 0, 0, 0
7, 0, 0, 0
8, 0, 0, 0
9, 0, 0, 0
10, 0, 0, 0
11, 0, 0, 0
12, 0, 0, 0
13, 0, 0, 0.0009531563264317811
14, 0, 0, 0
15, 0, 0, 0
16, 0, 0, 0
17, 0, 0, 0
18, 0, 0, 0
19, 0, 0, 0
20, 0, 0, 0
21, 0, 0, 0
22, 0, 0, 0
23, 0, 0, 0
24, 0, 0, 0
25, 0, 0, 0
26, 0, 0, 0
27, 0, 0, 0
28, 0, 0, 0
29, 0, 0, 0
30, 0, 0, 0
31, 0, 0, 0
32, 0, 0, 0
33, 0, 0, 0
34, 0, 0, 0
35, 0, 0, 0
36, 0, 0, 0
37, 0, 0, 0
38, 0, 0, 0
39, 0, 0, 0.0003176232276018709
40, 0, 0, 0
41, 0, 0, 0
42, 0, 0, 0
43, 0, 0, 0
44, 0, 0, 0.0007166956202127039
45, 0, 0, 0.03030267916619778
46, 0, 0, 119.7672348022461
47, 0, 0, 577.1141967773438
48, 0, 0, 2096.82666015625
49, 0, 0, 4528.46240234375
50, 0, 0, 6041.61279296875
51, 0, 0, 6346.203125
52, 0, 0, 5561.48046875
53, 0, 0, 4670.28515625
54, 0, 0, 4077.9482421875
55, 0, 0, 3673.09716796875
56, 0, 0, 3383.9013671875
57, 0, 0, 3162.666748046875
58, 0, 0, 2980.647216796875
59, 0, 0, 2837.090087890625
60, 0, 0, 2700.93359375
61, 0, 0, 2592.3935546875
62, 0, 0, 2509.782958984375
63, 0, 0, 2429.07421875
64, 0, 0, 2352.63916015625
65, 0, 0, 2277.261962890625
66, 0, 0, 2221.658935546875
67, 0, 0, 2157.154052734375
68, 0, 0, 2109.5888671875
69, 0, 0, 2057.771240234375
70, 0, 0, 2014.907470703125
71, 0, 0, 1980.762817382812
72, 0, 0, 1942.976440429688
73, 0, 0, 1906.0966796875
74, 0, 0, 1867.931274414062
75, 0, 0, 1842.614990234375
76, 0, 0, 1805.884765625
77, 0, 0, 1779.5517578125
78, 0, 0, 1754.751342773438
79, 0, 0, 1735.078369140625
80, 0, 0, 1702.4091796875
81, 0, 0, 1674.889282226562
82, 0, 0, 1666.2177734375
83, 0, 0, 1634.294189453125
84, 0, 0, 1612.401977539062
85, 0, 0, 1608.949829101562
86, 0, 0, 1581.450805664062
87, 0, 0, 1563.884521484375
88, 0, 0, 1549.400146484375
89, 0, 0, 1537.69287109375
90, 0, 0, 1516.621215820312
91, 0, 0, 1500.117797851562
92, 0, 0, 1483.264526367188
93, 0, 0, 1468.652221679688
94, 0, 0, 1454.319946289062
95, 0, 0, 1442.19287109375
96, 0, 0, 1427.604736328125
97, 0, 0, 1421.385009765625
98, 0, 0, 1407.603881835938
99, 0, 0, 1394.989013671875
100, 0, 0, 1387.6474609375
101, 0, 0, 1372.24658203125
102, 0, 0, 1366.921875
103, 0, 0, 1354.401977539062
104, 0, 0, 1343.0869140625
105, 0, 0, 1334.294921875
106, 0, 0, 1320.717407226562
107, 0, 0, 1311.900634765625
108, 0, 0, 1309.044921875
109, 0, 0, 1287.267578125
110, 0, 0, 1281.522583007812
111, 0, 0, 1272.195922851562
112, 0, 0, 1271.208374023438
113, 0, 0, 1256.410766601562
114, 0, 0, 1256.795532226562
115, 0, 0, 1231.433227539062
116, 0, 0, 1240.4345703125
117, 0, 0, 1236.672973632812
118, 0, 0, 1214.887084960938
119, 0, 0, 1211.694946289062
120, 0, 0, 1208.160766601562
121, 0, 0, 1195.009521484375
122, 0, 0, 1198.563720703125
123, 0, 0, 1190.399169921875
124, 0, 0, 1188.48876953125
125, 0, 0, 1175.7138671875
126, 0, 0, 1168.021850585938
127, 0, 0, 1167.3203125
128, 0, 0, 1158.468872070312
129, 0, 0, 1154.181274414062
130, 0, 0, 1149.00634765625
131, 0, 0, 1151.062866210938
132, 0, 0, 1136.762084960938
133, 0, 0, 1123.0107421875
134, 0, 0, 1121.532470703125
135, 0, 0, 1122.867309570312
136, 0, 0, 1118.310668945312
137, 0, 0, 1108.890014648438
138, 0, 0, 1101.598388671875
139, 0, 0, 1090.947265625
140, 0, 0, 1086.291015625
141, 0, 0, 1090.783813476562
142, 0, 0, 1097.900512695312
143, 0, 0, 1078.855102539062
144, 0, 0, 1076.158813476562
145, 0, 0, 1075.524169921875
146, 0, 0, 1072.959838867188
147, 0, 0, 1066.947021484375
148, 0, 0, 1067.474853515625
149, 0, 0, 1068.488037109375
150, 0, 0, 1053.885375976562
151, 0, 0, 1044.894775390625
152, 0, 0, 1041.597778320312
153, 0, 0, 1047.456176757812
154, 0, 0, 1033.562133789062
155, 0, 0, 1031.982543945312
156, 0, 0, 1033.419067382812
157, 0, 0, 1031.233276367188
158, 0, 0, 1023.187866210938
159, 0, 0, 1017.948486328125
160, 0, 0, 1005.729919433594
161, 0, 0, 1014.313537597656
162, 0, 0, 1005.043884277344
163, 0, 0, 1005.127197265625
164, 0, 0, 996.1889038085938
165, 0, 0, 996.678955078125
166, 0, 0, 992.9202270507812
167, 0, 0, 989.66748046875
168, 0, 0, 988.57373046875
169, 0, 0, 987.35888671875
170, 0, 0, 976.9751586914062
171, 0, 0, 986.1228637695312
172, 0, 0, 976.3148193359375
173, 0, 0, 975.1441040039062
174, 0, 0, 963.8887329101562
175, 0, 0, 959.925537109375
176, 0, 0, 969.4404907226562
177, 0, 0, 969.1839599609375
178, 0, 0, 960.54296875
179, 0, 0, 961.4891967773438
