# TOPAS Version: 3.3.p1
# Parameter File: Test.txt
# Results for scorer MLIC_Scorer
# Scored in component: MLIC
# X in 180 bins of 0.177778 cm
# Y in 1 bin  of 10 cm
# Z in 1 bin  of 10 cm
# EnergyDeposit ( MeV ) : Sum   
0, 0, 0, 0
1, 0, 0, 0
2, 0, 0, 0
3, 0, 0, 0
4, 0, 0, 0
5, 0, 0, 0
6, 0, 0, 0
7, 0, 0, 0
8, 0, 0, 0
9, 0, 0, 0
10, 0, 0, 0
11, 0, 0, 0
12, 0, 0, 0
13, 0, 0, 0
14, 0, 0, 0
15, 0, 0, 0
16, 0, 0, 0
17, 0, 0, 0
18, 0, 0, 0
19, 0, 0, 0
20, 0, 0, 0
21, 0, 0, 0
22, 0, 0, 0
23, 0, 0, 0
24, 0, 0, 0
25, 0, 0, 0
26, 0, 0, 0
27, 0, 0, 0
28, 0, 0, 0
29, 0, 0, 0
30, 0, 0, 0
31, 0, 0, 0
32, 0, 0, 0
33, 0, 0, 0
34, 0, 0, 0
35, 0, 0, 0
36, 0, 0, 0
37, 0, 0, 0
38, 0, 0, 0
39, 0, 0, 0
40, 0, 0, 0
41, 0, 0, 0
42, 0, 0, 0
43, 0, 0, 0
44, 0, 0, 0
45, 0, 0, 0
46, 0, 0, 0
47, 0, 0, 0
48, 0, 0, 0
49, 0, 0, 0
50, 0, 0, 0
51, 0, 0, 0
52, 0, 0, 0
53, 0, 0, 0
54, 0, 0, 0
55, 0, 0, 0
56, 0, 0, 0
57, 0, 0, 0
58, 0, 0, 0
59, 0, 0, 0
60, 0, 0, 0
61, 0, 0, 0
62, 0, 0, 0
63, 0, 0, 0
64, 0, 0, 0
65, 0, 0, 0
66, 0, 0, 0
67, 0, 0, 0
68, 0, 0, 0
69, 0, 0, 0
70, 0, 0, 0
71, 0, 0, 0
72, 0, 0, 0
73, 0, 0, 0
74, 0, 0, 0
75, 0, 0, 0
76, 0, 0, 0
77, 0, 0, 0
78, 0, 0, 0
79, 0, 0, 0
80, 0, 0, 0
81, 0, 0, 0
82, 0, 0, 0
83, 0, 0, 0
84, 0, 0, 0
85, 0, 0, 0
86, 0, 0, 0
87, 0, 0, 0
88, 0, 0, 0
89, 0, 0, 0.03395179286599159
90, 0, 0, 0
91, 0, 0, 0
92, 0, 0, 0
93, 0, 0, 0
94, 0, 0, 0
95, 0, 0, 0
96, 0, 0, 0
97, 0, 0, 0
98, 0, 0, 0
99, 0, 0, 0
100, 0, 0, 0
101, 0, 0, 0
102, 0, 0, 0
103, 0, 0, 0
104, 0, 0, 0
105, 0, 0, 0
106, 0, 0, 0
107, 0, 0, 0
108, 0, 0, 0
109, 0, 0, 0
110, 0, 0, 0
111, 0, 0, 0
112, 0, 0, 0
113, 0, 0, 0
114, 0, 0, 0
115, 0, 0, 0
116, 0, 0, 0
117, 0, 0, 0
118, 0, 0, 0.004356055054813623
119, 0, 0, 0
120, 0, 0, 0
121, 0, 0, 0.0008286198717541993
122, 0, 0, 0.004254097118973732
123, 0, 0, 0.004947977606207132
124, 0, 0, 9.340543746948242
125, 0, 0, 61.01650619506836
126, 0, 0, 375.6456298828125
127, 0, 0, 1016.245666503906
128, 0, 0, 2257.973388671875
129, 0, 0, 3763.580810546875
130, 0, 0, 4835.31103515625
131, 0, 0, 5176.97802734375
132, 0, 0, 4744.6767578125
133, 0, 0, 4135.79931640625
134, 0, 0, 3675.440673828125
135, 0, 0, 3288.875
136, 0, 0, 3013.781494140625
137, 0, 0, 2808.0908203125
138, 0, 0, 2641.478515625
139, 0, 0, 2505.746337890625
140, 0, 0, 2388.132080078125
141, 0, 0, 2305.41650390625
142, 0, 0, 2216.294921875
143, 0, 0, 2140.56591796875
144, 0, 0, 2074.5732421875
145, 0, 0, 2013.2255859375
146, 0, 0, 1959.618408203125
147, 0, 0, 1905.554931640625
148, 0, 0, 1859.144775390625
149, 0, 0, 1819.19384765625
150, 0, 0, 1779.505859375
151, 0, 0, 1742.5087890625
152, 0, 0, 1711.130737304688
153, 0, 0, 1673.968505859375
154, 0, 0, 1648.900512695312
155, 0, 0, 1619.183349609375
156, 0, 0, 1584.642822265625
157, 0, 0, 1571.824584960938
158, 0, 0, 1537.919189453125
159, 0, 0, 1520.4150390625
160, 0, 0, 1502.309692382812
161, 0, 0, 1481.356079101562
162, 0, 0, 1455.6806640625
163, 0, 0, 1441.714721679688
164, 0, 0, 1422.275024414062
165, 0, 0, 1410.47216796875
166, 0, 0, 1388.358642578125
167, 0, 0, 1374.96533203125
168, 0, 0, 1354.671630859375
169, 0, 0, 1346.015380859375
170, 0, 0, 1332.55029296875
171, 0, 0, 1314.9970703125
172, 0, 0, 1301.674682617188
173, 0, 0, 1292.490600585938
174, 0, 0, 1273.871948242188
175, 0, 0, 1263.753540039062
176, 0, 0, 1253.663696289062
177, 0, 0, 1235.381469726562
178, 0, 0, 1226.1767578125
179, 0, 0, 1220.247802734375
