# TOPAS Version: 3.3.p1
# Parameter File: Test.txt
# Results for scorer MLIC_Scorer
# Scored in component: MLIC
# X in 180 bins of 0.183333 cm
# Y in 1 bin  of 10 cm
# Z in 1 bin  of 10 cm
# EnergyDeposit ( MeV ) : Sum   
0, 0, 0, 0
1, 0, 0, 0
2, 0, 0, 0
3, 0, 0, 0
4, 0, 0, 0
5, 0, 0, 0
6, 0, 0, 0
7, 0, 0, 0
8, 0, 0, 0
9, 0, 0, 0
10, 0, 0, 0
11, 0, 0, 0
12, 0, 0, 0
13, 0, 0, 0
14, 0, 0, 0
15, 0, 0, 8.386893272399902
16, 0, 0, 227.3958129882812
17, 0, 0, 742.875244140625
18, 0, 0, 1787.08642578125
19, 0, 0, 3149.40673828125
20, 0, 0, 4574.78564453125
21, 0, 0, 5031.01171875
22, 0, 0, 4996.75390625
23, 0, 0, 4521.857421875
24, 0, 0, 3966.05126953125
25, 0, 0, 3471.51416015625
26, 0, 0, 3174.201904296875
27, 0, 0, 2940.29150390625
28, 0, 0, 2749.079833984375
29, 0, 0, 2605.287841796875
30, 0, 0, 2476.0576171875
31, 0, 0, 2383.639404296875
32, 0, 0, 2284.160400390625
33, 0, 0, 2208.27490234375
34, 0, 0, 2134.813720703125
35, 0, 0, 2074.285400390625
36, 0, 0, 2017.738037109375
37, 0, 0, 1960.942504882812
38, 0, 0, 1910.300659179688
39, 0, 0, 1867.386596679688
40, 0, 0, 1824.115478515625
41, 0, 0, 1790.369262695312
42, 0, 0, 1755.591674804688
43, 0, 0, 1718.013549804688
44, 0, 0, 1684.110961914062
45, 0, 0, 1664.016479492188
46, 0, 0, 1638.749633789062
47, 0, 0, 1602.560546875
48, 0, 0, 1582.784790039062
49, 0, 0, 1551.689575195312
50, 0, 0, 1530.783813476562
51, 0, 0, 1512.442993164062
52, 0, 0, 1489.212768554688
53, 0, 0, 1472.837158203125
54, 0, 0, 1457.428466796875
55, 0, 0, 1436.70263671875
56, 0, 0, 1424.584594726562
57, 0, 0, 1406.1396484375
58, 0, 0, 1389.200439453125
59, 0, 0, 1372.1572265625
60, 0, 0, 1357.498901367188
61, 0, 0, 1352.56005859375
62, 0, 0, 1331.661743164062
63, 0, 0, 1318.03857421875
64, 0, 0, 1300.655395507812
65, 0, 0, 1293.38818359375
66, 0, 0, 1278.715209960938
67, 0, 0, 1268.755493164062
68, 0, 0, 1257.793701171875
69, 0, 0, 1250.372680664062
70, 0, 0, 1236.311889648438
71, 0, 0, 1231.1328125
72, 0, 0, 1211.196655273438
73, 0, 0, 1204.54150390625
74, 0, 0, 1197.914306640625
75, 0, 0, 1183.447265625
76, 0, 0, 1186.47119140625
77, 0, 0, 1169.259643554688
78, 0, 0, 1161.890014648438
79, 0, 0, 1157.00390625
80, 0, 0, 1148.837280273438
81, 0, 0, 1148.78857421875
82, 0, 0, 1137.068969726562
83, 0, 0, 1128.109985351562
84, 0, 0, 1111.903930664062
85, 0, 0, 1108.036987304688
86, 0, 0, 1102.202026367188
87, 0, 0, 1091.553344726562
88, 0, 0, 1093.23974609375
89, 0, 0, 1087.681884765625
90, 0, 0, 1080.690795898438
91, 0, 0, 1080.578125
92, 0, 0, 1068.484985351562
93, 0, 0, 1060.525024414062
94, 0, 0, 1056.712768554688
95, 0, 0, 1051.0126953125
96, 0, 0, 1042.907592773438
97, 0, 0, 1035.6103515625
98, 0, 0, 1032.454223632812
99, 0, 0, 1024.746459960938
100, 0, 0, 1021.724548339844
101, 0, 0, 1017.5126953125
102, 0, 0, 1014.421875
103, 0, 0, 1005.996704101562
104, 0, 0, 1004.569030761719
105, 0, 0, 998.2561645507812
106, 0, 0, 995.5595703125
107, 0, 0, 982.395751953125
108, 0, 0, 980.613525390625
109, 0, 0, 979.1155395507812
110, 0, 0, 977.390380859375
111, 0, 0, 981.7069702148438
112, 0, 0, 964.070556640625
113, 0, 0, 960.280517578125
114, 0, 0, 964.883544921875
115, 0, 0, 952.7711181640625
116, 0, 0, 953.7105102539062
117, 0, 0, 945.5703735351562
118, 0, 0, 938.3247680664062
119, 0, 0, 941.5158081054688
120, 0, 0, 943.8524169921875
121, 0, 0, 939.4544067382812
122, 0, 0, 926.944580078125
123, 0, 0, 918.738037109375
124, 0, 0, 927.6455688476562
125, 0, 0, 919.7816772460938
126, 0, 0, 912.0435180664062
127, 0, 0, 915.0938110351562
128, 0, 0, 919.1596069335938
129, 0, 0, 911.0053100585938
130, 0, 0, 902.94775390625
131, 0, 0, 905.987060546875
132, 0, 0, 899.3363037109375
133, 0, 0, 897.572509765625
134, 0, 0, 888.1217041015625
135, 0, 0, 885.6817626953125
136, 0, 0, 886.37548828125
137, 0, 0, 881.4175415039062
138, 0, 0, 867.1366577148438
139, 0, 0, 879.6204223632812
140, 0, 0, 866.40673828125
141, 0, 0, 871.2136840820312
142, 0, 0, 870.7600708007812
143, 0, 0, 861.001220703125
144, 0, 0, 862.2227783203125
145, 0, 0, 847.6625366210938
146, 0, 0, 861.6342163085938
147, 0, 0, 856.2929077148438
148, 0, 0, 855.60546875
149, 0, 0, 853.8892211914062
150, 0, 0, 840.9642333984375
151, 0, 0, 838.661376953125
152, 0, 0, 840.4923095703125
153, 0, 0, 842.3360595703125
154, 0, 0, 842.8130493164062
155, 0, 0, 832.9190063476562
156, 0, 0, 835.6387329101562
157, 0, 0, 827.2698364257812
158, 0, 0, 835.4539184570312
159, 0, 0, 824.5546264648438
160, 0, 0, 829.3294067382812
161, 0, 0, 819.69677734375
162, 0, 0, 816.6221313476562
163, 0, 0, 821.4419555664062
164, 0, 0, 819.5243530273438
165, 0, 0, 817.8440551757812
166, 0, 0, 809.2761840820312
167, 0, 0, 808.4467163085938
168, 0, 0, 807.1735229492188
169, 0, 0, 804.3631591796875
170, 0, 0, 797.4786987304688
171, 0, 0, 796.8008422851562
172, 0, 0, 801.5101928710938
173, 0, 0, 795.396728515625
174, 0, 0, 797.3485717773438
175, 0, 0, 796.1992797851562
176, 0, 0, 791.654296875
177, 0, 0, 781.1021118164062
178, 0, 0, 789.958740234375
179, 0, 0, 785.1679077148438
