# TOPAS Version: 3.3.p1
# Parameter File: Test.txt
# Results for scorer MLIC_Scorer
# Scored in component: MLIC
# X in 180 bins of 0.183333 cm
# Y in 1 bin  of 10 cm
# Z in 1 bin  of 10 cm
# EnergyDeposit ( MeV ) : Sum   
0, 0, 0, 0
1, 0, 0, 0
2, 0, 0, 0
3, 0, 0, 0
4, 0, 0, 0
5, 0, 0, 0
6, 0, 0, 0
7, 0, 0, 0
8, 0, 0, 0
9, 0, 0, 0
10, 0, 0, 0.001021548756398261
11, 0, 0, 0
12, 0, 0, 0
13, 0, 0, 0
14, 0, 0, 0.006077499128878117
15, 0, 0, 0
16, 0, 0, 0
17, 0, 0, 0
18, 0, 0, 0
19, 0, 0, 0
20, 0, 0, 0
21, 0, 0, 0.06307399272918701
22, 0, 0, 0
23, 0, 0, 5.845479488372803
24, 0, 0, 64.39877319335938
25, 0, 0, 271.4148559570312
26, 0, 0, 848.9102172851562
27, 0, 0, 2033.295776367188
28, 0, 0, 3443.940673828125
29, 0, 0, 4699.15771484375
30, 0, 0, 5306.36865234375
31, 0, 0, 4864.677734375
32, 0, 0, 4349.8818359375
33, 0, 0, 3814.343505859375
34, 0, 0, 3455.130615234375
35, 0, 0, 3124.620361328125
36, 0, 0, 2902.221923828125
37, 0, 0, 2730.776123046875
38, 0, 0, 2585.48681640625
39, 0, 0, 2459.776611328125
40, 0, 0, 2360.17236328125
41, 0, 0, 2273.3662109375
42, 0, 0, 2193.682373046875
43, 0, 0, 2121.091064453125
44, 0, 0, 2058.435302734375
45, 0, 0, 2006.665771484375
46, 0, 0, 1947.82763671875
47, 0, 0, 1910.65185546875
48, 0, 0, 1858.05615234375
49, 0, 0, 1816.6064453125
50, 0, 0, 1781.613525390625
51, 0, 0, 1747.81298828125
52, 0, 0, 1715.492431640625
53, 0, 0, 1681.40283203125
54, 0, 0, 1657.342041015625
55, 0, 0, 1630.610107421875
56, 0, 0, 1597.901245117188
57, 0, 0, 1575.30517578125
58, 0, 0, 1552.931884765625
59, 0, 0, 1535.315673828125
60, 0, 0, 1510.703247070312
61, 0, 0, 1490.106201171875
62, 0, 0, 1477.783325195312
63, 0, 0, 1450.256103515625
64, 0, 0, 1440.2841796875
65, 0, 0, 1424.91455078125
66, 0, 0, 1399.408569335938
67, 0, 0, 1381.705322265625
68, 0, 0, 1369.6328125
69, 0, 0, 1350.129028320312
70, 0, 0, 1339.515380859375
71, 0, 0, 1332.16162109375
72, 0, 0, 1311.4482421875
73, 0, 0, 1309.801879882812
74, 0, 0, 1288.942993164062
75, 0, 0, 1283.273193359375
76, 0, 0, 1266.036376953125
77, 0, 0, 1261.776611328125
78, 0, 0, 1250.35009765625
79, 0, 0, 1241.470336914062
80, 0, 0, 1223.580444335938
81, 0, 0, 1214.300537109375
82, 0, 0, 1202.606323242188
83, 0, 0, 1202.195068359375
84, 0, 0, 1195.031982421875
85, 0, 0, 1178.070434570312
86, 0, 0, 1169.495727539062
87, 0, 0, 1162.85888671875
88, 0, 0, 1150.60400390625
89, 0, 0, 1146.756469726562
90, 0, 0, 1137.582275390625
91, 0, 0, 1132.482177734375
92, 0, 0, 1124.303588867188
93, 0, 0, 1110.742553710938
94, 0, 0, 1106.023559570312
95, 0, 0, 1102.539184570312
96, 0, 0, 1105.837646484375
97, 0, 0, 1090.276123046875
98, 0, 0, 1082.351196289062
99, 0, 0, 1081.265502929688
100, 0, 0, 1071.8984375
101, 0, 0, 1071.73388671875
102, 0, 0, 1047.237426757812
103, 0, 0, 1054.0595703125
104, 0, 0, 1051.41259765625
105, 0, 0, 1048.918334960938
106, 0, 0, 1037.373168945312
107, 0, 0, 1038.63427734375
108, 0, 0, 1026.20361328125
109, 0, 0, 1020.696350097656
110, 0, 0, 1017.646301269531
111, 0, 0, 1010.843017578125
112, 0, 0, 1007.693420410156
113, 0, 0, 1003.732666015625
114, 0, 0, 998.1987915039062
115, 0, 0, 988.3485717773438
116, 0, 0, 986.8298950195312
117, 0, 0, 976.2882690429688
118, 0, 0, 979.5346069335938
119, 0, 0, 977.7188110351562
120, 0, 0, 976.0863037109375
121, 0, 0, 974.2461547851562
122, 0, 0, 968.1363525390625
123, 0, 0, 968.5245361328125
124, 0, 0, 958.9305419921875
125, 0, 0, 953.5865478515625
126, 0, 0, 950.7457885742188
127, 0, 0, 941.6959228515625
128, 0, 0, 933.9383544921875
129, 0, 0, 939.754638671875
130, 0, 0, 931.0888671875
131, 0, 0, 927.6453857421875
132, 0, 0, 924.43505859375
133, 0, 0, 920.930908203125
134, 0, 0, 916.0657348632812
135, 0, 0, 917.456298828125
136, 0, 0, 911.7119140625
137, 0, 0, 907.2698974609375
138, 0, 0, 903.0156860351562
139, 0, 0, 907.8590087890625
140, 0, 0, 898.8642578125
141, 0, 0, 888.84912109375
142, 0, 0, 893.08935546875
143, 0, 0, 892.801025390625
144, 0, 0, 894.9874877929688
145, 0, 0, 887.3198852539062
146, 0, 0, 886.123291015625
147, 0, 0, 876.87841796875
148, 0, 0, 869.498779296875
149, 0, 0, 876.7163696289062
150, 0, 0, 877.8771362304688
151, 0, 0, 872.6204223632812
152, 0, 0, 871.892578125
153, 0, 0, 857.1461791992188
154, 0, 0, 858.594970703125
155, 0, 0, 854.4773559570312
156, 0, 0, 855.0066528320312
157, 0, 0, 852.3359985351562
158, 0, 0, 841.1594848632812
159, 0, 0, 849.4989013671875
160, 0, 0, 853.1775512695312
161, 0, 0, 844.11181640625
162, 0, 0, 837.5963134765625
163, 0, 0, 840.0540161132812
164, 0, 0, 831.9684448242188
165, 0, 0, 835.151123046875
166, 0, 0, 827.5255126953125
167, 0, 0, 829.2281494140625
168, 0, 0, 830.1700439453125
169, 0, 0, 813.18017578125
170, 0, 0, 819.7039184570312
171, 0, 0, 821.3759155273438
172, 0, 0, 818.6292724609375
173, 0, 0, 815.0313110351562
174, 0, 0, 812.26318359375
175, 0, 0, 807.3121337890625
176, 0, 0, 808.0093994140625
177, 0, 0, 807.6859130859375
178, 0, 0, 808.5574340820312
179, 0, 0, 798.7324829101562
