# TOPAS Version: 3.3.p1
# Parameter File: Test.txt
# Results for scorer MLIC_Scorer
# Scored in component: MLIC
# X in 165 bins of 0.2 cm
# Y in 1 bin  of 10 cm
# Z in 1 bin  of 10 cm
# EnergyDeposit ( MeV ) : Sum   
0, 0, 0, 0
1, 0, 0, 0
2, 0, 0, 0
3, 0, 0, 0
4, 0, 0, 0
5, 0, 0, 0
6, 0, 0, 0
7, 0, 0, 0
8, 0, 0, 0
9, 0, 0, 0
10, 0, 0, 0
11, 0, 0, 0
12, 0, 0, 0
13, 0, 0, 0
14, 0, 0, 0
15, 0, 0, 0
16, 0, 0, 0
17, 0, 0, 0
18, 0, 0, 0
19, 0, 0, 0
20, 0, 0, 0
21, 0, 0, 0
22, 0, 0, 0
23, 0, 0, 0
24, 0, 0, 0
25, 0, 0, 0
26, 0, 0, 0
27, 0, 0, 0
28, 0, 0, 0
29, 0, 0, 0
30, 0, 0, 0
31, 0, 0, 0
32, 0, 0, 0
33, 0, 0, 0
34, 0, 0, 0
35, 0, 0, 0
36, 0, 0, 0
37, 0, 0, 0
38, 0, 0, 0
39, 0, 0, 0
40, 0, 0, 0
41, 0, 0, 0.003840937279164791
42, 0, 0, 0
43, 0, 0, 0
44, 0, 0, 0
45, 0, 0, 0
46, 0, 0, 0
47, 0, 0, 0
48, 0, 0, 0
49, 0, 0, 0
50, 0, 0, 0
51, 0, 0, 0
52, 0, 0, 0
53, 0, 0, 0
54, 0, 0, 0
55, 0, 0, 0
56, 0, 0, 0
57, 0, 0, 0
58, 0, 0, 0
59, 0, 0, 0
60, 0, 0, 0
61, 0, 0, 0
62, 0, 0, 0
63, 0, 0, 0
64, 0, 0, 0
65, 0, 0, 0
66, 0, 0, 0
67, 0, 0, 0
68, 0, 0, 0
69, 0, 0, 0
70, 0, 0, 0
71, 0, 0, 0
72, 0, 0, 0
73, 0, 0, 0
74, 0, 0, 0
75, 0, 0, 17.42696952819824
76, 0, 0, 143.9766235351562
77, 0, 0, 443.5335693359375
78, 0, 0, 1215.105712890625
79, 0, 0, 2736.663330078125
80, 0, 0, 4668.92724609375
81, 0, 0, 5541.54052734375
82, 0, 0, 5458.8193359375
83, 0, 0, 4893.4033203125
84, 0, 0, 4280.46435546875
85, 0, 0, 3764.439453125
86, 0, 0, 3398.099365234375
87, 0, 0, 3136.733642578125
88, 0, 0, 2938.013916015625
89, 0, 0, 2773.243408203125
90, 0, 0, 2635.61328125
91, 0, 0, 2529.023193359375
92, 0, 0, 2421.760009765625
93, 0, 0, 2342.108154296875
94, 0, 0, 2265.80224609375
95, 0, 0, 2201.21533203125
96, 0, 0, 2137.47265625
97, 0, 0, 2074.281494140625
98, 0, 0, 2014.903564453125
99, 0, 0, 1968.234008789062
100, 0, 0, 1928.868286132812
101, 0, 0, 1894.850830078125
102, 0, 0, 1852.773071289062
103, 0, 0, 1817.349975585938
104, 0, 0, 1788.347778320312
105, 0, 0, 1760.697875976562
106, 0, 0, 1724.5537109375
107, 0, 0, 1696.306762695312
108, 0, 0, 1669.560913085938
109, 0, 0, 1639.289794921875
110, 0, 0, 1621.820068359375
111, 0, 0, 1603.921875
112, 0, 0, 1579.994384765625
113, 0, 0, 1549.855834960938
114, 0, 0, 1536.150024414062
115, 0, 0, 1518.8837890625
116, 0, 0, 1497.100830078125
117, 0, 0, 1478.920043945312
118, 0, 0, 1462.736938476562
119, 0, 0, 1447.59375
120, 0, 0, 1432.992431640625
121, 0, 0, 1423.690185546875
122, 0, 0, 1397.390991210938
123, 0, 0, 1382.600830078125
124, 0, 0, 1372.447265625
125, 0, 0, 1368.582397460938
126, 0, 0, 1346.311401367188
127, 0, 0, 1337.1513671875
128, 0, 0, 1326.722778320312
129, 0, 0, 1312.342163085938
130, 0, 0, 1307.35400390625
131, 0, 0, 1299.702514648438
132, 0, 0, 1286.469116210938
133, 0, 0, 1269.9580078125
134, 0, 0, 1261.871337890625
135, 0, 0, 1255.160034179688
136, 0, 0, 1248.92626953125
137, 0, 0, 1233.708984375
138, 0, 0, 1232.8779296875
139, 0, 0, 1216.718994140625
140, 0, 0, 1201.883544921875
141, 0, 0, 1204.965087890625
142, 0, 0, 1197.890014648438
143, 0, 0, 1188.6923828125
144, 0, 0, 1182.455932617188
145, 0, 0, 1172.368041992188
146, 0, 0, 1161.457641601562
147, 0, 0, 1157.330322265625
148, 0, 0, 1156.067260742188
149, 0, 0, 1152.877319335938
150, 0, 0, 1140.730834960938
151, 0, 0, 1133.539184570312
152, 0, 0, 1122.82470703125
153, 0, 0, 1122.347045898438
154, 0, 0, 1115.380004882812
155, 0, 0, 1106.381713867188
156, 0, 0, 1109.417114257812
157, 0, 0, 1099.0615234375
158, 0, 0, 1084.195190429688
159, 0, 0, 1082.885986328125
160, 0, 0, 1075.461547851562
161, 0, 0, 1069.447143554688
162, 0, 0, 1071.070068359375
163, 0, 0, 1061.70556640625
164, 0, 0, 1067.101684570312
