# TOPAS Version: 3.3.p1
# Parameter File: Test.txt
# Results for scorer MLIC_Scorer
# Scored in component: MLIC
# X in 180 bins of 0.222222 cm
# Y in 1 bin  of 10 cm
# Z in 1 bin  of 10 cm
# EnergyDeposit ( MeV ) : Sum   
0, 0, 0, 0
1, 0, 0, 0
2, 0, 0, 0
3, 0, 0, 0
4, 0, 0, 0
5, 0, 0, 0
6, 0, 0, 0
7, 0, 0, 0
8, 0, 0, 0
9, 0, 0, 0
10, 0, 0, 0
11, 0, 0, 0
12, 0, 0, 0
13, 0, 0, 0
14, 0, 0, 0
15, 0, 0, 0
16, 0, 0, 0
17, 0, 0, 0
18, 0, 0, 0
19, 0, 0, 0
20, 0, 0, 0
21, 0, 0, 0
22, 0, 0, 0
23, 0, 0, 0
24, 0, 0, 0
25, 0, 0, 0
26, 0, 0, 0
27, 0, 0, 0
28, 0, 0, 0
29, 0, 0, 0
30, 0, 0, 0
31, 0, 0, 0
32, 0, 0, 0
33, 0, 0, 0
34, 0, 0, 0
35, 0, 0, 0
36, 0, 0, 0
37, 0, 0, 0
38, 0, 0, 0
39, 0, 0, 0
40, 0, 0, 0
41, 0, 0, 0
42, 0, 0, 0
43, 0, 0, 0
44, 0, 0, 0
45, 0, 0, 0
46, 0, 0, 0
47, 0, 0, 0
48, 0, 0, 0
49, 0, 0, 0
50, 0, 0, 0
51, 0, 0, 0
52, 0, 0, 0
53, 0, 0, 0
54, 0, 0, 0
55, 0, 0, 0
56, 0, 0, 0
57, 0, 0, 0
58, 0, 0, 0
59, 0, 0, 0
60, 0, 0, 0
61, 0, 0, 0
62, 0, 0, 0
63, 0, 0, 0
64, 0, 0, 0
65, 0, 0, 0
66, 0, 0, 0
67, 0, 0, 0
68, 0, 0, 0
69, 0, 0, 0
70, 0, 0, 0
71, 0, 0, 0
72, 0, 0, 0
73, 0, 0, 0
74, 0, 0, 0.02320711128413677
75, 0, 0, 0
76, 0, 0, 0.002170911990106106
77, 0, 0, 0
78, 0, 0, 0
79, 0, 0, 0
80, 0, 0, 0
81, 0, 0, 0
82, 0, 0, 0
83, 0, 0, 0
84, 0, 0, 0
85, 0, 0, 0
86, 0, 0, 0
87, 0, 0, 0
88, 0, 0, 0
89, 0, 0, 0
90, 0, 0, 0
91, 0, 0, 27.59895133972168
92, 0, 0, 219.4783020019531
93, 0, 0, 887.4702758789062
94, 0, 0, 2398.770263671875
95, 0, 0, 4646.89013671875
96, 0, 0, 6110.02734375
97, 0, 0, 6199.7109375
98, 0, 0, 5484.134765625
99, 0, 0, 4551.42822265625
100, 0, 0, 4015.07958984375
101, 0, 0, 3620.023193359375
102, 0, 0, 3345.755859375
103, 0, 0, 3135.913330078125
104, 0, 0, 2965.77587890625
105, 0, 0, 2811.4345703125
106, 0, 0, 2705.048828125
107, 0, 0, 2579.8935546875
108, 0, 0, 2491.687255859375
109, 0, 0, 2418.857421875
110, 0, 0, 2345.708740234375
111, 0, 0, 2282.487060546875
112, 0, 0, 2207.872314453125
113, 0, 0, 2155.21923828125
114, 0, 0, 2105.98974609375
115, 0, 0, 2053.11865234375
116, 0, 0, 2011.276245117188
117, 0, 0, 1974.48681640625
118, 0, 0, 1926.877197265625
119, 0, 0, 1907.881469726562
120, 0, 0, 1874.449829101562
121, 0, 0, 1826.108032226562
122, 0, 0, 1806.096557617188
123, 0, 0, 1771.504760742188
124, 0, 0, 1747.45166015625
125, 0, 0, 1725.35791015625
126, 0, 0, 1694.982421875
127, 0, 0, 1679.174072265625
128, 0, 0, 1662.86279296875
129, 0, 0, 1625.61865234375
130, 0, 0, 1614.74462890625
131, 0, 0, 1593.56884765625
132, 0, 0, 1575.961181640625
133, 0, 0, 1566.775756835938
134, 0, 0, 1537.023193359375
135, 0, 0, 1530.83203125
136, 0, 0, 1512.631591796875
137, 0, 0, 1496.853515625
138, 0, 0, 1478.55908203125
139, 0, 0, 1478.494995117188
140, 0, 0, 1452.107788085938
141, 0, 0, 1444.998657226562
142, 0, 0, 1418.997436523438
143, 0, 0, 1417.086547851562
144, 0, 0, 1400.880493164062
145, 0, 0, 1400.173706054688
146, 0, 0, 1374.994873046875
147, 0, 0, 1367.163818359375
148, 0, 0, 1365.298461914062
149, 0, 0, 1341.472290039062
150, 0, 0, 1339.888671875
151, 0, 0, 1330.704833984375
152, 0, 0, 1318.984130859375
153, 0, 0, 1299.030517578125
154, 0, 0, 1301.430297851562
155, 0, 0, 1284.585693359375
156, 0, 0, 1283.12841796875
157, 0, 0, 1270.5244140625
158, 0, 0, 1258.179077148438
159, 0, 0, 1256.435180664062
160, 0, 0, 1250.76611328125
161, 0, 0, 1245.372314453125
162, 0, 0, 1238.2080078125
163, 0, 0, 1222.91796875
164, 0, 0, 1220.751586914062
165, 0, 0, 1208.80224609375
166, 0, 0, 1202.090087890625
167, 0, 0, 1207.234375
168, 0, 0, 1191.15966796875
169, 0, 0, 1193.142333984375
170, 0, 0, 1186.843139648438
171, 0, 0, 1177.622192382812
172, 0, 0, 1171.0263671875
173, 0, 0, 1154.720825195312
174, 0, 0, 1159.023559570312
175, 0, 0, 1146.138061523438
176, 0, 0, 1150.799926757812
177, 0, 0, 1135.392333984375
178, 0, 0, 1135.8408203125
179, 0, 0, 1125.477294921875
