# TOPAS Version: 3.3.p1
# Parameter File: Test.txt
# Results for scorer MLIC_Scorer
# Scored in component: MLIC
# X in 180 bins of 0.177778 cm
# Y in 1 bin  of 10 cm
# Z in 1 bin  of 10 cm
# EnergyDeposit ( MeV ) : Sum   
0, 0, 0, 0
1, 0, 0, 0
2, 0, 0, 0
3, 0, 0, 0
4, 0, 0, 0
5, 0, 0, 0
6, 0, 0, 0
7, 0, 0, 0
8, 0, 0, 0
9, 0, 0, 0.02106917463243008
10, 0, 0, 0
11, 0, 0, 0
12, 0, 0, 0
13, 0, 0, 0
14, 0, 0, 0
15, 0, 0, 0
16, 0, 0, 0
17, 0, 0, 0
18, 0, 0, 0.004448345862329006
19, 0, 0, 0.001083096023648977
20, 0, 0, 0
21, 0, 0, 0
22, 0, 0, 0
23, 0, 0, 0
24, 0, 0, 0
25, 0, 0, 0.001428326824679971
26, 0, 0, 0
27, 0, 0, 0
28, 0, 0, 0
29, 0, 0, 0
30, 0, 0, 0
31, 0, 0, 0
32, 0, 0, 0
33, 0, 0, 0
34, 0, 0, 0
35, 0, 0, 0
36, 0, 0, 0
37, 0, 0, 0
38, 0, 0, 0
39, 0, 0, 0
40, 0, 0, 0
41, 0, 0, 0
42, 0, 0, 0.000421771255787462
43, 0, 0, 0
44, 0, 0, 0
45, 0, 0, 0
46, 0, 0, 0
47, 0, 0, 0.008396558463573456
48, 0, 0, 0
49, 0, 0, 0
50, 0, 0, 0
51, 0, 0, 0
52, 0, 0, 0.008448411710560322
53, 0, 0, 0
54, 0, 0, 0
55, 0, 0, 0
56, 0, 0, 0
57, 0, 0, 0
58, 0, 0, 0
59, 0, 0, 0
60, 0, 0, 0
61, 0, 0, 0
62, 0, 0, 0.002646678825840354
63, 0, 0, 0
64, 0, 0, 0
65, 0, 0, 0
66, 0, 0, 0
67, 0, 0, 0
68, 0, 0, 0
69, 0, 0, 0
70, 0, 0, 0
71, 0, 0, 0
72, 0, 0, 0.002426173770800233
73, 0, 0, 3.791438341140747
74, 0, 0, 117.8249588012695
75, 0, 0, 429.2156677246094
76, 0, 0, 1301.351806640625
77, 0, 0, 2577.63232421875
78, 0, 0, 3920.57763671875
79, 0, 0, 5079.9462890625
80, 0, 0, 5068.54150390625
81, 0, 0, 4656.15869140625
82, 0, 0, 4081.879638671875
83, 0, 0, 3564.646240234375
84, 0, 0, 3203.329833984375
85, 0, 0, 2958.37109375
86, 0, 0, 2766.178466796875
87, 0, 0, 2603.43359375
88, 0, 0, 2484.83251953125
89, 0, 0, 2376.470703125
90, 0, 0, 2278.95166015625
91, 0, 0, 2204.62109375
92, 0, 0, 2118.919677734375
93, 0, 0, 2060.737060546875
94, 0, 0, 2006.150512695312
95, 0, 0, 1943.1298828125
96, 0, 0, 1898.737670898438
97, 0, 0, 1848.498046875
98, 0, 0, 1805.681884765625
99, 0, 0, 1765.901000976562
100, 0, 0, 1737.20751953125
101, 0, 0, 1701.005737304688
102, 0, 0, 1666.116088867188
103, 0, 0, 1644.544799804688
104, 0, 0, 1614.253540039062
105, 0, 0, 1588.443725585938
106, 0, 0, 1558.3232421875
107, 0, 0, 1533.27294921875
108, 0, 0, 1515.81298828125
109, 0, 0, 1487.0400390625
110, 0, 0, 1467.349243164062
111, 0, 0, 1457.819458007812
112, 0, 0, 1443.28857421875
113, 0, 0, 1417.082153320312
114, 0, 0, 1392.9384765625
115, 0, 0, 1381.214111328125
116, 0, 0, 1369.187622070312
117, 0, 0, 1358.56298828125
118, 0, 0, 1334.581420898438
119, 0, 0, 1321.502319335938
120, 0, 0, 1315.876098632812
121, 0, 0, 1295.175170898438
122, 0, 0, 1286.770385742188
123, 0, 0, 1275.311157226562
124, 0, 0, 1252.349487304688
125, 0, 0, 1249.4775390625
126, 0, 0, 1237.373046875
127, 0, 0, 1231.75
128, 0, 0, 1216.0322265625
129, 0, 0, 1207.589965820312
130, 0, 0, 1196.317749023438
131, 0, 0, 1191.427856445312
132, 0, 0, 1184.276977539062
133, 0, 0, 1174.589477539062
134, 0, 0, 1165.82177734375
135, 0, 0, 1158.830688476562
136, 0, 0, 1148.123901367188
137, 0, 0, 1139.317138671875
138, 0, 0, 1136.0166015625
139, 0, 0, 1119.877563476562
140, 0, 0, 1115.16845703125
141, 0, 0, 1109.328247070312
142, 0, 0, 1101.598510742188
143, 0, 0, 1091.9638671875
144, 0, 0, 1081.137817382812
145, 0, 0, 1071.273315429688
146, 0, 0, 1081.19287109375
147, 0, 0, 1058.78857421875
148, 0, 0, 1066.986083984375
149, 0, 0, 1064.0029296875
150, 0, 0, 1050.443969726562
151, 0, 0, 1043.315185546875
152, 0, 0, 1044.070922851562
153, 0, 0, 1032.645874023438
154, 0, 0, 1026.107299804688
155, 0, 0, 1024.26708984375
156, 0, 0, 1014.026000976562
157, 0, 0, 1011.965576171875
158, 0, 0, 1003.846557617188
159, 0, 0, 1003.178649902344
160, 0, 0, 993.9039306640625
161, 0, 0, 998.4527587890625
162, 0, 0, 983.8914794921875
163, 0, 0, 983.6918334960938
164, 0, 0, 981.7549438476562
165, 0, 0, 974.124267578125
166, 0, 0, 972.740234375
167, 0, 0, 967.859619140625
168, 0, 0, 963.225341796875
169, 0, 0, 952.2315063476562
170, 0, 0, 943.8655395507812
171, 0, 0, 950.3345947265625
172, 0, 0, 933.4778442382812
173, 0, 0, 935.7879028320312
174, 0, 0, 938.3525390625
175, 0, 0, 935.8451538085938
176, 0, 0, 923.5430908203125
177, 0, 0, 928.5108642578125
178, 0, 0, 929.1121826171875
179, 0, 0, 916.680908203125
