# TOPAS Version: 3.3.p1
# Parameter File: Test.txt
# Results for scorer MLIC_Scorer
# Scored in component: MLIC
# X in 180 bins of 0.177778 cm
# Y in 1 bin  of 10 cm
# Z in 1 bin  of 10 cm
# EnergyDeposit ( MeV ) : Sum   
0, 0, 0, 0
1, 0, 0, 0
2, 0, 0, 0
3, 0, 0, 0
4, 0, 0, 0
5, 0, 0, 0
6, 0, 0, 0
7, 0, 0, 0
8, 0, 0, 0
9, 0, 0, 0
10, 0, 0, 0
11, 0, 0, 0
12, 0, 0, 0
13, 0, 0, 0
14, 0, 0, 0
15, 0, 0, 0
16, 0, 0, 0
17, 0, 0, 0
18, 0, 0, 0
19, 0, 0, 0
20, 0, 0, 0
21, 0, 0, 0
22, 0, 0, 0
23, 0, 0, 0
24, 0, 0, 0
25, 0, 0, 0
26, 0, 0, 0
27, 0, 0, 0
28, 0, 0, 0
29, 0, 0, 0
30, 0, 0, 0
31, 0, 0, 0
32, 0, 0, 0
33, 0, 0, 0
34, 0, 0, 0
35, 0, 0, 0
36, 0, 0, 0
37, 0, 0, 0
38, 0, 0, 0
39, 0, 0, 0
40, 0, 0, 0
41, 0, 0, 0
42, 0, 0, 0
43, 0, 0, 0
44, 0, 0, 0
45, 0, 0, 0
46, 0, 0, 0
47, 0, 0, 0
48, 0, 0, 0
49, 0, 0, 0
50, 0, 0, 0
51, 0, 0, 0
52, 0, 0, 0
53, 0, 0, 0
54, 0, 0, 0
55, 0, 0, 0
56, 0, 0, 0
57, 0, 0, 0
58, 0, 0, 0
59, 0, 0, 0
60, 0, 0, 0
61, 0, 0, 0
62, 0, 0, 0
63, 0, 0, 0
64, 0, 0, 0
65, 0, 0, 0
66, 0, 0, 0
67, 0, 0, 0
68, 0, 0, 0
69, 0, 0, 0
70, 0, 0, 0
71, 0, 0, 0
72, 0, 0, 0
73, 0, 0, 8.183780670166016
74, 0, 0, 19.93307495117188
75, 0, 0, 70.81375122070312
76, 0, 0, 331.9436645507812
77, 0, 0, 1023.410217285156
78, 0, 0, 2125.832763671875
79, 0, 0, 3637.693115234375
80, 0, 0, 4841.44384765625
81, 0, 0, 5030.09130859375
82, 0, 0, 4745.244140625
83, 0, 0, 4245.53076171875
84, 0, 0, 3675.8408203125
85, 0, 0, 3309.8095703125
86, 0, 0, 3040.940673828125
87, 0, 0, 2823.801025390625
88, 0, 0, 2661.807373046875
89, 0, 0, 2520.772705078125
90, 0, 0, 2410.7431640625
91, 0, 0, 2303.93310546875
92, 0, 0, 2222.715576171875
93, 0, 0, 2145.10205078125
94, 0, 0, 2079.56396484375
95, 0, 0, 2014.187133789062
96, 0, 0, 1959.962036132812
97, 0, 0, 1907.596801757812
98, 0, 0, 1860.160522460938
99, 0, 0, 1822.91943359375
100, 0, 0, 1778.638427734375
101, 0, 0, 1745.4296875
102, 0, 0, 1714.799438476562
103, 0, 0, 1674.02880859375
104, 0, 0, 1659.741821289062
105, 0, 0, 1622.270874023438
106, 0, 0, 1589.825561523438
107, 0, 0, 1573.337158203125
108, 0, 0, 1544.045166015625
109, 0, 0, 1527.4794921875
110, 0, 0, 1488.731079101562
111, 0, 0, 1489.642700195312
112, 0, 0, 1462.862060546875
113, 0, 0, 1445.79736328125
114, 0, 0, 1427.592895507812
115, 0, 0, 1407.2822265625
116, 0, 0, 1389.089599609375
117, 0, 0, 1368.6142578125
118, 0, 0, 1359.24755859375
119, 0, 0, 1347.044799804688
120, 0, 0, 1329.879516601562
121, 0, 0, 1320.963623046875
122, 0, 0, 1307.967529296875
123, 0, 0, 1283.05712890625
124, 0, 0, 1276.03662109375
125, 0, 0, 1268.698364257812
126, 0, 0, 1256.445556640625
127, 0, 0, 1247.20458984375
128, 0, 0, 1232.092041015625
129, 0, 0, 1218.865478515625
130, 0, 0, 1216.291381835938
131, 0, 0, 1202.048828125
132, 0, 0, 1197.36865234375
133, 0, 0, 1180.534057617188
134, 0, 0, 1174.71728515625
135, 0, 0, 1165.7978515625
136, 0, 0, 1169.087280273438
137, 0, 0, 1149.580444335938
138, 0, 0, 1137.833984375
139, 0, 0, 1127.940551757812
140, 0, 0, 1126.545043945312
141, 0, 0, 1124.547241210938
142, 0, 0, 1116.241821289062
143, 0, 0, 1095.45361328125
144, 0, 0, 1099.108520507812
145, 0, 0, 1089.634887695312
146, 0, 0, 1081.8359375
147, 0, 0, 1070.529541015625
148, 0, 0, 1069.368774414062
149, 0, 0, 1065.905883789062
150, 0, 0, 1058.5341796875
151, 0, 0, 1051.245727539062
152, 0, 0, 1038.273681640625
153, 0, 0, 1039.091674804688
154, 0, 0, 1036.16015625
155, 0, 0, 1033.358032226562
156, 0, 0, 1028.205810546875
157, 0, 0, 1020.978576660156
158, 0, 0, 1019.713989257812
159, 0, 0, 1003.617431640625
160, 0, 0, 999.4447631835938
161, 0, 0, 993.1124877929688
162, 0, 0, 990.8810424804688
163, 0, 0, 986.1404418945312
164, 0, 0, 979.0399169921875
165, 0, 0, 975.0706787109375
166, 0, 0, 975.3092651367188
167, 0, 0, 971.9677734375
168, 0, 0, 960.8589477539062
169, 0, 0, 966.2942504882812
170, 0, 0, 951.8092041015625
171, 0, 0, 947.029296875
172, 0, 0, 943.7564086914062
173, 0, 0, 943.2893676757812
174, 0, 0, 940.00048828125
175, 0, 0, 945.79296875
176, 0, 0, 934.90283203125
177, 0, 0, 933.4714965820312
178, 0, 0, 923.3970947265625
179, 0, 0, 923.068115234375
