# TOPAS Version: 3.3.p1
# Parameter File: Test.txt
# Results for scorer MLIC_Scorer
# Scored in component: MLIC
# X in 180 bins of 0.177778 cm
# Y in 1 bin  of 10 cm
# Z in 1 bin  of 10 cm
# EnergyDeposit ( MeV ) : Sum   
0, 0, 0, 0
1, 0, 0, 0
2, 0, 0, 0
3, 0, 0, 0
4, 0, 0, 0
5, 0, 0, 0
6, 0, 0, 0
7, 0, 0, 0
8, 0, 0, 0
9, 0, 0, 0
10, 0, 0, 0
11, 0, 0, 0
12, 0, 0, 0
13, 0, 0, 0
14, 0, 0, 0
15, 0, 0, 0
16, 0, 0, 0
17, 0, 0, 0
18, 0, 0, 0
19, 0, 0, 0
20, 0, 0, 0
21, 0, 0, 0
22, 0, 0, 0
23, 0, 0, 0
24, 0, 0, 0
25, 0, 0, 0
26, 0, 0, 0
27, 0, 0, 0
28, 0, 0, 0
29, 0, 0, 0
30, 0, 0, 0
31, 0, 0, 0
32, 0, 0, 0
33, 0, 0, 0
34, 0, 0, 0
35, 0, 0, 0
36, 0, 0, 0
37, 0, 0, 0
38, 0, 0, 0
39, 0, 0, 0
40, 0, 0, 0
41, 0, 0, 0
42, 0, 0, 0
43, 0, 0, 0
44, 0, 0, 0
45, 0, 0, 0
46, 0, 0, 0.002795909997075796
47, 0, 0, 0
48, 0, 0, 0
49, 0, 0, 0
50, 0, 0, 0
51, 0, 0, 0
52, 0, 0, 0
53, 0, 0, 0
54, 0, 0, 0
55, 0, 0, 0
56, 0, 0, 0
57, 0, 0, 0
58, 0, 0, 0
59, 0, 0, 0.001866728067398071
60, 0, 0, 0
61, 0, 0, 0
62, 0, 0, 0
63, 0, 0, 0
64, 0, 0, 0
65, 0, 0, 0
66, 0, 0, 0.003049573395401239
67, 0, 0, 0.001908082747831941
68, 0, 0, 0
69, 0, 0, 0.003661372466012836
70, 0, 0, 0
71, 0, 0, 0
72, 0, 0, 0.02609400451183319
73, 0, 0, 0
74, 0, 0, 0
75, 0, 0, 0.03752076998353004
76, 0, 0, 0
77, 0, 0, 0
78, 0, 0, 0
79, 0, 0, 0
80, 0, 0, 0
81, 0, 0, 0.0004970635054633021
82, 0, 0, 0.03257922828197479
83, 0, 0, 1.341618061065674
84, 0, 0, 101.9917907714844
85, 0, 0, 454.1126403808594
86, 0, 0, 1226.774169921875
87, 0, 0, 2506.806396484375
88, 0, 0, 3763.2158203125
89, 0, 0, 4833.2568359375
90, 0, 0, 5086.02197265625
91, 0, 0, 4771.8515625
92, 0, 0, 4100.966796875
93, 0, 0, 3600.956298828125
94, 0, 0, 3250.7060546875
95, 0, 0, 2985.869384765625
96, 0, 0, 2781.756103515625
97, 0, 0, 2623.751708984375
98, 0, 0, 2503.601318359375
99, 0, 0, 2390.727294921875
100, 0, 0, 2292.374755859375
101, 0, 0, 2202.062744140625
102, 0, 0, 2128.658935546875
103, 0, 0, 2064.6484375
104, 0, 0, 2004.047973632812
105, 0, 0, 1954.681030273438
106, 0, 0, 1898.289916992188
107, 0, 0, 1856.822265625
108, 0, 0, 1811.014038085938
109, 0, 0, 1784.804077148438
110, 0, 0, 1747.629150390625
111, 0, 0, 1710.9091796875
112, 0, 0, 1676.428955078125
113, 0, 0, 1637.2880859375
114, 0, 0, 1609.989379882812
115, 0, 0, 1591.4970703125
116, 0, 0, 1571.616821289062
117, 0, 0, 1540.2109375
118, 0, 0, 1516.6337890625
119, 0, 0, 1488.528686523438
120, 0, 0, 1481.2861328125
121, 0, 0, 1454.335205078125
122, 0, 0, 1434.565551757812
123, 0, 0, 1422.035888671875
124, 0, 0, 1397.5048828125
125, 0, 0, 1389.6962890625
126, 0, 0, 1372.205444335938
127, 0, 0, 1355.4697265625
128, 0, 0, 1338.154296875
129, 0, 0, 1333.914794921875
130, 0, 0, 1314.773803710938
131, 0, 0, 1306.876708984375
132, 0, 0, 1288.9580078125
133, 0, 0, 1280.69921875
134, 0, 0, 1268.52001953125
135, 0, 0, 1247.6494140625
136, 0, 0, 1238.134887695312
137, 0, 0, 1228.153198242188
138, 0, 0, 1221.578002929688
139, 0, 0, 1209.767333984375
140, 0, 0, 1195.346435546875
141, 0, 0, 1195.177856445312
142, 0, 0, 1184.471069335938
143, 0, 0, 1176.24951171875
144, 0, 0, 1163.152099609375
145, 0, 0, 1151.146484375
146, 0, 0, 1146.63134765625
147, 0, 0, 1132.84228515625
148, 0, 0, 1132.810668945312
149, 0, 0, 1128.900634765625
150, 0, 0, 1117.421997070312
151, 0, 0, 1109.90185546875
152, 0, 0, 1104.119384765625
153, 0, 0, 1096.92626953125
154, 0, 0, 1089.21240234375
155, 0, 0, 1081.554077148438
156, 0, 0, 1072.597290039062
157, 0, 0, 1062.958374023438
158, 0, 0, 1070.12744140625
159, 0, 0, 1051.706909179688
160, 0, 0, 1050.9365234375
161, 0, 0, 1048.04443359375
162, 0, 0, 1031.274536132812
163, 0, 0, 1031.8671875
164, 0, 0, 1029.119750976562
165, 0, 0, 1020.681396484375
166, 0, 0, 1017.645568847656
167, 0, 0, 1014.183776855469
168, 0, 0, 1009.922729492188
169, 0, 0, 1003.132080078125
170, 0, 0, 995.6309814453125
171, 0, 0, 991.9194946289062
172, 0, 0, 992.1629028320312
173, 0, 0, 982.5692749023438
174, 0, 0, 974.9931030273438
175, 0, 0, 975.380615234375
176, 0, 0, 968.8168334960938
177, 0, 0, 965.4420776367188
178, 0, 0, 964.6183471679688
179, 0, 0, 963.3110961914062
