# TOPAS Version: 3.3.p1
# Parameter File: Test.txt
# Results for scorer MLIC_Scorer
# Scored in component: MLIC
# X in 180 bins of 0.177778 cm
# Y in 1 bin  of 10 cm
# Z in 1 bin  of 10 cm
# EnergyDeposit ( MeV ) : Sum   
0, 0, 0, 0
1, 0, 0, 0
2, 0, 0, 0
3, 0, 0, 0
4, 0, 0, 0
5, 0, 0, 0
6, 0, 0, 0
7, 0, 0, 0
8, 0, 0, 0
9, 0, 0, 0
10, 0, 0, 0
11, 0, 0, 0
12, 0, 0, 0
13, 0, 0, 0
14, 0, 0, 0
15, 0, 0, 0
16, 0, 0, 0
17, 0, 0, 0
18, 0, 0, 0
19, 0, 0, 0
20, 0, 0, 0
21, 0, 0, 0
22, 0, 0, 0
23, 0, 0, 0
24, 0, 0, 0
25, 0, 0, 0
26, 0, 0, 0
27, 0, 0, 0
28, 0, 0, 0
29, 0, 0, 0
30, 0, 0, 0
31, 0, 0, 0
32, 0, 0, 0
33, 0, 0, 0
34, 0, 0, 0
35, 0, 0, 0
36, 0, 0, 0
37, 0, 0, 0
38, 0, 0, 0
39, 0, 0, 0
40, 0, 0, 0
41, 0, 0, 0
42, 0, 0, 0
43, 0, 0, 0
44, 0, 0, 0
45, 0, 0, 0
46, 0, 0, 0
47, 0, 0, 0
48, 0, 0, 0
49, 0, 0, 0
50, 0, 0, 0
51, 0, 0, 0
52, 0, 0, 0
53, 0, 0, 0
54, 0, 0, 0
55, 0, 0, 0
56, 0, 0, 0
57, 0, 0, 0
58, 0, 0, 0
59, 0, 0, 0
60, 0, 0, 0
61, 0, 0, 0
62, 0, 0, 0
63, 0, 0, 0
64, 0, 0, 0
65, 0, 0, 0
66, 0, 0, 0
67, 0, 0, 0
68, 0, 0, 0
69, 0, 0, 0
70, 0, 0, 0
71, 0, 0, 0
72, 0, 0, 0
73, 0, 0, 0
74, 0, 0, 10.61430263519287
75, 0, 0, 31.96054267883301
76, 0, 0, 83.62541961669922
77, 0, 0, 191.0482940673828
78, 0, 0, 272.9757385253906
79, 0, 0, 319.4311218261719
80, 0, 0, 304.7518920898438
81, 0, 0, 272.8250122070312
82, 0, 0, 240.6898345947266
83, 0, 0, 220.8477020263672
84, 0, 0, 196.4425659179688
85, 0, 0, 180.6551361083984
86, 0, 0, 169.6825561523438
87, 0, 0, 161.5671234130859
88, 0, 0, 152.0592651367188
89, 0, 0, 144.7735595703125
90, 0, 0, 139.6540985107422
91, 0, 0, 135.15185546875
92, 0, 0, 131.7907104492188
93, 0, 0, 126.7346649169922
94, 0, 0, 120.9455032348633
95, 0, 0, 118.1160125732422
96, 0, 0, 117.620475769043
97, 0, 0, 114.6480407714844
98, 0, 0, 112.7002410888672
99, 0, 0, 111.6992416381836
100, 0, 0, 107.8946380615234
101, 0, 0, 107.5959701538086
102, 0, 0, 102.4313812255859
103, 0, 0, 102.3981170654297
104, 0, 0, 99.86404418945312
105, 0, 0, 97.04007720947266
106, 0, 0, 95.3455810546875
107, 0, 0, 94.60276794433594
108, 0, 0, 93.76537322998047
109, 0, 0, 93.85446929931641
110, 0, 0, 90.6319580078125
111, 0, 0, 90.56379699707031
112, 0, 0, 88.13302612304688
113, 0, 0, 86.26146697998047
114, 0, 0, 87.85303497314453
115, 0, 0, 87.05435943603516
116, 0, 0, 84.60118865966797
117, 0, 0, 83.41764831542969
118, 0, 0, 82.61650848388672
119, 0, 0, 82.17202758789062
120, 0, 0, 81.36439514160156
121, 0, 0, 81.06192779541016
122, 0, 0, 79.40142822265625
123, 0, 0, 78.61455535888672
124, 0, 0, 79.47270965576172
125, 0, 0, 77.54656982421875
126, 0, 0, 76.40889739990234
127, 0, 0, 74.6947021484375
128, 0, 0, 75.57496643066406
129, 0, 0, 75.45646667480469
130, 0, 0, 74.58017730712891
131, 0, 0, 73.88777923583984
132, 0, 0, 71.43360137939453
133, 0, 0, 73.11824035644531
134, 0, 0, 71.29573059082031
135, 0, 0, 71.65505218505859
136, 0, 0, 71.05540466308594
137, 0, 0, 68.23326110839844
138, 0, 0, 70.03069305419922
139, 0, 0, 70.68681335449219
140, 0, 0, 69.79914093017578
141, 0, 0, 70.09068298339844
142, 0, 0, 68.65907287597656
143, 0, 0, 69.54444122314453
144, 0, 0, 66.61727905273438
145, 0, 0, 67.29972839355469
146, 0, 0, 66.37145233154297
147, 0, 0, 65.96261596679688
148, 0, 0, 66.02851104736328
149, 0, 0, 66.05304718017578
150, 0, 0, 66.87855529785156
151, 0, 0, 64.98604583740234
152, 0, 0, 63.66049575805664
153, 0, 0, 64.01699829101562
154, 0, 0, 64.71279144287109
155, 0, 0, 63.61629486083984
156, 0, 0, 63.12557983398438
157, 0, 0, 62.97823333740234
158, 0, 0, 62.27044296264648
159, 0, 0, 61.20944976806641
160, 0, 0, 61.93142318725586
161, 0, 0, 59.75799942016602
162, 0, 0, 60.21427536010742
163, 0, 0, 60.40750503540039
164, 0, 0, 60.44490432739258
165, 0, 0, 58.97130966186523
166, 0, 0, 60.41128921508789
167, 0, 0, 60.07833862304688
168, 0, 0, 58.07626342773438
169, 0, 0, 57.77765274047852
170, 0, 0, 59.61715698242188
171, 0, 0, 58.46957015991211
172, 0, 0, 59.56345748901367
173, 0, 0, 59.50432586669922
174, 0, 0, 58.17526245117188
175, 0, 0, 58.9794807434082
176, 0, 0, 56.63863372802734
177, 0, 0, 57.33979415893555
178, 0, 0, 56.98604202270508
179, 0, 0, 56.2397575378418
