# TOPAS Version: 3.3.p1
# Parameter File: Test.txt
# Results for scorer MLIC_Scorer
# Scored in component: MLIC
# X in 180 bins of 0.183333 cm
# Y in 1 bin  of 10 cm
# Z in 1 bin  of 10 cm
# EnergyDeposit ( MeV ) : Sum   
0, 0, 0, 0
1, 0, 0, 0
2, 0, 0, 0
3, 0, 0, 0
4, 0, 0, 0
5, 0, 0, 0
6, 0, 0, 0
7, 0, 0, 0
8, 0, 0, 0
9, 0, 0, 0
10, 0, 0, 0
11, 0, 0, 0
12, 0, 0, 0
13, 0, 0, 0
14, 0, 0, 0
15, 0, 0, 0
16, 0, 0, 0
17, 0, 0, 0
18, 0, 0, 0
19, 0, 0, 0
20, 0, 0, 0
21, 0, 0, 0
22, 0, 0, 0
23, 0, 0, 0
24, 0, 0, 0
25, 0, 0, 0
26, 0, 0, 0
27, 0, 0, 0
28, 0, 0, 0
29, 0, 0, 0
30, 0, 0, 0
31, 0, 0, 0
32, 0, 0, 0
33, 0, 0, 0
34, 0, 0, 0
35, 0, 0, 0
36, 0, 0, 0
37, 0, 0, 0
38, 0, 0, 0
39, 0, 0, 0
40, 0, 0, 0
41, 0, 0, 0
42, 0, 0, 0
43, 0, 0, 0
44, 0, 0, 0
45, 0, 0, 0
46, 0, 0, 0
47, 0, 0, 0
48, 0, 0, 0
49, 0, 0, 0
50, 0, 0, 0
51, 0, 0, 0
52, 0, 0, 0
53, 0, 0, 0
54, 0, 0, 0
55, 0, 0, 0
56, 0, 0, 0.03597079217433929
57, 0, 0, 0
58, 0, 0, 0
59, 0, 0, 0
60, 0, 0, 0
61, 0, 0, 0
62, 0, 0, 0
63, 0, 0, 0
64, 0, 0, 0
65, 0, 0, 0.0006613833829760551
66, 0, 0, 0
67, 0, 0, 0
68, 0, 0, 0
69, 0, 0, 0
70, 0, 0, 0
71, 0, 0, 0
72, 0, 0, 0
73, 0, 0, 0
74, 0, 0, 0
75, 0, 0, 0
76, 0, 0, 0
77, 0, 0, 0
78, 0, 0, 0
79, 0, 0, 0
80, 0, 0, 0
81, 0, 0, 0.03721452876925468
82, 0, 0, 0
83, 0, 0, 0.01982910558581352
84, 0, 0, 0
85, 0, 0, 0.0322406180202961
86, 0, 0, 0.05929296463727951
87, 0, 0, 0.0006361652049236
88, 0, 0, 0
89, 0, 0, 35.16060638427734
90, 0, 0, 140.2525482177734
91, 0, 0, 470.3272399902344
92, 0, 0, 1441.72802734375
93, 0, 0, 2952.6845703125
94, 0, 0, 4389.61572265625
95, 0, 0, 5201.75
96, 0, 0, 5165.41943359375
97, 0, 0, 4589.23681640625
98, 0, 0, 4014.445068359375
99, 0, 0, 3551.02001953125
100, 0, 0, 3224.501220703125
101, 0, 0, 2970.921875
102, 0, 0, 2790.323486328125
103, 0, 0, 2628.928466796875
104, 0, 0, 2502.950927734375
105, 0, 0, 2391.858642578125
106, 0, 0, 2293.79541015625
107, 0, 0, 2222.7177734375
108, 0, 0, 2157.32861328125
109, 0, 0, 2087.90966796875
110, 0, 0, 2023.837158203125
111, 0, 0, 1961.01708984375
112, 0, 0, 1918.692749023438
113, 0, 0, 1876.095703125
114, 0, 0, 1833.6328125
115, 0, 0, 1802.119506835938
116, 0, 0, 1766.352783203125
117, 0, 0, 1727.900634765625
118, 0, 0, 1690.59130859375
119, 0, 0, 1665.418334960938
120, 0, 0, 1633.049682617188
121, 0, 0, 1611.605590820312
122, 0, 0, 1589.112182617188
123, 0, 0, 1562.083740234375
124, 0, 0, 1536.773315429688
125, 0, 0, 1518.563598632812
126, 0, 0, 1493.023681640625
127, 0, 0, 1479.679443359375
128, 0, 0, 1457.196655273438
129, 0, 0, 1435.861328125
130, 0, 0, 1427.965698242188
131, 0, 0, 1403.236083984375
132, 0, 0, 1383.31787109375
133, 0, 0, 1369.80712890625
134, 0, 0, 1364.786376953125
135, 0, 0, 1343.56494140625
136, 0, 0, 1326.630981445312
137, 0, 0, 1321.84423828125
138, 0, 0, 1295.346069335938
139, 0, 0, 1293.533203125
140, 0, 0, 1288.460815429688
141, 0, 0, 1278.147583007812
142, 0, 0, 1263.55810546875
143, 0, 0, 1254.75634765625
144, 0, 0, 1235.232299804688
145, 0, 0, 1219.57080078125
146, 0, 0, 1212.069702148438
147, 0, 0, 1208.772583007812
148, 0, 0, 1201.753295898438
149, 0, 0, 1189.426513671875
150, 0, 0, 1188.509033203125
151, 0, 0, 1168.816772460938
152, 0, 0, 1163.541137695312
153, 0, 0, 1163.789428710938
154, 0, 0, 1143.935668945312
155, 0, 0, 1143.719482421875
156, 0, 0, 1128.812866210938
157, 0, 0, 1118.153564453125
158, 0, 0, 1119.999877929688
159, 0, 0, 1113.425659179688
160, 0, 0, 1103.009155273438
161, 0, 0, 1098.194702148438
162, 0, 0, 1104.42724609375
163, 0, 0, 1093.891235351562
164, 0, 0, 1080.505493164062
165, 0, 0, 1078.447143554688
166, 0, 0, 1071.708129882812
167, 0, 0, 1057.430786132812
168, 0, 0, 1054.967651367188
169, 0, 0, 1050.435180664062
170, 0, 0, 1050.415649414062
171, 0, 0, 1040.368408203125
172, 0, 0, 1038.209838867188
173, 0, 0, 1027.5283203125
174, 0, 0, 1026.2626953125
175, 0, 0, 1011.019958496094
176, 0, 0, 1016.323547363281
177, 0, 0, 1007.962280273438
178, 0, 0, 1003.8076171875
179, 0, 0, 997.4784545898438
