# TOPAS Version: 3.3.p1
# Parameter File: Test.txt
# Results for scorer MLIC_Scorer
# Scored in component: MLIC
# X in 180 bins of 0.177778 cm
# Y in 1 bin  of 10 cm
# Z in 1 bin  of 10 cm
# EnergyDeposit ( MeV ) : Sum   
0, 0, 0, 0
1, 0, 0, 0
2, 0, 0, 5.984715938568115
3, 0, 0, 26.52435874938965
4, 0, 0, 128.3675842285156
5, 0, 0, 537.8649291992188
6, 0, 0, 1303.35986328125
7, 0, 0, 2532.52001953125
8, 0, 0, 4104.80810546875
9, 0, 0, 5177.28125
10, 0, 0, 5049.96826171875
11, 0, 0, 4582.94677734375
12, 0, 0, 4015.642333984375
13, 0, 0, 3535.236328125
14, 0, 0, 3199.7978515625
15, 0, 0, 2939.32275390625
16, 0, 0, 2746.059326171875
17, 0, 0, 2599.228759765625
18, 0, 0, 2472.162109375
19, 0, 0, 2360.669677734375
20, 0, 0, 2275.054931640625
21, 0, 0, 2200.6259765625
22, 0, 0, 2130.702392578125
23, 0, 0, 2063.949951171875
24, 0, 0, 1991.955322265625
25, 0, 0, 1941.363891601562
26, 0, 0, 1893.38671875
27, 0, 0, 1849.75146484375
28, 0, 0, 1808.991821289062
29, 0, 0, 1768.115600585938
30, 0, 0, 1736.246459960938
31, 0, 0, 1693.629272460938
32, 0, 0, 1675.675659179688
33, 0, 0, 1640.285522460938
34, 0, 0, 1613.47607421875
35, 0, 0, 1581.280395507812
36, 0, 0, 1565.945434570312
37, 0, 0, 1543.084350585938
38, 0, 0, 1519.560668945312
39, 0, 0, 1489.426391601562
40, 0, 0, 1476.053344726562
41, 0, 0, 1456.405639648438
42, 0, 0, 1434.396484375
43, 0, 0, 1414.659545898438
44, 0, 0, 1406.95751953125
45, 0, 0, 1383.387451171875
46, 0, 0, 1373.917358398438
47, 0, 0, 1356.748657226562
48, 0, 0, 1342.518432617188
49, 0, 0, 1328.444946289062
50, 0, 0, 1318.96826171875
51, 0, 0, 1299.458740234375
52, 0, 0, 1283.50146484375
53, 0, 0, 1270.682861328125
54, 0, 0, 1262.819946289062
55, 0, 0, 1248.356567382812
56, 0, 0, 1236.735595703125
57, 0, 0, 1229.044189453125
58, 0, 0, 1215.981323242188
59, 0, 0, 1202.476684570312
60, 0, 0, 1198.873779296875
61, 0, 0, 1193.837158203125
62, 0, 0, 1182.113403320312
63, 0, 0, 1170.176879882812
64, 0, 0, 1162.986083984375
65, 0, 0, 1153.038208007812
66, 0, 0, 1142.154418945312
67, 0, 0, 1135.940307617188
68, 0, 0, 1128.489624023438
69, 0, 0, 1115.70703125
70, 0, 0, 1111.2314453125
71, 0, 0, 1110.610717773438
72, 0, 0, 1101.735229492188
73, 0, 0, 1091.956298828125
74, 0, 0, 1081.939086914062
75, 0, 0, 1076.715942382812
76, 0, 0, 1074.7568359375
77, 0, 0, 1065.011352539062
78, 0, 0, 1061.013916015625
79, 0, 0, 1054.843383789062
80, 0, 0, 1053.303344726562
81, 0, 0, 1038.752197265625
82, 0, 0, 1044.829711914062
83, 0, 0, 1036.268432617188
84, 0, 0, 1023.6259765625
85, 0, 0, 1014.952697753906
86, 0, 0, 1009.821411132812
87, 0, 0, 1011.576171875
88, 0, 0, 1011.263732910156
89, 0, 0, 996.6838989257812
90, 0, 0, 995.406982421875
91, 0, 0, 990.8941650390625
92, 0, 0, 991.2368774414062
93, 0, 0, 983.7490844726562
94, 0, 0, 970.680908203125
95, 0, 0, 977.1671142578125
96, 0, 0, 966.36181640625
97, 0, 0, 961.5267333984375
98, 0, 0, 952.5208129882812
99, 0, 0, 952.6243896484375
100, 0, 0, 947.347412109375
101, 0, 0, 948.9697875976562
102, 0, 0, 947.333740234375
103, 0, 0, 940.2349853515625
104, 0, 0, 933.809814453125
105, 0, 0, 934.09765625
106, 0, 0, 926.1958618164062
107, 0, 0, 918.6141357421875
108, 0, 0, 923.3513793945312
109, 0, 0, 915.3670043945312
110, 0, 0, 914.93310546875
111, 0, 0, 913.942626953125
112, 0, 0, 907.5423583984375
113, 0, 0, 901.2225341796875
114, 0, 0, 905.9618530273438
115, 0, 0, 896.4965209960938
116, 0, 0, 894.3792114257812
117, 0, 0, 884.1347045898438
118, 0, 0, 889.8704833984375
119, 0, 0, 885.2713623046875
120, 0, 0, 883.0452880859375
121, 0, 0, 875.8966064453125
122, 0, 0, 867.3521118164062
123, 0, 0, 871.3508911132812
124, 0, 0, 866.9492797851562
125, 0, 0, 872.8816528320312
126, 0, 0, 862.966552734375
127, 0, 0, 859.6234130859375
128, 0, 0, 858.4253540039062
129, 0, 0, 864.9017944335938
130, 0, 0, 848.0053100585938
131, 0, 0, 849.1715087890625
132, 0, 0, 839.2153930664062
133, 0, 0, 849.302978515625
134, 0, 0, 839.3203735351562
135, 0, 0, 837.687255859375
136, 0, 0, 840.7910766601562
137, 0, 0, 823.0274658203125
138, 0, 0, 839.1627807617188
139, 0, 0, 828.7637939453125
140, 0, 0, 824.5519409179688
141, 0, 0, 821.091064453125
142, 0, 0, 822.8876953125
143, 0, 0, 822.3475952148438
144, 0, 0, 815.03564453125
145, 0, 0, 815.9397583007812
146, 0, 0, 814.6690673828125
147, 0, 0, 808.7687377929688
148, 0, 0, 811.5657958984375
149, 0, 0, 809.764892578125
150, 0, 0, 803.4287719726562
151, 0, 0, 802.6642456054688
152, 0, 0, 796.1105346679688
153, 0, 0, 797.8541259765625
154, 0, 0, 791.2448120117188
155, 0, 0, 790.0342407226562
156, 0, 0, 787.8035888671875
157, 0, 0, 782.3046875
158, 0, 0, 782.8575439453125
159, 0, 0, 787.724853515625
160, 0, 0, 778.6014404296875
161, 0, 0, 785.1253051757812
162, 0, 0, 785.9752197265625
163, 0, 0, 778.0814819335938
164, 0, 0, 775.2879028320312
165, 0, 0, 779.5282592773438
166, 0, 0, 771.8941040039062
167, 0, 0, 767.6072387695312
168, 0, 0, 770.5947875976562
169, 0, 0, 771.164306640625
170, 0, 0, 764.00732421875
171, 0, 0, 759.9813232421875
172, 0, 0, 759.6089477539062
173, 0, 0, 759.1682739257812
174, 0, 0, 758.3506469726562
175, 0, 0, 758.84521484375
176, 0, 0, 758.57666015625
177, 0, 0, 751.447509765625
178, 0, 0, 750.30908203125
179, 0, 0, 749.6991577148438
