# TOPAS Version: 3.3.p1
# Parameter File: Test.txt
# Results for scorer MLIC_Scorer
# Scored in component: MLIC
# X in 180 bins of 0.177778 cm
# Y in 1 bin  of 10 cm
# Z in 1 bin  of 10 cm
# EnergyDeposit ( MeV ) : Sum   
0, 0, 0, 0
1, 0, 0, 0
2, 0, 0, 0
3, 0, 0, 0
4, 0, 0, 0
5, 0, 0, 0
6, 0, 0, 0
7, 0, 0, 0
8, 0, 0, 0
9, 0, 0, 0
10, 0, 0, 0
11, 0, 0, 0
12, 0, 0, 0
13, 0, 0, 0
14, 0, 0, 0
15, 0, 0, 0
16, 0, 0, 0
17, 0, 0, 0
18, 0, 0, 0
19, 0, 0, 0
20, 0, 0, 0
21, 0, 0, 0
22, 0, 0, 0
23, 0, 0, 0
24, 0, 0, 0
25, 0, 0, 0
26, 0, 0, 0
27, 0, 0, 0
28, 0, 0, 0
29, 0, 0, 0
30, 0, 0, 0
31, 0, 0, 0
32, 0, 0, 0
33, 0, 0, 0
34, 0, 0, 0
35, 0, 0, 0
36, 0, 0, 0
37, 0, 0, 0
38, 0, 0, 0
39, 0, 0, 0
40, 0, 0, 0
41, 0, 0, 0
42, 0, 0, 0
43, 0, 0, 0
44, 0, 0, 0
45, 0, 0, 0
46, 0, 0, 0
47, 0, 0, 0
48, 0, 0, 0
49, 0, 0, 0
50, 0, 0, 0
51, 0, 0, 0
52, 0, 0, 0
53, 0, 0, 0
54, 0, 0, 0
55, 0, 0, 0
56, 0, 0, 0
57, 0, 0, 0
58, 0, 0, 0
59, 0, 0, 0
60, 0, 0, 0
61, 0, 0, 0.008978264406323433
62, 0, 0, 0
63, 0, 0, 0
64, 0, 0, 0
65, 0, 0, 0
66, 0, 0, 0
67, 0, 0, 0.03934866935014725
68, 0, 0, 0
69, 0, 0, 0
70, 0, 0, 0
71, 0, 0, 0
72, 0, 0, 0
73, 0, 0, 0
74, 0, 0, 0
75, 0, 0, 0.0002695615985430777
76, 0, 0, 0.005767930764704943
77, 0, 0, 0.02994347177445889
78, 0, 0, 0
79, 0, 0, 0
80, 0, 0, 0
81, 0, 0, 0
82, 0, 0, 0
83, 0, 0, 0
84, 0, 0, 1.280373096466064
85, 0, 0, 17.01582717895508
86, 0, 0, 55.64450836181641
87, 0, 0, 340.8192749023438
88, 0, 0, 934.8056030273438
89, 0, 0, 1910.528930664062
90, 0, 0, 3298.596923828125
91, 0, 0, 4595.7841796875
92, 0, 0, 5079.5771484375
93, 0, 0, 4865.82568359375
94, 0, 0, 4317.11767578125
95, 0, 0, 3789.67626953125
96, 0, 0, 3383.5341796875
97, 0, 0, 3074.851318359375
98, 0, 0, 2856.1611328125
99, 0, 0, 2679.600830078125
100, 0, 0, 2531.2373046875
101, 0, 0, 2419.76318359375
102, 0, 0, 2319.99267578125
103, 0, 0, 2228.974853515625
104, 0, 0, 2161.322021484375
105, 0, 0, 2087.68115234375
106, 0, 0, 2021.147705078125
107, 0, 0, 1967.442260742188
108, 0, 0, 1910.561767578125
109, 0, 0, 1870.471313476562
110, 0, 0, 1823.625244140625
111, 0, 0, 1784.632568359375
112, 0, 0, 1752.288818359375
113, 0, 0, 1720.355224609375
114, 0, 0, 1687.269165039062
115, 0, 0, 1649.975463867188
116, 0, 0, 1621.579956054688
117, 0, 0, 1591.844970703125
118, 0, 0, 1572.745361328125
119, 0, 0, 1544.259155273438
120, 0, 0, 1524.304931640625
121, 0, 0, 1501.853759765625
122, 0, 0, 1487.359130859375
123, 0, 0, 1460.231323242188
124, 0, 0, 1437.109619140625
125, 0, 0, 1428.348999023438
126, 0, 0, 1418.084350585938
127, 0, 0, 1391.185302734375
128, 0, 0, 1374.093139648438
129, 0, 0, 1360.224731445312
130, 0, 0, 1345.987060546875
131, 0, 0, 1333.888305664062
132, 0, 0, 1315.13330078125
133, 0, 0, 1304.516357421875
134, 0, 0, 1293.468994140625
135, 0, 0, 1281.658569335938
136, 0, 0, 1274.247924804688
137, 0, 0, 1255.205444335938
138, 0, 0, 1248.893188476562
139, 0, 0, 1238.633422851562
140, 0, 0, 1231.07861328125
141, 0, 0, 1207.021484375
142, 0, 0, 1203.678100585938
143, 0, 0, 1192.794677734375
144, 0, 0, 1188.236083984375
145, 0, 0, 1172.520385742188
146, 0, 0, 1170.904174804688
147, 0, 0, 1153.288208007812
148, 0, 0, 1149.473876953125
149, 0, 0, 1141.1328125
150, 0, 0, 1140.11181640625
151, 0, 0, 1123.244384765625
152, 0, 0, 1115.0810546875
153, 0, 0, 1105.798217773438
154, 0, 0, 1104.03466796875
155, 0, 0, 1097.35009765625
156, 0, 0, 1095.386474609375
157, 0, 0, 1090.109985351562
158, 0, 0, 1083.196166992188
159, 0, 0, 1071.494506835938
160, 0, 0, 1069.099487304688
161, 0, 0, 1053.363037109375
162, 0, 0, 1055.33349609375
163, 0, 0, 1052.722534179688
164, 0, 0, 1036.944091796875
165, 0, 0, 1036.414672851562
166, 0, 0, 1026.68994140625
167, 0, 0, 1021.052551269531
168, 0, 0, 1009.779479980469
169, 0, 0, 1009.68359375
170, 0, 0, 1007.902099609375
171, 0, 0, 996.6324462890625
172, 0, 0, 991.60107421875
173, 0, 0, 997.7301025390625
174, 0, 0, 994.2478637695312
175, 0, 0, 983.983642578125
176, 0, 0, 982.4443359375
177, 0, 0, 987.9441528320312
178, 0, 0, 972.123046875
179, 0, 0, 968.5968017578125
