# TOPAS Version: 3.3.p1
# Parameter File: Test.txt
# Results for scorer MLIC_Scorer
# Scored in component: MLIC
# X in 180 bins of 0.177778 cm
# Y in 1 bin  of 10 cm
# Z in 1 bin  of 10 cm
# EnergyDeposit ( MeV ) : Sum   
0, 0, 0, 0
1, 0, 0, 0
2, 0, 0, 0
3, 0, 0, 0
4, 0, 0, 0
5, 0, 0, 0
6, 0, 0, 0.009966757148504257
7, 0, 0, 0
8, 0, 0, 0
9, 0, 0, 10.63114929199219
10, 0, 0, 148.9345092773438
11, 0, 0, 468.1625061035156
12, 0, 0, 1092.754516601562
13, 0, 0, 2320.242919921875
14, 0, 0, 3777.202880859375
15, 0, 0, 4706.16552734375
16, 0, 0, 5069.373046875
17, 0, 0, 4791.73876953125
18, 0, 0, 4178.69482421875
19, 0, 0, 3607.224365234375
20, 0, 0, 3272.046875
21, 0, 0, 3002.405029296875
22, 0, 0, 2793.484619140625
23, 0, 0, 2634.9697265625
24, 0, 0, 2508.3876953125
25, 0, 0, 2394.05810546875
26, 0, 0, 2293.033203125
27, 0, 0, 2201.4072265625
28, 0, 0, 2131.04345703125
29, 0, 0, 2071.4951171875
30, 0, 0, 2008.40576171875
31, 0, 0, 1952.065795898438
32, 0, 0, 1902.277587890625
33, 0, 0, 1857.04931640625
34, 0, 0, 1814.6611328125
35, 0, 0, 1780.276733398438
36, 0, 0, 1730.447875976562
37, 0, 0, 1707.680908203125
38, 0, 0, 1671.592895507812
39, 0, 0, 1640.022338867188
40, 0, 0, 1622.127563476562
41, 0, 0, 1582.212890625
42, 0, 0, 1558.312377929688
43, 0, 0, 1539.005737304688
44, 0, 0, 1512.086303710938
45, 0, 0, 1493.64208984375
46, 0, 0, 1476.6689453125
47, 0, 0, 1452.84033203125
48, 0, 0, 1436.721923828125
49, 0, 0, 1416.417358398438
50, 0, 0, 1401.177978515625
51, 0, 0, 1389.148071289062
52, 0, 0, 1369.706420898438
53, 0, 0, 1350.072509765625
54, 0, 0, 1341.065185546875
55, 0, 0, 1326.4462890625
56, 0, 0, 1318.264770507812
57, 0, 0, 1304.021118164062
58, 0, 0, 1292.027099609375
59, 0, 0, 1277.655639648438
60, 0, 0, 1258.063842773438
61, 0, 0, 1248.026489257812
62, 0, 0, 1242.088623046875
63, 0, 0, 1233.304321289062
64, 0, 0, 1223.662475585938
65, 0, 0, 1209.491577148438
66, 0, 0, 1199.331420898438
67, 0, 0, 1193.787231445312
68, 0, 0, 1180.231079101562
69, 0, 0, 1171.371459960938
70, 0, 0, 1164.94189453125
71, 0, 0, 1158.889404296875
72, 0, 0, 1136.769165039062
73, 0, 0, 1142.483276367188
74, 0, 0, 1133.937255859375
75, 0, 0, 1124.701293945312
76, 0, 0, 1112.150024414062
77, 0, 0, 1112.55078125
78, 0, 0, 1100.500122070312
79, 0, 0, 1101.194946289062
80, 0, 0, 1081.76123046875
81, 0, 0, 1083.325073242188
82, 0, 0, 1067.371215820312
83, 0, 0, 1063.978515625
84, 0, 0, 1063.083984375
85, 0, 0, 1049.664306640625
86, 0, 0, 1049.003784179688
87, 0, 0, 1044.5771484375
88, 0, 0, 1035.023071289062
89, 0, 0, 1032.206420898438
90, 0, 0, 1018.193237304688
91, 0, 0, 1027.745483398438
92, 0, 0, 1020.8017578125
93, 0, 0, 1010.98486328125
94, 0, 0, 1007.960205078125
95, 0, 0, 1007.673645019531
96, 0, 0, 1009.760375976562
97, 0, 0, 990.1824340820312
98, 0, 0, 989.6495971679688
99, 0, 0, 982.2144165039062
100, 0, 0, 974.2951049804688
101, 0, 0, 974.951416015625
102, 0, 0, 966.30615234375
103, 0, 0, 965.8212890625
104, 0, 0, 967.40478515625
105, 0, 0, 968.5684204101562
106, 0, 0, 952.4014892578125
107, 0, 0, 949.6260375976562
108, 0, 0, 947.7592163085938
109, 0, 0, 940.50634765625
110, 0, 0, 928.8740844726562
111, 0, 0, 932.5489501953125
112, 0, 0, 927.9705810546875
113, 0, 0, 926.9056396484375
114, 0, 0, 928.6024780273438
115, 0, 0, 916.3981323242188
116, 0, 0, 913.3695678710938
117, 0, 0, 915.2677612304688
118, 0, 0, 907.5203247070312
119, 0, 0, 906.1890258789062
120, 0, 0, 894.7142944335938
121, 0, 0, 894.2207641601562
122, 0, 0, 885.4532470703125
123, 0, 0, 889.108642578125
124, 0, 0, 888.8935546875
125, 0, 0, 894.327392578125
126, 0, 0, 885.5264892578125
127, 0, 0, 871.0220336914062
128, 0, 0, 875.2760009765625
129, 0, 0, 871.9706420898438
130, 0, 0, 869.6876220703125
131, 0, 0, 869.78369140625
132, 0, 0, 866.5540161132812
133, 0, 0, 858.037109375
134, 0, 0, 847.9549560546875
135, 0, 0, 856.52978515625
136, 0, 0, 853.3375854492188
137, 0, 0, 854.0088500976562
138, 0, 0, 851.26025390625
139, 0, 0, 838.8746337890625
140, 0, 0, 842.0384521484375
141, 0, 0, 842.5196533203125
142, 0, 0, 840.42724609375
143, 0, 0, 830.5015258789062
144, 0, 0, 834.4053955078125
145, 0, 0, 825.5792236328125
146, 0, 0, 827.911376953125
147, 0, 0, 832.4578857421875
148, 0, 0, 820.5126342773438
149, 0, 0, 810.2268676757812
150, 0, 0, 816.3405151367188
151, 0, 0, 809.6305541992188
152, 0, 0, 808.0783081054688
153, 0, 0, 818.9672241210938
154, 0, 0, 809.1102905273438
155, 0, 0, 803.0714111328125
156, 0, 0, 804.2520751953125
157, 0, 0, 795.199462890625
158, 0, 0, 794.7140502929688
159, 0, 0, 794.9005737304688
160, 0, 0, 807.5202026367188
161, 0, 0, 804.9677734375
162, 0, 0, 787.377197265625
163, 0, 0, 788.7857055664062
164, 0, 0, 787.5836181640625
165, 0, 0, 790.7996215820312
166, 0, 0, 790.8694458007812
167, 0, 0, 785.9929809570312
168, 0, 0, 782.82275390625
169, 0, 0, 790.062255859375
170, 0, 0, 783.88671875
171, 0, 0, 768.6712036132812
172, 0, 0, 777.0016479492188
173, 0, 0, 769.35400390625
174, 0, 0, 768.251953125
175, 0, 0, 771.6546630859375
176, 0, 0, 761.4389038085938
177, 0, 0, 761.0430908203125
178, 0, 0, 763.82666015625
179, 0, 0, 764.406982421875
