# TOPAS Version: 3.3.p1
# Parameter File: Test.txt
# Results for scorer MLIC_Scorer
# Scored in component: MLIC
# X in 180 bins of 0.177778 cm
# Y in 1 bin  of 10 cm
# Z in 1 bin  of 10 cm
# EnergyDeposit ( MeV ) : Sum   
0, 0, 0, 0
1, 0, 0, 0
2, 0, 0, 0
3, 0, 0, 0
4, 0, 0, 0
5, 0, 0, 0
6, 0, 0, 0
7, 0, 0, 28.64972305297852
8, 0, 0, 128.8772888183594
9, 0, 0, 741.8644409179688
10, 0, 0, 1795.500732421875
11, 0, 0, 3058.117431640625
12, 0, 0, 4260.90869140625
13, 0, 0, 4910.158203125
14, 0, 0, 4966.5791015625
15, 0, 0, 4394.83349609375
16, 0, 0, 3955.982666015625
17, 0, 0, 3504.265625
18, 0, 0, 3145.3466796875
19, 0, 0, 2901.170654296875
20, 0, 0, 2713.2841796875
21, 0, 0, 2574.243896484375
22, 0, 0, 2455.549560546875
23, 0, 0, 2349.33935546875
24, 0, 0, 2253.654296875
25, 0, 0, 2175.793212890625
26, 0, 0, 2102.960205078125
27, 0, 0, 2036.893432617188
28, 0, 0, 1984.9697265625
29, 0, 0, 1931.919921875
30, 0, 0, 1891.483032226562
31, 0, 0, 1840.393798828125
32, 0, 0, 1796.654541015625
33, 0, 0, 1755.48974609375
34, 0, 0, 1727.247924804688
35, 0, 0, 1695.827514648438
36, 0, 0, 1658.575561523438
37, 0, 0, 1633.9423828125
38, 0, 0, 1615.2060546875
39, 0, 0, 1582.891479492188
40, 0, 0, 1555.050048828125
41, 0, 0, 1526.708374023438
42, 0, 0, 1506.659790039062
43, 0, 0, 1488.930297851562
44, 0, 0, 1472.719604492188
45, 0, 0, 1449.10595703125
46, 0, 0, 1431.66552734375
47, 0, 0, 1412.842163085938
48, 0, 0, 1401.567504882812
49, 0, 0, 1371.39990234375
50, 0, 0, 1361.411376953125
51, 0, 0, 1348.100341796875
52, 0, 0, 1334.63330078125
53, 0, 0, 1321.301025390625
54, 0, 0, 1307.9462890625
55, 0, 0, 1297.786987304688
56, 0, 0, 1279.323608398438
57, 0, 0, 1274.999389648438
58, 0, 0, 1251.869140625
59, 0, 0, 1251.188110351562
60, 0, 0, 1240.18359375
61, 0, 0, 1229.713500976562
62, 0, 0, 1216.344604492188
63, 0, 0, 1203.758056640625
64, 0, 0, 1193.224975585938
65, 0, 0, 1180.39453125
66, 0, 0, 1175.516723632812
67, 0, 0, 1164.980224609375
68, 0, 0, 1161.925659179688
69, 0, 0, 1148.958618164062
70, 0, 0, 1139.070434570312
71, 0, 0, 1129.295043945312
72, 0, 0, 1125.515625
73, 0, 0, 1117.46484375
74, 0, 0, 1115.111450195312
75, 0, 0, 1095.3271484375
76, 0, 0, 1104.988037109375
77, 0, 0, 1085.107055664062
78, 0, 0, 1084.91064453125
79, 0, 0, 1084.63134765625
80, 0, 0, 1075.460083007812
81, 0, 0, 1065.111083984375
82, 0, 0, 1064.44384765625
83, 0, 0, 1058.27197265625
84, 0, 0, 1046.424682617188
85, 0, 0, 1034.762939453125
86, 0, 0, 1029.748657226562
87, 0, 0, 1029.052734375
88, 0, 0, 1023.392639160156
89, 0, 0, 1023.076171875
90, 0, 0, 1018.402282714844
91, 0, 0, 1008.701538085938
92, 0, 0, 1001.063110351562
93, 0, 0, 992.119384765625
94, 0, 0, 1000.091064453125
95, 0, 0, 996.1343383789062
96, 0, 0, 986.5466918945312
97, 0, 0, 986.5856323242188
98, 0, 0, 978.9046020507812
99, 0, 0, 974.0447387695312
100, 0, 0, 962.6803588867188
101, 0, 0, 964.0916748046875
102, 0, 0, 955.172119140625
103, 0, 0, 953.5808715820312
104, 0, 0, 949.6326904296875
105, 0, 0, 947.9046630859375
106, 0, 0, 946.0181274414062
107, 0, 0, 944.1201171875
108, 0, 0, 935.8912353515625
109, 0, 0, 933.8604736328125
110, 0, 0, 923.2183837890625
111, 0, 0, 922.7914428710938
112, 0, 0, 923.59326171875
113, 0, 0, 916.291259765625
114, 0, 0, 915.9660034179688
115, 0, 0, 907.9156494140625
116, 0, 0, 906.0723266601562
117, 0, 0, 904.0413818359375
118, 0, 0, 900.8447875976562
119, 0, 0, 900.288818359375
120, 0, 0, 889.7599487304688
121, 0, 0, 887.4417724609375
122, 0, 0, 885.6945190429688
123, 0, 0, 877.5967407226562
124, 0, 0, 885.0608520507812
125, 0, 0, 885.35009765625
126, 0, 0, 871.9555053710938
127, 0, 0, 867.8035278320312
128, 0, 0, 872.0010375976562
129, 0, 0, 867.9049682617188
130, 0, 0, 862.372314453125
131, 0, 0, 851.94482421875
132, 0, 0, 856.6370849609375
133, 0, 0, 856.0623779296875
134, 0, 0, 849.8385620117188
135, 0, 0, 853.8643798828125
136, 0, 0, 847.5319213867188
137, 0, 0, 845.5311889648438
138, 0, 0, 848.7862548828125
139, 0, 0, 833.615234375
140, 0, 0, 828.833740234375
141, 0, 0, 831.1065673828125
142, 0, 0, 832.9603881835938
143, 0, 0, 830.4065551757812
144, 0, 0, 825.7184448242188
145, 0, 0, 823.0714721679688
146, 0, 0, 825.5272216796875
147, 0, 0, 816.7598876953125
148, 0, 0, 820.6124877929688
149, 0, 0, 808.2735595703125
150, 0, 0, 802.3289794921875
151, 0, 0, 803.7457275390625
152, 0, 0, 808.9601440429688
153, 0, 0, 804.0773315429688
154, 0, 0, 813.319091796875
155, 0, 0, 797.9371948242188
156, 0, 0, 794.9899291992188
157, 0, 0, 796.1436157226562
158, 0, 0, 797.546630859375
159, 0, 0, 798.8945922851562
160, 0, 0, 786.5624389648438
161, 0, 0, 794.0457763671875
162, 0, 0, 787.485107421875
163, 0, 0, 787.66064453125
164, 0, 0, 790.3720092773438
165, 0, 0, 775.5661010742188
166, 0, 0, 784.620361328125
167, 0, 0, 779.4658813476562
168, 0, 0, 773.3855590820312
169, 0, 0, 775.92919921875
170, 0, 0, 771.4556884765625
171, 0, 0, 774.5485229492188
172, 0, 0, 766.83935546875
173, 0, 0, 768.2012939453125
174, 0, 0, 767.1712646484375
175, 0, 0, 758.5142822265625
176, 0, 0, 748.8517456054688
177, 0, 0, 762.0220947265625
178, 0, 0, 761.8001098632812
179, 0, 0, 757.7725219726562
