# TOPAS Version: 3.3.p1
# Parameter File: Test.txt
# Results for scorer MLIC_Scorer
# Scored in component: MLIC
# X in 180 bins of 0.177778 cm
# Y in 1 bin  of 10 cm
# Z in 1 bin  of 10 cm
# EnergyDeposit ( MeV ) : Sum   
0, 0, 0, 0
1, 0, 0, 0
2, 0, 0, 0
3, 0, 0, 0
4, 0, 0, 0
5, 0, 0, 0
6, 0, 0, 0
7, 0, 0, 0
8, 0, 0, 0
9, 0, 0, 0
10, 0, 0, 0
11, 0, 0, 0
12, 0, 0, 0
13, 0, 0, 0
14, 0, 0, 0
15, 0, 0, 0
16, 0, 0, 0
17, 0, 0, 0
18, 0, 0, 0
19, 0, 0, 0
20, 0, 0, 0
21, 0, 0, 0
22, 0, 0, 0
23, 0, 0, 0
24, 0, 0, 0
25, 0, 0, 0
26, 0, 0, 0
27, 0, 0, 0
28, 0, 0, 0
29, 0, 0, 0
30, 0, 0, 0
31, 0, 0, 0
32, 0, 0, 0
33, 0, 0, 0
34, 0, 0, 0
35, 0, 0, 0
36, 0, 0, 0
37, 0, 0, 0
38, 0, 0, 0
39, 0, 0, 0
40, 0, 0, 0
41, 0, 0, 0
42, 0, 0, 0
43, 0, 0, 0
44, 0, 0, 0
45, 0, 0, 0
46, 0, 0, 0
47, 0, 0, 0
48, 0, 0, 0
49, 0, 0, 0
50, 0, 0, 0
51, 0, 0, 0
52, 0, 0, 0
53, 0, 0, 0
54, 0, 0, 0
55, 0, 0, 0
56, 0, 0, 0
57, 0, 0, 0
58, 0, 0, 0
59, 0, 0, 0
60, 0, 0, 0
61, 0, 0, 0
62, 0, 0, 0
63, 0, 0, 0
64, 0, 0, 0
65, 0, 0, 0
66, 0, 0, 0
67, 0, 0, 0
68, 0, 0, 0
69, 0, 0, 0
70, 0, 0, 0
71, 0, 0, 0
72, 0, 0, 0
73, 0, 0, 0
74, 0, 0, 0
75, 0, 0, 0
76, 0, 0, 0
77, 0, 0, 0
78, 0, 0, 0
79, 0, 0, 0
80, 0, 0, 0
81, 0, 0, 0
82, 0, 0, 42.01538848876953
83, 0, 0, 245.9024963378906
84, 0, 0, 650.8795776367188
85, 0, 0, 1655.279418945312
86, 0, 0, 2954.926025390625
87, 0, 0, 4218.56982421875
88, 0, 0, 4828.48046875
89, 0, 0, 4811.794921875
90, 0, 0, 4450.123046875
91, 0, 0, 4033.816162109375
92, 0, 0, 3527.91015625
93, 0, 0, 3171.313720703125
94, 0, 0, 2919.966552734375
95, 0, 0, 2730.81982421875
96, 0, 0, 2590.474853515625
97, 0, 0, 2467.709228515625
98, 0, 0, 2362.48046875
99, 0, 0, 2263.078857421875
100, 0, 0, 2185.53271484375
101, 0, 0, 2107.46728515625
102, 0, 0, 2046.9091796875
103, 0, 0, 1994.008422851562
104, 0, 0, 1942.995971679688
105, 0, 0, 1889.220336914062
106, 0, 0, 1841.830322265625
107, 0, 0, 1801.336547851562
108, 0, 0, 1762.514404296875
109, 0, 0, 1732.841186523438
110, 0, 0, 1696.033325195312
111, 0, 0, 1662.657836914062
112, 0, 0, 1637.760498046875
113, 0, 0, 1606.113525390625
114, 0, 0, 1588.244018554688
115, 0, 0, 1557.285400390625
116, 0, 0, 1533.430053710938
117, 0, 0, 1510.29248046875
118, 0, 0, 1488.843505859375
119, 0, 0, 1470.140625
120, 0, 0, 1446.546630859375
121, 0, 0, 1432.294555664062
122, 0, 0, 1415.232177734375
123, 0, 0, 1403.88037109375
124, 0, 0, 1383.977905273438
125, 0, 0, 1364.119262695312
126, 0, 0, 1350.164672851562
127, 0, 0, 1332.602294921875
128, 0, 0, 1321.330078125
129, 0, 0, 1303.672119140625
130, 0, 0, 1298.197387695312
131, 0, 0, 1283.465454101562
132, 0, 0, 1268.951782226562
133, 0, 0, 1262.415161132812
134, 0, 0, 1257.050537109375
135, 0, 0, 1230.505493164062
136, 0, 0, 1230.248413085938
137, 0, 0, 1220.361572265625
138, 0, 0, 1207.964721679688
139, 0, 0, 1201.582641601562
140, 0, 0, 1183.9873046875
141, 0, 0, 1175.93505859375
142, 0, 0, 1175.788330078125
143, 0, 0, 1163.194091796875
144, 0, 0, 1157.831909179688
145, 0, 0, 1147.286743164062
146, 0, 0, 1138.26220703125
147, 0, 0, 1128.060913085938
148, 0, 0, 1118.321044921875
149, 0, 0, 1118.142822265625
150, 0, 0, 1108.44140625
151, 0, 0, 1108.976928710938
152, 0, 0, 1087.790771484375
153, 0, 0, 1093.278564453125
154, 0, 0, 1077.077270507812
155, 0, 0, 1071.15380859375
156, 0, 0, 1060.729858398438
157, 0, 0, 1061.003662109375
158, 0, 0, 1052.514404296875
159, 0, 0, 1053.159057617188
160, 0, 0, 1041.09814453125
161, 0, 0, 1037.05615234375
162, 0, 0, 1024.0849609375
163, 0, 0, 1028.525756835938
164, 0, 0, 1028.310180664062
165, 0, 0, 1006.296142578125
166, 0, 0, 1005.70361328125
167, 0, 0, 1000.85009765625
168, 0, 0, 1001.231201171875
169, 0, 0, 995.6470336914062
170, 0, 0, 990.50537109375
171, 0, 0, 985.5532836914062
172, 0, 0, 979.1241455078125
173, 0, 0, 976.6634521484375
174, 0, 0, 969.8425903320312
175, 0, 0, 968.9907836914062
176, 0, 0, 961.8269653320312
177, 0, 0, 963.482666015625
178, 0, 0, 946.5527954101562
179, 0, 0, 946.6644287109375
