# TOPAS Version: 3.3.p1
# Parameter File: Test.txt
# Results for scorer MLIC_Scorer
# Scored in component: MLIC
# X in 180 bins of 0.177778 cm
# Y in 1 bin  of 10 cm
# Z in 1 bin  of 10 cm
# EnergyDeposit ( MeV ) : Sum   
0, 0, 0, 0
1, 0, 0, 0
2, 0, 0, 0
3, 0, 0, 0
4, 0, 0, 0
5, 0, 0, 0
6, 0, 0, 0
7, 0, 0, 0
8, 0, 0, 0
9, 0, 0, 0
10, 0, 0, 0
11, 0, 0, 0
12, 0, 0, 0
13, 0, 0, 0
14, 0, 0, 0
15, 0, 0, 0
16, 0, 0, 0
17, 0, 0, 0
18, 0, 0, 0
19, 0, 0, 0
20, 0, 0, 0
21, 0, 0, 0
22, 0, 0, 0
23, 0, 0, 0
24, 0, 0, 0
25, 0, 0, 0
26, 0, 0, 0
27, 0, 0, 0
28, 0, 0, 0
29, 0, 0, 0
30, 0, 0, 0
31, 0, 0, 0
32, 0, 0, 0
33, 0, 0, 0
34, 0, 0, 0
35, 0, 0, 0
36, 0, 0, 0
37, 0, 0, 0
38, 0, 0, 0
39, 0, 0, 0
40, 0, 0, 0
41, 0, 0, 0
42, 0, 0, 0
43, 0, 0, 0
44, 0, 0, 0
45, 0, 0, 0
46, 0, 0, 0
47, 0, 0, 0
48, 0, 0, 0
49, 0, 0, 0
50, 0, 0, 0
51, 0, 0, 0
52, 0, 0, 0
53, 0, 0, 0
54, 0, 0, 0
55, 0, 0, 0.01303597632795572
56, 0, 0, 0.001348704681731761
57, 0, 0, 0
58, 0, 0, 0
59, 0, 0, 0
60, 0, 0, 0
61, 0, 0, 0
62, 0, 0, 0
63, 0, 0, 0
64, 0, 0, 0
65, 0, 0, 0
66, 0, 0, 0
67, 0, 0, 0
68, 0, 0, 14.4604024887085
69, 0, 0, 70.70948791503906
70, 0, 0, 507.26123046875
71, 0, 0, 1523.575561523438
72, 0, 0, 2762.29833984375
73, 0, 0, 4183.42724609375
74, 0, 0, 4691.5087890625
75, 0, 0, 4816.74072265625
76, 0, 0, 4560.9365234375
77, 0, 0, 4013.61572265625
78, 0, 0, 3586.8740234375
79, 0, 0, 3248.01220703125
80, 0, 0, 2990.994140625
81, 0, 0, 2783.49755859375
82, 0, 0, 2620.2412109375
83, 0, 0, 2485.71875
84, 0, 0, 2379.4365234375
85, 0, 0, 2275.58154296875
86, 0, 0, 2201.008056640625
87, 0, 0, 2131.93212890625
88, 0, 0, 2054.73876953125
89, 0, 0, 1998.979370117188
90, 0, 0, 1955.995361328125
91, 0, 0, 1900.078857421875
92, 0, 0, 1849.822265625
93, 0, 0, 1810.797241210938
94, 0, 0, 1770.296142578125
95, 0, 0, 1737.518798828125
96, 0, 0, 1698.1923828125
97, 0, 0, 1667.903686523438
98, 0, 0, 1640.247680664062
99, 0, 0, 1610.464721679688
100, 0, 0, 1584.307373046875
101, 0, 0, 1568.118774414062
102, 0, 0, 1541.288696289062
103, 0, 0, 1510.369873046875
104, 0, 0, 1494.317626953125
105, 0, 0, 1471.119140625
106, 0, 0, 1455.738647460938
107, 0, 0, 1434.957885742188
108, 0, 0, 1425.168334960938
109, 0, 0, 1404.850341796875
110, 0, 0, 1373.410278320312
111, 0, 0, 1368.47412109375
112, 0, 0, 1348.730102539062
113, 0, 0, 1334.612060546875
114, 0, 0, 1324.454467773438
115, 0, 0, 1311.877563476562
116, 0, 0, 1305.871826171875
117, 0, 0, 1285.4072265625
118, 0, 0, 1280.732543945312
119, 0, 0, 1257.5234375
120, 0, 0, 1249.260498046875
121, 0, 0, 1246.656127929688
122, 0, 0, 1230.010620117188
123, 0, 0, 1214.06884765625
124, 0, 0, 1213.999389648438
125, 0, 0, 1201.472290039062
126, 0, 0, 1186.736328125
127, 0, 0, 1182.646118164062
128, 0, 0, 1163.276977539062
129, 0, 0, 1158.581909179688
130, 0, 0, 1157.215209960938
131, 0, 0, 1153.520874023438
132, 0, 0, 1133.115966796875
133, 0, 0, 1128.042114257812
134, 0, 0, 1124.030639648438
135, 0, 0, 1117.263305664062
136, 0, 0, 1100.421630859375
137, 0, 0, 1098.542846679688
138, 0, 0, 1092.6748046875
139, 0, 0, 1077.735229492188
140, 0, 0, 1084.09912109375
141, 0, 0, 1073.30908203125
142, 0, 0, 1072.807983398438
143, 0, 0, 1064.0498046875
144, 0, 0, 1049.7109375
145, 0, 0, 1045.923583984375
146, 0, 0, 1050.642944335938
147, 0, 0, 1035.063598632812
148, 0, 0, 1035.148315429688
149, 0, 0, 1027.035400390625
150, 0, 0, 1024.35791015625
151, 0, 0, 1023.744201660156
152, 0, 0, 1005.4287109375
153, 0, 0, 1010.525207519531
154, 0, 0, 1000.406127929688
155, 0, 0, 989.6329956054688
156, 0, 0, 991.0833129882812
157, 0, 0, 984.3521118164062
158, 0, 0, 973.6275634765625
159, 0, 0, 971.8740844726562
160, 0, 0, 973.7100830078125
161, 0, 0, 960.3607177734375
162, 0, 0, 969.3298950195312
163, 0, 0, 959.0552368164062
164, 0, 0, 960.130859375
165, 0, 0, 955.9025268554688
166, 0, 0, 946.2015991210938
167, 0, 0, 943.9966430664062
168, 0, 0, 944.8853149414062
169, 0, 0, 930.6304931640625
170, 0, 0, 936.991943359375
171, 0, 0, 925.0294189453125
172, 0, 0, 925.6831665039062
173, 0, 0, 920.3502807617188
174, 0, 0, 926.0176391601562
175, 0, 0, 907.5074462890625
176, 0, 0, 904.0118408203125
177, 0, 0, 902.1947631835938
178, 0, 0, 903.6746215820312
179, 0, 0, 900.97509765625
