# TOPAS Version: 3.3.p1
# Parameter File: Test.txt
# Results for scorer MLIC_Scorer
# Scored in component: MLIC
# X in 165 bins of 0.2 cm
# Y in 1 bin  of 10 cm
# Z in 1 bin  of 10 cm
# EnergyDeposit ( MeV ) : Sum   
0, 0, 0, 0
1, 0, 0, 0
2, 0, 0, 0
3, 0, 0, 0
4, 0, 0, 0
5, 0, 0, 0
6, 0, 0, 0
7, 0, 0, 0
8, 0, 0, 0
9, 0, 0, 0
10, 0, 0, 0
11, 0, 0, 0
12, 0, 0, 0
13, 0, 0, 0
14, 0, 0, 0
15, 0, 0, 0
16, 0, 0, 0
17, 0, 0, 0
18, 0, 0, 0
19, 0, 0, 0
20, 0, 0, 0
21, 0, 0, 0
22, 0, 0, 0
23, 0, 0, 0
24, 0, 0, 0
25, 0, 0, 0
26, 0, 0, 0
27, 0, 0, 0
28, 0, 0, 0
29, 0, 0, 0
30, 0, 0, 0
31, 0, 0, 0
32, 0, 0, 0
33, 0, 0, 0
34, 0, 0, 0
35, 0, 0, 0
36, 0, 0, 0
37, 0, 0, 0
38, 0, 0, 0
39, 0, 0, 0
40, 0, 0, 0
41, 0, 0, 0
42, 0, 0, 0
43, 0, 0, 0
44, 0, 0, 0
45, 0, 0, 0
46, 0, 0, 0
47, 0, 0, 0
48, 0, 0, 0
49, 0, 0, 0
50, 0, 0, 0
51, 0, 0, 0
52, 0, 0, 0
53, 0, 0, 0
54, 0, 0, 0
55, 0, 0, 0
56, 0, 0, 0
57, 0, 0, 0
58, 0, 0, 0
59, 0, 0, 0
60, 0, 0, 0
61, 0, 0, 0
62, 0, 0, 0
63, 0, 0, 0
64, 0, 0, 0
65, 0, 0, 0
66, 0, 0, 0
67, 0, 0, 0
68, 0, 0, 0
69, 0, 0, 0
70, 0, 0, 0
71, 0, 0, 0
72, 0, 0, 0
73, 0, 0, 0
74, 0, 0, 0
75, 0, 0, 0
76, 0, 0, 0
77, 0, 0, 0
78, 0, 0, 0
79, 0, 0, 0
80, 0, 0, 0
81, 0, 0, 0
82, 0, 0, 0
83, 0, 0, 0
84, 0, 0, 0
85, 0, 0, 0
86, 0, 0, 0
87, 0, 0, 0
88, 0, 0, 0
89, 0, 0, 0
90, 0, 0, 0
91, 0, 0, 0
92, 0, 0, 0
93, 0, 0, 0
94, 0, 0, 13.00148296356201
95, 0, 0, 124.6007919311523
96, 0, 0, 506.1788940429688
97, 0, 0, 1469.217041015625
98, 0, 0, 2877.19287109375
99, 0, 0, 4430.00341796875
100, 0, 0, 5302.38818359375
101, 0, 0, 5403.71240234375
102, 0, 0, 4915.00537109375
103, 0, 0, 4306.02880859375
104, 0, 0, 3770.47265625
105, 0, 0, 3396.58642578125
106, 0, 0, 3137.7236328125
107, 0, 0, 2940.277587890625
108, 0, 0, 2776.9306640625
109, 0, 0, 2637.0654296875
110, 0, 0, 2524.888916015625
111, 0, 0, 2425.60693359375
112, 0, 0, 2330.525390625
113, 0, 0, 2266.6875
114, 0, 0, 2186.72509765625
115, 0, 0, 2129.343505859375
116, 0, 0, 2076.6474609375
117, 0, 0, 2018.042236328125
118, 0, 0, 1981.765380859375
119, 0, 0, 1924.899780273438
120, 0, 0, 1889.228881835938
121, 0, 0, 1852.780639648438
122, 0, 0, 1817.684448242188
123, 0, 0, 1780.510131835938
124, 0, 0, 1738.883544921875
125, 0, 0, 1718.991088867188
126, 0, 0, 1697.768798828125
127, 0, 0, 1672.03271484375
128, 0, 0, 1639.90869140625
129, 0, 0, 1614.972412109375
130, 0, 0, 1589.342041015625
131, 0, 0, 1572.767456054688
132, 0, 0, 1555.233276367188
133, 0, 0, 1536.848999023438
134, 0, 0, 1513.60693359375
135, 0, 0, 1494.941650390625
136, 0, 0, 1479.9375
137, 0, 0, 1465.028198242188
138, 0, 0, 1460.246826171875
139, 0, 0, 1434.711059570312
140, 0, 0, 1418.007568359375
141, 0, 0, 1403.214477539062
142, 0, 0, 1399.481079101562
143, 0, 0, 1376.834106445312
144, 0, 0, 1364.33447265625
145, 0, 0, 1357.529052734375
146, 0, 0, 1339.217407226562
147, 0, 0, 1338.4833984375
148, 0, 0, 1318.855102539062
149, 0, 0, 1299.196899414062
150, 0, 0, 1303.131225585938
151, 0, 0, 1283.8662109375
152, 0, 0, 1274.812622070312
153, 0, 0, 1266.802978515625
154, 0, 0, 1261.935913085938
155, 0, 0, 1245.016235351562
156, 0, 0, 1230.809936523438
157, 0, 0, 1231.788330078125
158, 0, 0, 1215.931274414062
159, 0, 0, 1212.395385742188
160, 0, 0, 1198.608520507812
161, 0, 0, 1196.091674804688
162, 0, 0, 1185.579223632812
163, 0, 0, 1176.953247070312
164, 0, 0, 1169.19140625
