# TOPAS Version: 3.3.p1
# Parameter File: Test.txt
# Results for scorer MLIC_Scorer
# Scored in component: MLIC
# X in 180 bins of 0.183333 cm
# Y in 1 bin  of 10 cm
# Z in 1 bin  of 10 cm
# EnergyDeposit ( MeV ) : Sum   
0, 0, 0, 0.0004818642919417471
1, 0, 0, 0
2, 0, 0, 0
3, 0, 0, 0
4, 0, 0, 0
5, 0, 0, 0
6, 0, 0, 0
7, 0, 0, 0
8, 0, 0, 0
9, 0, 0, 0
10, 0, 0, 0
11, 0, 0, 0
12, 0, 0, 0
13, 0, 0, 0
14, 0, 0, 0
15, 0, 0, 0
16, 0, 0, 0
17, 0, 0, 0
18, 0, 0, 0
19, 0, 0, 0
20, 0, 0, 0
21, 0, 0, 0
22, 0, 0, 0
23, 0, 0, 0
24, 0, 0, 0
25, 0, 0, 0
26, 0, 0, 0
27, 0, 0, 0
28, 0, 0, 0
29, 0, 0, 0
30, 0, 0, 0
31, 0, 0, 0
32, 0, 0, 0
33, 0, 0, 0
34, 0, 0, 0
35, 0, 0, 0
36, 0, 0, 0
37, 0, 0, 0
38, 0, 0, 0
39, 0, 0, 0.005937704350799322
40, 0, 0, 0
41, 0, 0, 0
42, 0, 0, 0
43, 0, 0, 0
44, 0, 0, 0
45, 0, 0, 0.005125286988914013
46, 0, 0, 0
47, 0, 0, 0
48, 0, 0, 0
49, 0, 0, 0
50, 0, 0, 0
51, 0, 0, 0.002310832496732473
52, 0, 0, 0
53, 0, 0, 0
54, 0, 0, 0.02101900801062584
55, 0, 0, 0
56, 0, 0, 0
57, 0, 0, 0
58, 0, 0, 0
59, 0, 0, 7.379438877105713
60, 0, 0, 57.04180908203125
61, 0, 0, 400.3049926757812
62, 0, 0, 960.590087890625
63, 0, 0, 2241.3974609375
64, 0, 0, 3508.53369140625
65, 0, 0, 4742.33203125
66, 0, 0, 5360.54931640625
67, 0, 0, 4911.2724609375
68, 0, 0, 4340.92578125
69, 0, 0, 3751.632080078125
70, 0, 0, 3353.3525390625
71, 0, 0, 3074.914794921875
72, 0, 0, 2863.679931640625
73, 0, 0, 2700.719482421875
74, 0, 0, 2556.71484375
75, 0, 0, 2445.237548828125
76, 0, 0, 2346.816162109375
77, 0, 0, 2255.01708984375
78, 0, 0, 2183.29833984375
79, 0, 0, 2105.477294921875
80, 0, 0, 2055.926513671875
81, 0, 0, 1990.2265625
82, 0, 0, 1941.147094726562
83, 0, 0, 1890.996459960938
84, 0, 0, 1852.061401367188
85, 0, 0, 1814.936279296875
86, 0, 0, 1772.900756835938
87, 0, 0, 1737.896118164062
88, 0, 0, 1711.028442382812
89, 0, 0, 1677.818969726562
90, 0, 0, 1651.034057617188
91, 0, 0, 1626.246704101562
92, 0, 0, 1603.016479492188
93, 0, 0, 1573.620361328125
94, 0, 0, 1549.464477539062
95, 0, 0, 1534.95458984375
96, 0, 0, 1510.929565429688
97, 0, 0, 1485.323608398438
98, 0, 0, 1470.399291992188
99, 0, 0, 1438.978759765625
100, 0, 0, 1429.848388671875
101, 0, 0, 1409.433959960938
102, 0, 0, 1400.930297851562
103, 0, 0, 1387.651245117188
104, 0, 0, 1368.264282226562
105, 0, 0, 1356.590576171875
106, 0, 0, 1337.170288085938
107, 0, 0, 1329.037231445312
108, 0, 0, 1313.849853515625
109, 0, 0, 1303.267944335938
110, 0, 0, 1289.234130859375
111, 0, 0, 1286.179565429688
112, 0, 0, 1265.517944335938
113, 0, 0, 1249.20361328125
114, 0, 0, 1238.389282226562
115, 0, 0, 1236.930908203125
116, 0, 0, 1222.880004882812
117, 0, 0, 1219.09423828125
118, 0, 0, 1208.368408203125
119, 0, 0, 1191.220825195312
120, 0, 0, 1181.963623046875
121, 0, 0, 1178.721069335938
122, 0, 0, 1181.01953125
123, 0, 0, 1173.292846679688
124, 0, 0, 1147.913940429688
125, 0, 0, 1141.267700195312
126, 0, 0, 1138.328735351562
127, 0, 0, 1125.926391601562
128, 0, 0, 1124.220947265625
129, 0, 0, 1114.89794921875
130, 0, 0, 1111.753051757812
131, 0, 0, 1102.899291992188
132, 0, 0, 1098.990600585938
133, 0, 0, 1094.932006835938
134, 0, 0, 1081.662109375
135, 0, 0, 1080.011840820312
136, 0, 0, 1067.518676757812
137, 0, 0, 1064.1220703125
138, 0, 0, 1055.584106445312
139, 0, 0, 1051.69580078125
140, 0, 0, 1037.637817382812
141, 0, 0, 1034.814697265625
142, 0, 0, 1042.601318359375
143, 0, 0, 1030.559936523438
144, 0, 0, 1027.831787109375
145, 0, 0, 1013.490173339844
146, 0, 0, 1017.643859863281
147, 0, 0, 1010.662475585938
148, 0, 0, 1007.549743652344
149, 0, 0, 1008.481384277344
150, 0, 0, 997.2550048828125
151, 0, 0, 994.4654541015625
152, 0, 0, 988.754638671875
153, 0, 0, 988.9552001953125
154, 0, 0, 968.4472045898438
155, 0, 0, 971.5574340820312
156, 0, 0, 966.8740844726562
157, 0, 0, 967.8219604492188
158, 0, 0, 966.6229248046875
159, 0, 0, 957.172607421875
160, 0, 0, 962.2846069335938
161, 0, 0, 948.4728393554688
162, 0, 0, 947.442138671875
163, 0, 0, 945.234130859375
164, 0, 0, 940.8927612304688
165, 0, 0, 938.2135620117188
166, 0, 0, 933.581298828125
167, 0, 0, 922.5281982421875
168, 0, 0, 928.2681884765625
169, 0, 0, 913.441162109375
170, 0, 0, 920.9808959960938
171, 0, 0, 918.8080444335938
172, 0, 0, 909.7831420898438
173, 0, 0, 913.040283203125
174, 0, 0, 909.6677856445312
175, 0, 0, 903.627685546875
176, 0, 0, 902.295166015625
177, 0, 0, 900.3718872070312
178, 0, 0, 892.1754760742188
179, 0, 0, 886.50244140625
