# TOPAS Version: 3.3.p1
# Parameter File: Test.txt
# Results for scorer MLIC_Scorer
# Scored in component: MLIC
# X in 180 bins of 0.183333 cm
# Y in 1 bin  of 10 cm
# Z in 1 bin  of 10 cm
# EnergyDeposit ( MeV ) : Sum   
0, 0, 0, 0
1, 0, 0, 0
2, 0, 0, 0
3, 0, 0, 0
4, 0, 0, 0
5, 0, 0, 0
6, 0, 0, 0
7, 0, 0, 0
8, 0, 0, 0
9, 0, 0, 0
10, 0, 0, 0
11, 0, 0, 0
12, 0, 0, 0
13, 0, 0, 0
14, 0, 0, 0
15, 0, 0, 0
16, 0, 0, 0
17, 0, 0, 0
18, 0, 0, 0
19, 0, 0, 0
20, 0, 0, 0
21, 0, 0, 0
22, 0, 0, 0
23, 0, 0, 0
24, 0, 0, 0
25, 0, 0, 0
26, 0, 0, 0
27, 0, 0, 0
28, 0, 0, 0
29, 0, 0, 0
30, 0, 0, 0
31, 0, 0, 0
32, 0, 0, 0
33, 0, 0, 0
34, 0, 0, 0
35, 0, 0, 0
36, 0, 0, 0
37, 0, 0, 0
38, 0, 0, 0
39, 0, 0, 0
40, 0, 0, 0
41, 0, 0, 0
42, 0, 0, 0
43, 0, 0, 0
44, 0, 0, 0
45, 0, 0, 0
46, 0, 0, 0.004582135006785393
47, 0, 0, 0.01175784971565008
48, 0, 0, 0.001598105882294476
49, 0, 0, 0
50, 0, 0, 0
51, 0, 0, 0
52, 0, 0, 0
53, 0, 0, 0
54, 0, 0, 0
55, 0, 0, 28.57717514038086
56, 0, 0, 78.35533142089844
57, 0, 0, 435.2523498535156
58, 0, 0, 1237.181762695312
59, 0, 0, 2737.453369140625
60, 0, 0, 3970.94677734375
61, 0, 0, 4933.52734375
62, 0, 0, 5283.71044921875
63, 0, 0, 4771.568359375
64, 0, 0, 4120.28564453125
65, 0, 0, 3637.547119140625
66, 0, 0, 3265.49853515625
67, 0, 0, 3013.146484375
68, 0, 0, 2815.50390625
69, 0, 0, 2662.381591796875
70, 0, 0, 2529.029541015625
71, 0, 0, 2414.930908203125
72, 0, 0, 2319.866943359375
73, 0, 0, 2243.1318359375
74, 0, 0, 2160.244384765625
75, 0, 0, 2091.234375
76, 0, 0, 2031.98388671875
77, 0, 0, 1980.749755859375
78, 0, 0, 1926.100341796875
79, 0, 0, 1878.355590820312
80, 0, 0, 1835.7265625
81, 0, 0, 1798.6259765625
82, 0, 0, 1769.337890625
83, 0, 0, 1732.529418945312
84, 0, 0, 1703.89111328125
85, 0, 0, 1669.657958984375
86, 0, 0, 1638.815551757812
87, 0, 0, 1620.419799804688
88, 0, 0, 1594.578002929688
89, 0, 0, 1555.256958007812
90, 0, 0, 1546.39697265625
91, 0, 0, 1514.64208984375
92, 0, 0, 1503.53662109375
93, 0, 0, 1486.097900390625
94, 0, 0, 1461.4296875
95, 0, 0, 1448.241088867188
96, 0, 0, 1424.726928710938
97, 0, 0, 1414.847900390625
98, 0, 0, 1395.586791992188
99, 0, 0, 1369.5439453125
100, 0, 0, 1366.505493164062
101, 0, 0, 1352.65576171875
102, 0, 0, 1334.08837890625
103, 0, 0, 1324.610961914062
104, 0, 0, 1306.123168945312
105, 0, 0, 1299.091674804688
106, 0, 0, 1282.842041015625
107, 0, 0, 1277.21826171875
108, 0, 0, 1265.565673828125
109, 0, 0, 1250.908203125
110, 0, 0, 1241.812622070312
111, 0, 0, 1232.683837890625
112, 0, 0, 1223.666015625
113, 0, 0, 1210.500122070312
114, 0, 0, 1204.6572265625
115, 0, 0, 1190.273681640625
116, 0, 0, 1187.694580078125
117, 0, 0, 1182.339477539062
118, 0, 0, 1165.858154296875
119, 0, 0, 1161.503173828125
120, 0, 0, 1154.2138671875
121, 0, 0, 1142.086181640625
122, 0, 0, 1127.912963867188
123, 0, 0, 1125.907348632812
124, 0, 0, 1123.396240234375
125, 0, 0, 1113.857421875
126, 0, 0, 1110.986206054688
127, 0, 0, 1107.278442382812
128, 0, 0, 1098.137329101562
129, 0, 0, 1088.310791015625
130, 0, 0, 1081.527221679688
131, 0, 0, 1079.348510742188
132, 0, 0, 1070.390625
133, 0, 0, 1069.416870117188
134, 0, 0, 1054.64599609375
135, 0, 0, 1055.479858398438
136, 0, 0, 1049.280395507812
137, 0, 0, 1046.22705078125
138, 0, 0, 1031.113159179688
139, 0, 0, 1035.741088867188
140, 0, 0, 1024.05419921875
141, 0, 0, 1013.017456054688
142, 0, 0, 1011.936157226562
143, 0, 0, 1012.529846191406
144, 0, 0, 1003.795288085938
145, 0, 0, 1003.955932617188
146, 0, 0, 994.5001220703125
147, 0, 0, 992.32275390625
148, 0, 0, 990.1272583007812
149, 0, 0, 981.0469360351562
150, 0, 0, 980.60205078125
151, 0, 0, 966.0827026367188
152, 0, 0, 969.6583251953125
153, 0, 0, 962.8640747070312
154, 0, 0, 961.1075439453125
155, 0, 0, 949.3969116210938
156, 0, 0, 960.6101684570312
157, 0, 0, 953.3828125
158, 0, 0, 942.2998046875
159, 0, 0, 939.998046875
160, 0, 0, 941.0043334960938
161, 0, 0, 928.5647583007812
162, 0, 0, 928.650390625
163, 0, 0, 924.125
164, 0, 0, 924.5966796875
165, 0, 0, 918.6588745117188
166, 0, 0, 916.3814697265625
167, 0, 0, 916.4261474609375
168, 0, 0, 905.5462646484375
169, 0, 0, 917.6306762695312
170, 0, 0, 902.9320068359375
171, 0, 0, 902.4525756835938
172, 0, 0, 899.7667846679688
173, 0, 0, 890.9114990234375
174, 0, 0, 883.8494262695312
175, 0, 0, 894.5616455078125
176, 0, 0, 884.2977294921875
177, 0, 0, 878.78125
178, 0, 0, 878.0062866210938
179, 0, 0, 882.7756958007812
