# TOPAS Version: 3.3.p1
# Parameter File: Test.txt
# Results for scorer MLIC_Scorer
# Scored in component: MLIC
# X in 180 bins of 0.177778 cm
# Y in 1 bin  of 10 cm
# Z in 1 bin  of 10 cm
# EnergyDeposit ( MeV ) : Sum   
0, 0, 0, 0
1, 0, 0, 0
2, 0, 0, 0
3, 0, 0, 0
4, 0, 0, 0
5, 0, 0, 0
6, 0, 0, 0
7, 0, 0, 0
8, 0, 0, 0
9, 0, 0, 0
10, 0, 0, 0
11, 0, 0, 0
12, 0, 0, 0
13, 0, 0, 0
14, 0, 0, 0
15, 0, 0, 0
16, 0, 0, 0
17, 0, 0, 0
18, 0, 0, 0
19, 0, 0, 0
20, 0, 0, 0
21, 0, 0, 0
22, 0, 0, 0
23, 0, 0, 0
24, 0, 0, 0
25, 0, 0, 0
26, 0, 0, 0
27, 0, 0, 0
28, 0, 0, 0
29, 0, 0, 0
30, 0, 0, 0
31, 0, 0, 0
32, 0, 0, 0
33, 0, 0, 0
34, 0, 0, 0
35, 0, 0, 0
36, 0, 0, 0
37, 0, 0, 0
38, 0, 0, 0
39, 0, 0, 0
40, 0, 0, 0
41, 0, 0, 0
42, 0, 0, 0
43, 0, 0, 0
44, 0, 0, 0
45, 0, 0, 0
46, 0, 0, 0
47, 0, 0, 0
48, 0, 0, 0
49, 0, 0, 0
50, 0, 0, 0
51, 0, 0, 0
52, 0, 0, 0
53, 0, 0, 0
54, 0, 0, 0
55, 0, 0, 0
56, 0, 0, 0
57, 0, 0, 0
58, 0, 0, 0
59, 0, 0, 0
60, 0, 0, 0
61, 0, 0, 0
62, 0, 0, 0
63, 0, 0, 0
64, 0, 0, 0
65, 0, 0, 0
66, 0, 0, 0
67, 0, 0, 0.004251912236213684
68, 0, 0, 0
69, 0, 0, 0
70, 0, 0, 0
71, 0, 0, 0
72, 0, 0, 0
73, 0, 0, 0
74, 0, 0, 0
75, 0, 0, 0
76, 0, 0, 0
77, 0, 0, 0
78, 0, 0, 0
79, 0, 0, 0
80, 0, 0, 0
81, 0, 0, 0
82, 0, 0, 0
83, 0, 0, 0
84, 0, 0, 0
85, 0, 0, 0
86, 0, 0, 0
87, 0, 0, 0
88, 0, 0, 0
89, 0, 0, 0
90, 0, 0, 0.003487627720460296
91, 0, 0, 0
92, 0, 0, 0
93, 0, 0, 0
94, 0, 0, 0
95, 0, 0, 0.0003705584676936269
96, 0, 0, 0
97, 0, 0, 0
98, 0, 0, 0
99, 0, 0, 0
100, 0, 0, 0
101, 0, 0, 0
102, 0, 0, 0
103, 0, 0, 0
104, 0, 0, 0
105, 0, 0, 0
106, 0, 0, 0
107, 0, 0, 0.0003421258879825473
108, 0, 0, 0
109, 0, 0, 0
110, 0, 0, 0
111, 0, 0, 0
112, 0, 0, 0
113, 0, 0, 29.88426208496094
114, 0, 0, 112.7493057250977
115, 0, 0, 541.982177734375
116, 0, 0, 1320.705688476562
117, 0, 0, 2553.5078125
118, 0, 0, 4006.771728515625
119, 0, 0, 4895.52978515625
120, 0, 0, 5115.119140625
121, 0, 0, 4661.3896484375
122, 0, 0, 4088.1767578125
123, 0, 0, 3555.754638671875
124, 0, 0, 3204.567626953125
125, 0, 0, 2955.90673828125
126, 0, 0, 2752.399169921875
127, 0, 0, 2609.027099609375
128, 0, 0, 2484.436767578125
129, 0, 0, 2371.293701171875
130, 0, 0, 2284.82861328125
131, 0, 0, 2200.6396484375
132, 0, 0, 2118.8818359375
133, 0, 0, 2063.9111328125
134, 0, 0, 1999.739379882812
135, 0, 0, 1941.949096679688
136, 0, 0, 1889.7509765625
137, 0, 0, 1844.659545898438
138, 0, 0, 1809.428955078125
139, 0, 0, 1771.58544921875
140, 0, 0, 1736.184936523438
141, 0, 0, 1701.966674804688
142, 0, 0, 1675.536254882812
143, 0, 0, 1633.308349609375
144, 0, 0, 1611.869873046875
145, 0, 0, 1583.634399414062
146, 0, 0, 1565.082885742188
147, 0, 0, 1539.73779296875
148, 0, 0, 1512.013549804688
149, 0, 0, 1491.384643554688
150, 0, 0, 1471.171630859375
151, 0, 0, 1457.115234375
152, 0, 0, 1434.393676757812
153, 0, 0, 1412.853881835938
154, 0, 0, 1407.406127929688
155, 0, 0, 1382.240234375
156, 0, 0, 1375.12255859375
157, 0, 0, 1345.249145507812
158, 0, 0, 1340.053466796875
159, 0, 0, 1326.384643554688
160, 0, 0, 1311.564453125
161, 0, 0, 1300.410034179688
162, 0, 0, 1286.555419921875
163, 0, 0, 1270.5380859375
164, 0, 0, 1265.610961914062
165, 0, 0, 1245.509155273438
166, 0, 0, 1235.528930664062
167, 0, 0, 1226.919799804688
168, 0, 0, 1220.821044921875
169, 0, 0, 1215.755737304688
170, 0, 0, 1204.208251953125
171, 0, 0, 1192.400024414062
172, 0, 0, 1186.995727539062
173, 0, 0, 1172.585083007812
174, 0, 0, 1161.087768554688
175, 0, 0, 1156.908813476562
176, 0, 0, 1146.760864257812
177, 0, 0, 1134.197631835938
178, 0, 0, 1133.27880859375
179, 0, 0, 1123.58154296875
