# TOPAS Version: 3.3.p1
# Parameter File: Test.txt
# Results for scorer MLIC_Scorer
# Scored in component: MLIC
# X in 180 bins of 0.177778 cm
# Y in 1 bin  of 10 cm
# Z in 1 bin  of 10 cm
# EnergyDeposit ( MeV ) : Sum   
0, 0, 0, 0
1, 0, 0, 0
2, 0, 0, 0
3, 0, 0, 0
4, 0, 0, 0
5, 0, 0, 0
6, 0, 0, 0
7, 0, 0, 0
8, 0, 0, 0
9, 0, 0, 0
10, 0, 0, 0
11, 0, 0, 0
12, 0, 0, 0
13, 0, 0, 0
14, 0, 0, 0
15, 0, 0, 0
16, 0, 0, 0
17, 0, 0, 0
18, 0, 0, 0
19, 0, 0, 0
20, 0, 0, 0
21, 0, 0, 0
22, 0, 0, 0
23, 0, 0, 0
24, 0, 0, 0
25, 0, 0, 0
26, 0, 0, 0
27, 0, 0, 0
28, 0, 0, 0
29, 0, 0, 0
30, 0, 0, 0
31, 0, 0, 0
32, 0, 0, 0
33, 0, 0, 0
34, 0, 0, 0
35, 0, 0, 0
36, 0, 0, 0
37, 0, 0, 0
38, 0, 0, 0
39, 0, 0, 0
40, 0, 0, 0
41, 0, 0, 0
42, 0, 0, 0
43, 0, 0, 0
44, 0, 0, 0
45, 0, 0, 0
46, 0, 0, 0
47, 0, 0, 0
48, 0, 0, 0
49, 0, 0, 0
50, 0, 0, 0
51, 0, 0, 0
52, 0, 0, 0
53, 0, 0, 0
54, 0, 0, 0
55, 0, 0, 0
56, 0, 0, 0
57, 0, 0, 0
58, 0, 0, 0
59, 0, 0, 0
60, 0, 0, 0
61, 0, 0, 0
62, 0, 0, 0
63, 0, 0, 0
64, 0, 0, 0
65, 0, 0, 0
66, 0, 0, 0
67, 0, 0, 0
68, 0, 0, 0
69, 0, 0, 0
70, 0, 0, 0
71, 0, 0, 0
72, 0, 0, 0
73, 0, 0, 0
74, 0, 0, 0
75, 0, 0, 0
76, 0, 0, 0
77, 0, 0, 0
78, 0, 0, 0
79, 0, 0, 0
80, 0, 0, 0
81, 0, 0, 0
82, 0, 0, 0
83, 0, 0, 0
84, 0, 0, 0
85, 0, 0, 0
86, 0, 0, 0
87, 0, 0, 0
88, 0, 0, 0
89, 0, 0, 0
90, 0, 0, 0
91, 0, 0, 0
92, 0, 0, 0
93, 0, 0, 0
94, 0, 0, 0
95, 0, 0, 0
96, 0, 0, 0
97, 0, 0, 0
98, 0, 0, 0
99, 0, 0, 7.054201602935791
100, 0, 0, 10.51088809967041
101, 0, 0, 30.02396774291992
102, 0, 0, 73.25321960449219
103, 0, 0, 169.2743682861328
104, 0, 0, 284.3208923339844
105, 0, 0, 363.9075012207031
106, 0, 0, 356.1262817382812
107, 0, 0, 345.5712280273438
108, 0, 0, 284.8275756835938
109, 0, 0, 245.1410827636719
110, 0, 0, 220.8203735351562
111, 0, 0, 206.6641998291016
112, 0, 0, 191.3182830810547
113, 0, 0, 183.7060699462891
114, 0, 0, 173.6090393066406
115, 0, 0, 166.3954010009766
116, 0, 0, 160.7904510498047
117, 0, 0, 154.1139526367188
118, 0, 0, 147.6983795166016
119, 0, 0, 143.8213806152344
120, 0, 0, 139.0618286132812
121, 0, 0, 133.9752502441406
122, 0, 0, 130.8488311767578
123, 0, 0, 130.0300903320312
124, 0, 0, 127.7784881591797
125, 0, 0, 123.4727630615234
126, 0, 0, 121.7752685546875
127, 0, 0, 118.887565612793
128, 0, 0, 115.8646926879883
129, 0, 0, 115.7526397705078
130, 0, 0, 112.2782363891602
131, 0, 0, 111.1446685791016
132, 0, 0, 109.516960144043
133, 0, 0, 109.7214050292969
134, 0, 0, 105.4392623901367
135, 0, 0, 103.3830718994141
136, 0, 0, 104.6427917480469
137, 0, 0, 100.0777206420898
138, 0, 0, 100.5911712646484
139, 0, 0, 99.07337188720703
140, 0, 0, 99.52411651611328
141, 0, 0, 96.35866546630859
142, 0, 0, 96.8653564453125
143, 0, 0, 94.50079345703125
144, 0, 0, 92.89476013183594
145, 0, 0, 91.31989288330078
146, 0, 0, 93.37772369384766
147, 0, 0, 91.25942993164062
148, 0, 0, 90.49232482910156
149, 0, 0, 89.41600036621094
150, 0, 0, 87.39180755615234
151, 0, 0, 86.64403533935547
152, 0, 0, 86.05431365966797
153, 0, 0, 85.73700714111328
154, 0, 0, 85.79219055175781
155, 0, 0, 84.98653411865234
156, 0, 0, 82.54438018798828
157, 0, 0, 81.43927001953125
158, 0, 0, 81.06509399414062
159, 0, 0, 80.49419403076172
160, 0, 0, 80.90583038330078
161, 0, 0, 80.59239959716797
162, 0, 0, 79.65618896484375
163, 0, 0, 80.65795135498047
164, 0, 0, 79.57855987548828
165, 0, 0, 79.81682586669922
166, 0, 0, 77.34949493408203
167, 0, 0, 80.30620574951172
168, 0, 0, 76.96311950683594
169, 0, 0, 75.40870666503906
170, 0, 0, 74.88265991210938
171, 0, 0, 74.88402557373047
172, 0, 0, 76.49482727050781
173, 0, 0, 75.15190887451172
174, 0, 0, 71.38485717773438
175, 0, 0, 74.67462158203125
176, 0, 0, 71.56230926513672
177, 0, 0, 71.0560302734375
178, 0, 0, 70.27477264404297
179, 0, 0, 73.16867828369141
