# TOPAS Version: 3.3.p1
# Parameter File: Test.txt
# Results for scorer MLIC_Scorer
# Scored in component: MLIC
# X in 180 bins of 0.177778 cm
# Y in 1 bin  of 10 cm
# Z in 1 bin  of 10 cm
# EnergyDeposit ( MeV ) : Sum   
0, 0, 0, 0
1, 0, 0, 0
2, 0, 0, 0
3, 0, 0, 0
4, 0, 0, 0
5, 0, 0, 0
6, 0, 0, 0
7, 0, 0, 0
8, 0, 0, 0
9, 0, 0, 0
10, 0, 0, 0
11, 0, 0, 0
12, 0, 0, 0
13, 0, 0, 0
14, 0, 0, 0
15, 0, 0, 0
16, 0, 0, 0.02255842462182045
17, 0, 0, 0
18, 0, 0, 0.006090710405260324
19, 0, 0, 0
20, 0, 0, 36.83406066894531
21, 0, 0, 92.20682525634766
22, 0, 0, 290.7684936523438
23, 0, 0, 907.0261840820312
24, 0, 0, 1765.835571289062
25, 0, 0, 3213.5068359375
26, 0, 0, 4316.8984375
27, 0, 0, 5127.70703125
28, 0, 0, 4937.42578125
29, 0, 0, 4334.01513671875
30, 0, 0, 3824.76904296875
31, 0, 0, 3432.11572265625
32, 0, 0, 3104.05224609375
33, 0, 0, 2868.7900390625
34, 0, 0, 2697.3837890625
35, 0, 0, 2551.8173828125
36, 0, 0, 2428.4658203125
37, 0, 0, 2330.95068359375
38, 0, 0, 2243.2529296875
39, 0, 0, 2166.071533203125
40, 0, 0, 2091.53515625
41, 0, 0, 2033.326171875
42, 0, 0, 1974.2216796875
43, 0, 0, 1923.528686523438
44, 0, 0, 1878.518432617188
45, 0, 0, 1836.728881835938
46, 0, 0, 1789.31103515625
47, 0, 0, 1746.21630859375
48, 0, 0, 1727.036743164062
49, 0, 0, 1692.102905273438
50, 0, 0, 1653.170654296875
51, 0, 0, 1628.586547851562
52, 0, 0, 1597.000122070312
53, 0, 0, 1570.029052734375
54, 0, 0, 1548.996826171875
55, 0, 0, 1521.823974609375
56, 0, 0, 1504.777587890625
57, 0, 0, 1485.586547851562
58, 0, 0, 1469.061279296875
59, 0, 0, 1444.587524414062
60, 0, 0, 1429.142333984375
61, 0, 0, 1410.060913085938
62, 0, 0, 1388.542602539062
63, 0, 0, 1370.114379882812
64, 0, 0, 1360.547485351562
65, 0, 0, 1350.597900390625
66, 0, 0, 1337.536376953125
67, 0, 0, 1319.211303710938
68, 0, 0, 1309.458618164062
69, 0, 0, 1299.439819335938
70, 0, 0, 1285.446533203125
71, 0, 0, 1272.527465820312
72, 0, 0, 1258.661010742188
73, 0, 0, 1248.963256835938
74, 0, 0, 1234.527709960938
75, 0, 0, 1227.805541992188
76, 0, 0, 1208.052856445312
77, 0, 0, 1206.033447265625
78, 0, 0, 1195.604736328125
79, 0, 0, 1185.941772460938
80, 0, 0, 1167.940063476562
81, 0, 0, 1168.179565429688
82, 0, 0, 1161.948364257812
83, 0, 0, 1149.94140625
84, 0, 0, 1142.085083007812
85, 0, 0, 1137.796020507812
86, 0, 0, 1127.207641601562
87, 0, 0, 1120.14794921875
88, 0, 0, 1105.593994140625
89, 0, 0, 1105.23095703125
90, 0, 0, 1098.168334960938
91, 0, 0, 1089.5498046875
92, 0, 0, 1082.671142578125
93, 0, 0, 1084.971313476562
94, 0, 0, 1068.806274414062
95, 0, 0, 1066.187133789062
96, 0, 0, 1062.408813476562
97, 0, 0, 1054.066650390625
98, 0, 0, 1049.474243164062
99, 0, 0, 1035.874145507812
100, 0, 0, 1042.817016601562
101, 0, 0, 1029.906616210938
102, 0, 0, 1031.311401367188
103, 0, 0, 1020.238586425781
104, 0, 0, 1013.839660644531
105, 0, 0, 1010.557250976562
106, 0, 0, 1001.224365234375
107, 0, 0, 996.82958984375
108, 0, 0, 996.1381225585938
109, 0, 0, 994.7864990234375
110, 0, 0, 984.4315795898438
111, 0, 0, 979.7938232421875
112, 0, 0, 977.5984497070312
113, 0, 0, 970.24755859375
114, 0, 0, 973.1057739257812
115, 0, 0, 968.5396118164062
116, 0, 0, 963.55224609375
117, 0, 0, 949.6480712890625
118, 0, 0, 954.1482543945312
119, 0, 0, 946.48486328125
120, 0, 0, 944.8820190429688
121, 0, 0, 937.4949340820312
122, 0, 0, 927.5429077148438
123, 0, 0, 928.42919921875
124, 0, 0, 923.79296875
125, 0, 0, 923.1820678710938
126, 0, 0, 920.884521484375
127, 0, 0, 922.7814331054688
128, 0, 0, 913.9210205078125
129, 0, 0, 908.6874389648438
130, 0, 0, 902.23486328125
131, 0, 0, 903.7679443359375
132, 0, 0, 893.7425537109375
133, 0, 0, 899.1288452148438
134, 0, 0, 889.4852905273438
135, 0, 0, 886.341552734375
136, 0, 0, 885.665283203125
137, 0, 0, 882.3504638671875
138, 0, 0, 879.4173583984375
139, 0, 0, 872.54443359375
140, 0, 0, 873.575439453125
141, 0, 0, 877.0108032226562
142, 0, 0, 866.6798706054688
143, 0, 0, 864.5563354492188
144, 0, 0, 856.3585205078125
145, 0, 0, 865.1209716796875
146, 0, 0, 853.9490356445312
147, 0, 0, 857.5963134765625
148, 0, 0, 856.8402099609375
149, 0, 0, 858.247314453125
150, 0, 0, 849.2761840820312
151, 0, 0, 840.7762451171875
152, 0, 0, 837.5326538085938
153, 0, 0, 838.0353393554688
154, 0, 0, 835.9507446289062
155, 0, 0, 831.2510986328125
156, 0, 0, 833.9667358398438
157, 0, 0, 829.1970825195312
158, 0, 0, 824.8854370117188
159, 0, 0, 816.2822265625
160, 0, 0, 821.2027587890625
161, 0, 0, 818.740478515625
162, 0, 0, 819.0580444335938
163, 0, 0, 821.412841796875
164, 0, 0, 813.2725219726562
165, 0, 0, 808.5596313476562
166, 0, 0, 812.3800048828125
167, 0, 0, 806.3632202148438
168, 0, 0, 800.8440551757812
169, 0, 0, 809.2044067382812
170, 0, 0, 796.3330688476562
171, 0, 0, 795.12548828125
172, 0, 0, 798.3983764648438
173, 0, 0, 788.8423461914062
174, 0, 0, 781.339599609375
175, 0, 0, 787.3750610351562
176, 0, 0, 787.536376953125
177, 0, 0, 785.4763793945312
178, 0, 0, 782.144287109375
179, 0, 0, 782.1724853515625
