# TOPAS Version: 3.3.p1
# Parameter File: Test.txt
# Results for scorer MLIC_Scorer
# Scored in component: MLIC
# X in 180 bins of 0.177778 cm
# Y in 1 bin  of 10 cm
# Z in 1 bin  of 10 cm
# EnergyDeposit ( MeV ) : Sum   
0, 0, 0, 0
1, 0, 0, 0
2, 0, 0, 0
3, 0, 0, 0
4, 0, 0, 0
5, 0, 0, 0
6, 0, 0, 0
7, 0, 0, 0
8, 0, 0, 0
9, 0, 0, 0
10, 0, 0, 0
11, 0, 0, 0
12, 0, 0, 0
13, 0, 0, 0
14, 0, 0, 0
15, 0, 0, 0
16, 0, 0, 0
17, 0, 0, 0
18, 0, 0, 0
19, 0, 0, 0
20, 0, 0, 0
21, 0, 0, 0
22, 0, 0, 0
23, 0, 0, 0
24, 0, 0, 0
25, 0, 0, 0
26, 0, 0, 0
27, 0, 0, 0
28, 0, 0, 0
29, 0, 0, 0
30, 0, 0, 0
31, 0, 0, 0
32, 0, 0, 0
33, 0, 0, 0
34, 0, 0, 0
35, 0, 0, 0
36, 0, 0, 0
37, 0, 0, 0
38, 0, 0, 0
39, 0, 0, 0
40, 0, 0, 0
41, 0, 0, 0
42, 0, 0, 0
43, 0, 0, 0.005073060747236013
44, 0, 0, 0
45, 0, 0, 0
46, 0, 0, 0
47, 0, 0, 0
48, 0, 0, 0
49, 0, 0, 0
50, 0, 0, 0
51, 0, 0, 0
52, 0, 0, 0
53, 0, 0, 0
54, 0, 0, 0
55, 0, 0, 0
56, 0, 0, 0
57, 0, 0, 0
58, 0, 0, 0
59, 0, 0, 0
60, 0, 0, 0
61, 0, 0, 0
62, 0, 0, 0
63, 0, 0, 0
64, 0, 0, 0
65, 0, 0, 0
66, 0, 0, 0
67, 0, 0, 0
68, 0, 0, 0.0009670488652773201
69, 0, 0, 0
70, 0, 0, 0
71, 0, 0, 0
72, 0, 0, 0
73, 0, 0, 0
74, 0, 0, 0
75, 0, 0, 0
76, 0, 0, 0
77, 0, 0, 0
78, 0, 0, 0
79, 0, 0, 0
80, 0, 0, 0
81, 0, 0, 0
82, 0, 0, 0
83, 0, 0, 0
84, 0, 0, 0
85, 0, 0, 0
86, 0, 0, 0
87, 0, 0, 0
88, 0, 0, 0
89, 0, 0, 0
90, 0, 0, 0
91, 0, 0, 0
92, 0, 0, 0
93, 0, 0, 0
94, 0, 0, 0
95, 0, 0, 0.02072710171341896
96, 0, 0, 0
97, 0, 0, 0
98, 0, 0, 0
99, 0, 0, 4.242636203765869
100, 0, 0, 54.39562606811523
101, 0, 0, 279.6993408203125
102, 0, 0, 1194.842041015625
103, 0, 0, 2314.10546875
104, 0, 0, 3762.77734375
105, 0, 0, 4714.41748046875
106, 0, 0, 5079.00390625
107, 0, 0, 4768.8251953125
108, 0, 0, 4239.88671875
109, 0, 0, 3670.847900390625
110, 0, 0, 3293.01416015625
111, 0, 0, 3001.21435546875
112, 0, 0, 2801.53271484375
113, 0, 0, 2641.442138671875
114, 0, 0, 2513.9990234375
115, 0, 0, 2392.111328125
116, 0, 0, 2298.270751953125
117, 0, 0, 2213.20654296875
118, 0, 0, 2130.0087890625
119, 0, 0, 2076.666259765625
120, 0, 0, 2010.341918945312
121, 0, 0, 1958.815795898438
122, 0, 0, 1907.20947265625
123, 0, 0, 1857.765747070312
124, 0, 0, 1813.869018554688
125, 0, 0, 1775.252563476562
126, 0, 0, 1744.333374023438
127, 0, 0, 1707.286865234375
128, 0, 0, 1686.318603515625
129, 0, 0, 1645.904174804688
130, 0, 0, 1617.032348632812
131, 0, 0, 1587.983032226562
132, 0, 0, 1565.719604492188
133, 0, 0, 1547.1845703125
134, 0, 0, 1517.686645507812
135, 0, 0, 1504.158447265625
136, 0, 0, 1478.765991210938
137, 0, 0, 1448.786010742188
138, 0, 0, 1434.671630859375
139, 0, 0, 1417.405883789062
140, 0, 0, 1411.925415039062
141, 0, 0, 1391.33447265625
142, 0, 0, 1373.18017578125
143, 0, 0, 1356.460571289062
144, 0, 0, 1337.18505859375
145, 0, 0, 1322.5712890625
146, 0, 0, 1314.773803710938
147, 0, 0, 1302.116333007812
148, 0, 0, 1288.775024414062
149, 0, 0, 1279.057983398438
150, 0, 0, 1268.604858398438
151, 0, 0, 1252.664916992188
152, 0, 0, 1244.1689453125
153, 0, 0, 1234.085205078125
154, 0, 0, 1226.282348632812
155, 0, 0, 1209.9130859375
156, 0, 0, 1199.727905273438
157, 0, 0, 1193.135620117188
158, 0, 0, 1185.546264648438
159, 0, 0, 1171.486450195312
160, 0, 0, 1163.652587890625
161, 0, 0, 1156.263549804688
162, 0, 0, 1149.828247070312
163, 0, 0, 1138.99462890625
164, 0, 0, 1129.592041015625
165, 0, 0, 1126.083984375
166, 0, 0, 1120.951904296875
167, 0, 0, 1106.238891601562
168, 0, 0, 1094.3955078125
169, 0, 0, 1094.890380859375
170, 0, 0, 1089.045776367188
171, 0, 0, 1080.4873046875
172, 0, 0, 1075.319091796875
173, 0, 0, 1068.580444335938
174, 0, 0, 1060.189819335938
175, 0, 0, 1053.742309570312
176, 0, 0, 1058.817626953125
177, 0, 0, 1040.696533203125
178, 0, 0, 1038.976196289062
179, 0, 0, 1028.699462890625
