# TOPAS Version: 3.3.p1
# Parameter File: Test.txt
# Results for scorer MLIC_Scorer
# Scored in component: MLIC
# X in 180 bins of 0.177778 cm
# Y in 1 bin  of 10 cm
# Z in 1 bin  of 10 cm
# EnergyDeposit ( MeV ) : Sum   
0, 0, 0, 0
1, 0, 0, 0
2, 0, 0, 0
3, 0, 0, 0
4, 0, 0, 0
5, 0, 0, 0
6, 0, 0, 0
7, 0, 0, 0
8, 0, 0, 0
9, 0, 0, 0
10, 0, 0, 0
11, 0, 0, 0
12, 0, 0, 0
13, 0, 0, 0
14, 0, 0, 0
15, 0, 0, 0
16, 0, 0, 0
17, 0, 0, 0
18, 0, 0, 0
19, 0, 0, 0
20, 0, 0, 0
21, 0, 0, 0
22, 0, 0, 0
23, 0, 0, 0
24, 0, 0, 0
25, 0, 0, 0
26, 0, 0, 0
27, 0, 0, 0
28, 0, 0, 0
29, 0, 0, 0
30, 0, 0, 0
31, 0, 0, 0
32, 0, 0, 0
33, 0, 0, 0
34, 0, 0, 0
35, 0, 0, 0
36, 0, 0, 0
37, 0, 0, 0
38, 0, 0, 0
39, 0, 0, 0
40, 0, 0, 0
41, 0, 0, 0
42, 0, 0, 0
43, 0, 0, 0
44, 0, 0, 0
45, 0, 0, 0
46, 0, 0, 0
47, 0, 0, 0
48, 0, 0, 0
49, 0, 0, 0
50, 0, 0, 0
51, 0, 0, 0
52, 0, 0, 0
53, 0, 0, 0
54, 0, 0, 0
55, 0, 0, 0
56, 0, 0, 0
57, 0, 0, 0
58, 0, 0, 0.04044737294316292
59, 0, 0, 0
60, 0, 0, 0
61, 0, 0, 0
62, 0, 0, 0
63, 0, 0, 0
64, 0, 0, 0
65, 0, 0, 0
66, 0, 0, 0.01858079992234707
67, 0, 0, 0.005040719639509916
68, 0, 0, 9.512514114379883
69, 0, 0, 92.92230224609375
70, 0, 0, 457.4916381835938
71, 0, 0, 1396.72705078125
72, 0, 0, 2563.78515625
73, 0, 0, 4086.163330078125
74, 0, 0, 4971.57470703125
75, 0, 0, 5188.75244140625
76, 0, 0, 4662.96142578125
77, 0, 0, 4071.561279296875
78, 0, 0, 3527.219482421875
79, 0, 0, 3189.455322265625
80, 0, 0, 2943.64208984375
81, 0, 0, 2748.997314453125
82, 0, 0, 2596.8095703125
83, 0, 0, 2468.1650390625
84, 0, 0, 2371.373779296875
85, 0, 0, 2275.25732421875
86, 0, 0, 2195.288330078125
87, 0, 0, 2121.663330078125
88, 0, 0, 2061.73193359375
89, 0, 0, 1998.073120117188
90, 0, 0, 1940.007080078125
91, 0, 0, 1890.799682617188
92, 0, 0, 1846.74609375
93, 0, 0, 1808.22216796875
94, 0, 0, 1773.579833984375
95, 0, 0, 1732.679321289062
96, 0, 0, 1695.929931640625
97, 0, 0, 1664.27294921875
98, 0, 0, 1639.736572265625
99, 0, 0, 1608.149780273438
100, 0, 0, 1589.753662109375
101, 0, 0, 1566.002075195312
102, 0, 0, 1535.969116210938
103, 0, 0, 1514.992431640625
104, 0, 0, 1491.681762695312
105, 0, 0, 1472.908935546875
106, 0, 0, 1450.000854492188
107, 0, 0, 1439.841186523438
108, 0, 0, 1425.687744140625
109, 0, 0, 1399.542358398438
110, 0, 0, 1382.546142578125
111, 0, 0, 1369.711669921875
112, 0, 0, 1352.662963867188
113, 0, 0, 1344.05419921875
114, 0, 0, 1322.966064453125
115, 0, 0, 1314.663818359375
116, 0, 0, 1294.377807617188
117, 0, 0, 1284.222534179688
118, 0, 0, 1281.296020507812
119, 0, 0, 1258.578369140625
120, 0, 0, 1247.649780273438
121, 0, 0, 1230.66796875
122, 0, 0, 1226.585083007812
123, 0, 0, 1213.111938476562
124, 0, 0, 1202.163818359375
125, 0, 0, 1207.240234375
126, 0, 0, 1180.53955078125
127, 0, 0, 1184.66552734375
128, 0, 0, 1173.840698242188
129, 0, 0, 1162.892700195312
130, 0, 0, 1152.0244140625
131, 0, 0, 1135.949829101562
132, 0, 0, 1143.768798828125
133, 0, 0, 1134.108520507812
134, 0, 0, 1125.4921875
135, 0, 0, 1119.308227539062
136, 0, 0, 1105.900024414062
137, 0, 0, 1093.329956054688
138, 0, 0, 1087.532958984375
139, 0, 0, 1082.740966796875
140, 0, 0, 1081.501098632812
141, 0, 0, 1066.727661132812
142, 0, 0, 1072.142578125
143, 0, 0, 1056.420043945312
144, 0, 0, 1052.877685546875
145, 0, 0, 1048.414306640625
146, 0, 0, 1043.458618164062
147, 0, 0, 1039.653442382812
148, 0, 0, 1030.9013671875
149, 0, 0, 1025.057373046875
150, 0, 0, 1012.224853515625
151, 0, 0, 1011.617004394531
152, 0, 0, 1012.411865234375
153, 0, 0, 1006.249816894531
154, 0, 0, 998.6046142578125
155, 0, 0, 997.5614624023438
156, 0, 0, 994.1484985351562
157, 0, 0, 984.4990844726562
158, 0, 0, 982.6712646484375
159, 0, 0, 976.3578491210938
160, 0, 0, 969.67236328125
161, 0, 0, 962.3465576171875
162, 0, 0, 973.3173828125
163, 0, 0, 964.049560546875
164, 0, 0, 948.4725341796875
165, 0, 0, 947.9940185546875
166, 0, 0, 943.3159790039062
167, 0, 0, 936.5722045898438
168, 0, 0, 937.3038330078125
169, 0, 0, 937.515869140625
170, 0, 0, 936.8777465820312
171, 0, 0, 922.5177001953125
172, 0, 0, 928.0230102539062
173, 0, 0, 918.4830322265625
174, 0, 0, 920.7528076171875
175, 0, 0, 902.685791015625
176, 0, 0, 903.26611328125
177, 0, 0, 904.5203857421875
178, 0, 0, 901.3179321289062
179, 0, 0, 905.4306030273438
