# TOPAS Version: 3.3.p1
# Parameter File: Test.txt
# Results for scorer MLIC_Scorer
# Scored in component: MLIC
# X in 180 bins of 0.183333 cm
# Y in 1 bin  of 10 cm
# Z in 1 bin  of 10 cm
# EnergyDeposit ( MeV ) : Sum   
0, 0, 0, 0
1, 0, 0, 0
2, 0, 0, 0
3, 0, 0, 0
4, 0, 0, 0
5, 0, 0, 0
6, 0, 0, 0
7, 0, 0, 0
8, 0, 0, 0
9, 0, 0, 0
10, 0, 0, 0
11, 0, 0, 0
12, 0, 0, 0
13, 0, 0, 0
14, 0, 0, 0
15, 0, 0, 0
16, 0, 0, 0
17, 0, 0, 0
18, 0, 0, 0
19, 0, 0, 0
20, 0, 0, 0
21, 0, 0, 0
22, 0, 0, 0
23, 0, 0, 0
24, 0, 0, 0
25, 0, 0, 0
26, 0, 0, 0
27, 0, 0, 0
28, 0, 0, 0
29, 0, 0, 0
30, 0, 0, 0
31, 0, 0, 0
32, 0, 0, 0
33, 0, 0, 0
34, 0, 0, 0
35, 0, 0, 0
36, 0, 0, 0
37, 0, 0, 0
38, 0, 0, 0
39, 0, 0, 0
40, 0, 0, 0
41, 0, 0, 0
42, 0, 0, 0
43, 0, 0, 0
44, 0, 0, 0
45, 0, 0, 0
46, 0, 0, 0
47, 0, 0, 0
48, 0, 0, 0
49, 0, 0, 0
50, 0, 0, 0
51, 0, 0, 0.00854196771979332
52, 0, 0, 0
53, 0, 0, 0
54, 0, 0, 0
55, 0, 0, 0
56, 0, 0, 0
57, 0, 0, 0
58, 0, 0, 0
59, 0, 0, 0
60, 0, 0, 0
61, 0, 0, 0
62, 0, 0, 0
63, 0, 0, 0
64, 0, 0, 0
65, 0, 0, 0
66, 0, 0, 0
67, 0, 0, 0
68, 0, 0, 0
69, 0, 0, 0
70, 0, 0, 0
71, 0, 0, 0
72, 0, 0, 0
73, 0, 0, 0.007142827846109867
74, 0, 0, 0
75, 0, 0, 0
76, 0, 0, 0
77, 0, 0, 0
78, 0, 0, 0
79, 0, 0, 0
80, 0, 0, 0
81, 0, 0, 0
82, 0, 0, 0
83, 0, 0, 0.04144536703824997
84, 0, 0, 0.006802819203585386
85, 0, 0, 0
86, 0, 0, 0
87, 0, 0, 0.005973293911665678
88, 0, 0, 0
89, 0, 0, 0
90, 0, 0, 0
91, 0, 0, 0.003661934286355972
92, 0, 0, 0
93, 0, 0, 0.002585101639851928
94, 0, 0, 0
95, 0, 0, 0.0002529451448936015
96, 0, 0, 0
97, 0, 0, 0.003619558876380324
98, 0, 0, 0
99, 0, 0, 0
100, 0, 0, 19.58931922912598
101, 0, 0, 176.1133117675781
102, 0, 0, 632.90576171875
103, 0, 0, 1711.717895507812
104, 0, 0, 3129.352294921875
105, 0, 0, 4683.67333984375
106, 0, 0, 5201.44482421875
107, 0, 0, 5040.13525390625
108, 0, 0, 4381.94482421875
109, 0, 0, 3963.1982421875
110, 0, 0, 3513.359375
111, 0, 0, 3171.064208984375
112, 0, 0, 2938.885498046875
113, 0, 0, 2753.814453125
114, 0, 0, 2608.13525390625
115, 0, 0, 2485.7314453125
116, 0, 0, 2376.58837890625
117, 0, 0, 2288.765380859375
118, 0, 0, 2209.24169921875
119, 0, 0, 2138.24560546875
120, 0, 0, 2074.347412109375
121, 0, 0, 2019.861328125
122, 0, 0, 1960.71630859375
123, 0, 0, 1908.261474609375
124, 0, 0, 1873.676513671875
125, 0, 0, 1825.39111328125
126, 0, 0, 1785.498779296875
127, 0, 0, 1746.802978515625
128, 0, 0, 1721.246704101562
129, 0, 0, 1687.73095703125
130, 0, 0, 1654.648803710938
131, 0, 0, 1633.472412109375
132, 0, 0, 1601.994995117188
133, 0, 0, 1577.004760742188
134, 0, 0, 1549.361938476562
135, 0, 0, 1531.748901367188
136, 0, 0, 1513.052001953125
137, 0, 0, 1497.290405273438
138, 0, 0, 1478.572021484375
139, 0, 0, 1452.889282226562
140, 0, 0, 1429.758911132812
141, 0, 0, 1417.546020507812
142, 0, 0, 1407.7177734375
143, 0, 0, 1388.968383789062
144, 0, 0, 1379.2333984375
145, 0, 0, 1355.695678710938
146, 0, 0, 1346.748901367188
147, 0, 0, 1331.015869140625
148, 0, 0, 1316.074584960938
149, 0, 0, 1307.218872070312
150, 0, 0, 1295.079223632812
151, 0, 0, 1280.15283203125
152, 0, 0, 1267.059814453125
153, 0, 0, 1266.163940429688
154, 0, 0, 1249.390869140625
155, 0, 0, 1241.199096679688
156, 0, 0, 1224.432006835938
157, 0, 0, 1216.453735351562
158, 0, 0, 1209.122680664062
159, 0, 0, 1196.0849609375
160, 0, 0, 1187.310180664062
161, 0, 0, 1181.76318359375
162, 0, 0, 1172.243041992188
163, 0, 0, 1164.654052734375
164, 0, 0, 1156.951782226562
165, 0, 0, 1147.033325195312
166, 0, 0, 1141.6083984375
167, 0, 0, 1132.293823242188
168, 0, 0, 1121.49658203125
169, 0, 0, 1123.529174804688
170, 0, 0, 1113.52685546875
171, 0, 0, 1098.069458007812
172, 0, 0, 1101.62060546875
173, 0, 0, 1097.626220703125
174, 0, 0, 1087.0576171875
175, 0, 0, 1079.140991210938
176, 0, 0, 1076.678588867188
177, 0, 0, 1066.255859375
178, 0, 0, 1064.7470703125
179, 0, 0, 1059.232055664062
