# TOPAS Version: 3.3.p1
# Parameter File: Test.txt
# Results for scorer MLIC_Scorer
# Scored in component: MLIC
# X in 180 bins of 0.177778 cm
# Y in 1 bin  of 10 cm
# Z in 1 bin  of 10 cm
# EnergyDeposit ( MeV ) : Sum   
0, 0, 0, 0
1, 0, 0, 0
2, 0, 0, 0
3, 0, 0, 0
4, 0, 0, 0
5, 0, 0, 0
6, 0, 0, 0
7, 0, 0, 0
8, 0, 0, 0
9, 0, 0, 0
10, 0, 0, 0
11, 0, 0, 0
12, 0, 0, 0
13, 0, 0, 0
14, 0, 0, 0
15, 0, 0, 0
16, 0, 0, 0
17, 0, 0, 0
18, 0, 0, 0
19, 0, 0, 0
20, 0, 0, 0
21, 0, 0, 0
22, 0, 0, 0
23, 0, 0, 0
24, 0, 0, 0
25, 0, 0, 0
26, 0, 0, 0
27, 0, 0, 0
28, 0, 0, 0
29, 0, 0, 0
30, 0, 0, 0
31, 0, 0, 0
32, 0, 0, 0
33, 0, 0, 0
34, 0, 0, 0
35, 0, 0, 0
36, 0, 0, 0
37, 0, 0, 0
38, 0, 0, 0
39, 0, 0, 0
40, 0, 0, 0
41, 0, 0, 0
42, 0, 0, 0
43, 0, 0, 0
44, 0, 0, 0
45, 0, 0, 0
46, 0, 0, 0
47, 0, 0, 0
48, 0, 0, 0
49, 0, 0, 0
50, 0, 0, 0
51, 0, 0, 0
52, 0, 0, 0
53, 0, 0, 0
54, 0, 0, 0
55, 0, 0, 0
56, 0, 0, 0
57, 0, 0, 0
58, 0, 0, 0
59, 0, 0, 0
60, 0, 0, 0
61, 0, 0, 0
62, 0, 0, 0.04510750994086266
63, 0, 0, 0
64, 0, 0, 0
65, 0, 0, 0
66, 0, 0, 0
67, 0, 0, 0.0005686596850864589
68, 0, 0, 0
69, 0, 0, 0
70, 0, 0, 0
71, 0, 0, 0.000225605777814053
72, 0, 0, 0
73, 0, 0, 0
74, 0, 0, 0
75, 0, 0, 0
76, 0, 0, 0
77, 0, 0, 0
78, 0, 0, 0
79, 0, 0, 0
80, 0, 0, 0
81, 0, 0, 0
82, 0, 0, 0
83, 0, 0, 0
84, 0, 0, 0
85, 0, 0, 0
86, 0, 0, 0
87, 0, 0, 0
88, 0, 0, 0
89, 0, 0, 0
90, 0, 0, 0
91, 0, 0, 0
92, 0, 0, 0
93, 0, 0, 0
94, 0, 0, 0.03018699772655964
95, 0, 0, 0
96, 0, 0, 0
97, 0, 0, 0
98, 0, 0, 0
99, 0, 0, 0
100, 0, 0, 0
101, 0, 0, 0
102, 0, 0, 0
103, 0, 0, 11.69636058807373
104, 0, 0, 21.75759506225586
105, 0, 0, 32.75815200805664
106, 0, 0, 302.5252990722656
107, 0, 0, 988.5908203125
108, 0, 0, 2186.981689453125
109, 0, 0, 3772.40283203125
110, 0, 0, 4863.8857421875
111, 0, 0, 5106.54931640625
112, 0, 0, 4775.87744140625
113, 0, 0, 4217.5390625
114, 0, 0, 3666.637451171875
115, 0, 0, 3294.87939453125
116, 0, 0, 3016.219970703125
117, 0, 0, 2804.73681640625
118, 0, 0, 2637.44873046875
119, 0, 0, 2508.87939453125
120, 0, 0, 2397.399658203125
121, 0, 0, 2291.984130859375
122, 0, 0, 2221.5087890625
123, 0, 0, 2132.449951171875
124, 0, 0, 2059.9794921875
125, 0, 0, 2014.394897460938
126, 0, 0, 1949.7294921875
127, 0, 0, 1906.451538085938
128, 0, 0, 1855.232666015625
129, 0, 0, 1823.51220703125
130, 0, 0, 1782.354614257812
131, 0, 0, 1750.672729492188
132, 0, 0, 1712.162475585938
133, 0, 0, 1682.869995117188
134, 0, 0, 1651.69091796875
135, 0, 0, 1622.027465820312
136, 0, 0, 1589.918579101562
137, 0, 0, 1570.005249023438
138, 0, 0, 1551.272338867188
139, 0, 0, 1519.600708007812
140, 0, 0, 1496.161865234375
141, 0, 0, 1473.913696289062
142, 0, 0, 1460.896240234375
143, 0, 0, 1440.31787109375
144, 0, 0, 1433.62890625
145, 0, 0, 1402.855834960938
146, 0, 0, 1384.09130859375
147, 0, 0, 1378.262451171875
148, 0, 0, 1361.6259765625
149, 0, 0, 1343.648071289062
150, 0, 0, 1332.207885742188
151, 0, 0, 1315.140747070312
152, 0, 0, 1297.369750976562
153, 0, 0, 1296.480712890625
154, 0, 0, 1276.903442382812
155, 0, 0, 1268.751708984375
156, 0, 0, 1260.601440429688
157, 0, 0, 1244.497680664062
158, 0, 0, 1221.757446289062
159, 0, 0, 1226.637084960938
160, 0, 0, 1203.031494140625
161, 0, 0, 1206.975463867188
162, 0, 0, 1193.833984375
163, 0, 0, 1182.806030273438
164, 0, 0, 1173.541381835938
165, 0, 0, 1159.998657226562
166, 0, 0, 1148.6796875
167, 0, 0, 1147.136840820312
168, 0, 0, 1141.94775390625
169, 0, 0, 1132.18115234375
170, 0, 0, 1127.640625
171, 0, 0, 1113.019653320312
172, 0, 0, 1103.8642578125
173, 0, 0, 1099.977783203125
174, 0, 0, 1097.642822265625
175, 0, 0, 1088.51611328125
176, 0, 0, 1078.43701171875
177, 0, 0, 1083.277709960938
178, 0, 0, 1068.223876953125
179, 0, 0, 1059.564453125
