# TOPAS Version: 3.3.p1
# Parameter File: Test.txt
# Results for scorer MLIC_Scorer
# Scored in component: MLIC
# X in 180 bins of 0.183333 cm
# Y in 1 bin  of 10 cm
# Z in 1 bin  of 10 cm
# EnergyDeposit ( MeV ) : Sum   
0, 0, 0, 0
1, 0, 0, 0
2, 0, 0, 0
3, 0, 0, 0
4, 0, 0, 0
5, 0, 0, 0
6, 0, 0, 0
7, 0, 0, 0
8, 0, 0, 0
9, 0, 0, 0
10, 0, 0, 0
11, 0, 0, 0
12, 0, 0, 0
13, 0, 0, 0
14, 0, 0, 0
15, 0, 0, 0
16, 0, 0, 0
17, 0, 0, 0
18, 0, 0, 0
19, 0, 0, 0
20, 0, 0, 0
21, 0, 0, 0
22, 0, 0, 0
23, 0, 0, 0
24, 0, 0, 0
25, 0, 0, 0
26, 0, 0, 0
27, 0, 0, 0
28, 0, 0, 0
29, 0, 0, 0
30, 0, 0, 0
31, 0, 0, 0
32, 0, 0, 0
33, 0, 0, 0
34, 0, 0, 0
35, 0, 0, 0
36, 0, 0, 0
37, 0, 0, 0
38, 0, 0, 0
39, 0, 0, 0
40, 0, 0, 0
41, 0, 0, 0
42, 0, 0, 0
43, 0, 0, 0
44, 0, 0, 0
45, 0, 0, 0
46, 0, 0, 0
47, 0, 0, 0
48, 0, 0, 0
49, 0, 0, 0
50, 0, 0, 0
51, 0, 0, 0
52, 0, 0, 0
53, 0, 0, 0
54, 0, 0, 0
55, 0, 0, 0
56, 0, 0, 0
57, 0, 0, 0
58, 0, 0, 0
59, 0, 0, 0
60, 0, 0, 0
61, 0, 0, 0
62, 0, 0, 0
63, 0, 0, 0
64, 0, 0, 0
65, 0, 0, 0
66, 0, 0, 0
67, 0, 0, 0
68, 0, 0, 0
69, 0, 0, 0
70, 0, 0, 0
71, 0, 0, 23.5728645324707
72, 0, 0, 74.85166931152344
73, 0, 0, 266.3542175292969
74, 0, 0, 996.6526489257812
75, 0, 0, 2129.79150390625
76, 0, 0, 3585.898681640625
77, 0, 0, 5018.5361328125
78, 0, 0, 5171.2236328125
79, 0, 0, 4894.734375
80, 0, 0, 4296.2060546875
81, 0, 0, 3751.681884765625
82, 0, 0, 3362.072021484375
83, 0, 0, 3084.694580078125
84, 0, 0, 2874.115478515625
85, 0, 0, 2702.24951171875
86, 0, 0, 2560.981201171875
87, 0, 0, 2437.321533203125
88, 0, 0, 2344.0615234375
89, 0, 0, 2260.648193359375
90, 0, 0, 2191.5224609375
91, 0, 0, 2110.937255859375
92, 0, 0, 2049.452880859375
93, 0, 0, 1987.4228515625
94, 0, 0, 1951.231079101562
95, 0, 0, 1899.587890625
96, 0, 0, 1852.409545898438
97, 0, 0, 1806.814819335938
98, 0, 0, 1776.619140625
99, 0, 0, 1738.925537109375
100, 0, 0, 1716.45068359375
101, 0, 0, 1675.12646484375
102, 0, 0, 1653.498291015625
103, 0, 0, 1629.058715820312
104, 0, 0, 1586.19677734375
105, 0, 0, 1570.787109375
106, 0, 0, 1552.67529296875
107, 0, 0, 1531.786376953125
108, 0, 0, 1502.29638671875
109, 0, 0, 1486.790405273438
110, 0, 0, 1470.93310546875
111, 0, 0, 1442.261474609375
112, 0, 0, 1435.299682617188
113, 0, 0, 1416.793701171875
114, 0, 0, 1394.026733398438
115, 0, 0, 1383.4326171875
116, 0, 0, 1367.482299804688
117, 0, 0, 1353.038696289062
118, 0, 0, 1341.052734375
119, 0, 0, 1327.775268554688
120, 0, 0, 1315.662353515625
121, 0, 0, 1304.015258789062
122, 0, 0, 1289.264038085938
123, 0, 0, 1277.722412109375
124, 0, 0, 1262.247436523438
125, 0, 0, 1249.999755859375
126, 0, 0, 1240.9345703125
127, 0, 0, 1235.90673828125
128, 0, 0, 1223.844482421875
129, 0, 0, 1213.496948242188
130, 0, 0, 1208.474487304688
131, 0, 0, 1194.450073242188
132, 0, 0, 1185.863525390625
133, 0, 0, 1181.864990234375
134, 0, 0, 1160.344482421875
135, 0, 0, 1162.217529296875
136, 0, 0, 1153.041625976562
137, 0, 0, 1143.912109375
138, 0, 0, 1140.383544921875
139, 0, 0, 1132.723876953125
140, 0, 0, 1122.390991210938
141, 0, 0, 1113.22705078125
142, 0, 0, 1110.008178710938
143, 0, 0, 1101.985595703125
144, 0, 0, 1097.225341796875
145, 0, 0, 1098.614501953125
146, 0, 0, 1078.361694335938
147, 0, 0, 1073.470458984375
148, 0, 0, 1075.35205078125
149, 0, 0, 1063.526489257812
150, 0, 0, 1059.096557617188
151, 0, 0, 1050.164184570312
152, 0, 0, 1038.777587890625
153, 0, 0, 1042.144409179688
154, 0, 0, 1038.23193359375
155, 0, 0, 1023.741333007812
156, 0, 0, 1023.304077148438
157, 0, 0, 1022.7265625
158, 0, 0, 1011.766174316406
159, 0, 0, 1013.329833984375
160, 0, 0, 1009.982299804688
161, 0, 0, 1002.731811523438
162, 0, 0, 996.8455200195312
163, 0, 0, 990.4005126953125
164, 0, 0, 988.095703125
165, 0, 0, 985.56103515625
166, 0, 0, 980.50634765625
167, 0, 0, 980.9481811523438
168, 0, 0, 976.4102783203125
169, 0, 0, 963.9480590820312
170, 0, 0, 963.2360229492188
171, 0, 0, 957.1995849609375
172, 0, 0, 952.7599487304688
173, 0, 0, 955.5534057617188
174, 0, 0, 948.7987670898438
175, 0, 0, 941.9508056640625
176, 0, 0, 944.4573974609375
177, 0, 0, 938.9351196289062
178, 0, 0, 939.1802978515625
179, 0, 0, 927.0314331054688
