# TOPAS Version: 3.3.p1
# Parameter File: Test.txt
# Results for scorer MLIC_Scorer
# Scored in component: MLIC
# X in 180 bins of 0.177778 cm
# Y in 1 bin  of 10 cm
# Z in 1 bin  of 10 cm
# EnergyDeposit ( MeV ) : Sum   
0, 0, 0, 0
1, 0, 0, 0
2, 0, 0, 0
3, 0, 0, 0
4, 0, 0, 0
5, 0, 0, 0
6, 0, 0, 0
7, 0, 0, 0
8, 0, 0, 0
9, 0, 0, 0
10, 0, 0, 0.0002766746329143643
11, 0, 0, 0
12, 0, 0, 0
13, 0, 0, 0
14, 0, 0, 0
15, 0, 0, 0
16, 0, 0, 0
17, 0, 0, 0
18, 0, 0, 0
19, 0, 0, 0
20, 0, 0, 0
21, 0, 0, 0
22, 0, 0, 0.02340411208570004
23, 0, 0, 0
24, 0, 0, 0
25, 0, 0, 0
26, 0, 0, 0
27, 0, 0, 0.002574811922386289
28, 0, 0, 0.01444910187274218
29, 0, 0, 0.001537651638500392
30, 0, 0, 0
31, 0, 0, 0
32, 0, 0, 0
33, 0, 0, 0
34, 0, 0, 0
35, 0, 0, 0
36, 0, 0, 0
37, 0, 0, 0
38, 0, 0, 7.683839797973633
39, 0, 0, 15.13744163513184
40, 0, 0, 81.14757537841797
41, 0, 0, 409.6548156738281
42, 0, 0, 1048.005126953125
43, 0, 0, 2198.460693359375
44, 0, 0, 3699.452880859375
45, 0, 0, 4589.66943359375
46, 0, 0, 5016.94873046875
47, 0, 0, 4657.44189453125
48, 0, 0, 4222.98193359375
49, 0, 0, 3745.765380859375
50, 0, 0, 3337.5771484375
51, 0, 0, 3033.415283203125
52, 0, 0, 2820.811767578125
53, 0, 0, 2656.4990234375
54, 0, 0, 2520.53857421875
55, 0, 0, 2405.094482421875
56, 0, 0, 2305.328125
57, 0, 0, 2215.752197265625
58, 0, 0, 2136.176025390625
59, 0, 0, 2079.790283203125
60, 0, 0, 2017.25048828125
61, 0, 0, 1963.43359375
62, 0, 0, 1909.939819335938
63, 0, 0, 1870.033447265625
64, 0, 0, 1823.67626953125
65, 0, 0, 1781.89501953125
66, 0, 0, 1742.771240234375
67, 0, 0, 1714.613037109375
68, 0, 0, 1676.14453125
69, 0, 0, 1647.601318359375
70, 0, 0, 1624.522338867188
71, 0, 0, 1595.1298828125
72, 0, 0, 1571.598266601562
73, 0, 0, 1547.173706054688
74, 0, 0, 1515.825927734375
75, 0, 0, 1499.875854492188
76, 0, 0, 1478.09228515625
77, 0, 0, 1454.180786132812
78, 0, 0, 1439.162109375
79, 0, 0, 1421.386962890625
80, 0, 0, 1399.797973632812
81, 0, 0, 1395.287841796875
82, 0, 0, 1378.654174804688
83, 0, 0, 1355.881591796875
84, 0, 0, 1347.50537109375
85, 0, 0, 1332.278930664062
86, 0, 0, 1313.433715820312
87, 0, 0, 1296.654052734375
88, 0, 0, 1297.240112304688
89, 0, 0, 1270.816772460938
90, 0, 0, 1269.513305664062
91, 0, 0, 1260.430053710938
92, 0, 0, 1247.069702148438
93, 0, 0, 1236.706176757812
94, 0, 0, 1224.306884765625
95, 0, 0, 1217.710815429688
96, 0, 0, 1204.351196289062
97, 0, 0, 1191.03173828125
98, 0, 0, 1179.002319335938
99, 0, 0, 1176.0302734375
100, 0, 0, 1167
101, 0, 0, 1159.948120117188
102, 0, 0, 1143.385498046875
103, 0, 0, 1142.884765625
104, 0, 0, 1132.281494140625
105, 0, 0, 1123.690185546875
106, 0, 0, 1116.544921875
107, 0, 0, 1109.299438476562
108, 0, 0, 1102.286499023438
109, 0, 0, 1100.6572265625
110, 0, 0, 1090.58642578125
111, 0, 0, 1086.1533203125
112, 0, 0, 1076.9287109375
113, 0, 0, 1069.963623046875
114, 0, 0, 1062.091064453125
115, 0, 0, 1057.23193359375
116, 0, 0, 1043.027954101562
117, 0, 0, 1036.92041015625
118, 0, 0, 1036.990478515625
119, 0, 0, 1034.523315429688
120, 0, 0, 1030.71240234375
121, 0, 0, 1019.387878417969
122, 0, 0, 1015.929138183594
123, 0, 0, 1009.371215820312
124, 0, 0, 1001.3818359375
125, 0, 0, 1005.739685058594
126, 0, 0, 997.3198852539062
127, 0, 0, 998.3799438476562
128, 0, 0, 991.7423095703125
129, 0, 0, 986.8773193359375
130, 0, 0, 979.0287475585938
131, 0, 0, 974.4110107421875
132, 0, 0, 970.4112548828125
133, 0, 0, 963.776611328125
134, 0, 0, 962.6680908203125
135, 0, 0, 960.764404296875
136, 0, 0, 951.0789184570312
137, 0, 0, 941.0511474609375
138, 0, 0, 948.173583984375
139, 0, 0, 947.6190795898438
140, 0, 0, 941.564453125
141, 0, 0, 932.7864379882812
142, 0, 0, 936.628173828125
143, 0, 0, 924.8801879882812
144, 0, 0, 925.4568481445312
145, 0, 0, 912.9186401367188
146, 0, 0, 911.0416259765625
147, 0, 0, 907.0419311523438
148, 0, 0, 910.322998046875
149, 0, 0, 899.73876953125
150, 0, 0, 902.139892578125
151, 0, 0, 900.392578125
152, 0, 0, 893.3612060546875
153, 0, 0, 890.1722412109375
154, 0, 0, 895.5513305664062
155, 0, 0, 876.0496826171875
156, 0, 0, 890.6209716796875
157, 0, 0, 886.6246337890625
158, 0, 0, 881.0061645507812
159, 0, 0, 869.9575805664062
160, 0, 0, 874.0557250976562
161, 0, 0, 863.10791015625
162, 0, 0, 855.0256958007812
163, 0, 0, 864.2610473632812
164, 0, 0, 859.1095581054688
165, 0, 0, 858.6788940429688
166, 0, 0, 859.3944702148438
167, 0, 0, 852.505615234375
168, 0, 0, 844.547119140625
169, 0, 0, 847.1414184570312
170, 0, 0, 848.5369873046875
171, 0, 0, 838.3818969726562
172, 0, 0, 832.790283203125
173, 0, 0, 836.976806640625
174, 0, 0, 832.5547485351562
175, 0, 0, 832.6808471679688
176, 0, 0, 826.8283081054688
177, 0, 0, 827.300048828125
178, 0, 0, 823.5699462890625
179, 0, 0, 820.5667724609375
