# TOPAS Version: 3.3.p1
# Parameter File: Test.txt
# Results for scorer MLIC_Scorer
# Scored in component: MLIC
# X in 165 bins of 0.2 cm
# Y in 1 bin  of 10 cm
# Z in 1 bin  of 10 cm
# EnergyDeposit ( MeV ) : Sum   
0, 0, 0, 0
1, 0, 0, 0
2, 0, 0, 0
3, 0, 0, 0
4, 0, 0, 0
5, 0, 0, 0
6, 0, 0, 0
7, 0, 0, 0
8, 0, 0, 0
9, 0, 0, 0
10, 0, 0, 0
11, 0, 0, 0
12, 0, 0, 0
13, 0, 0, 0
14, 0, 0, 0
15, 0, 0, 0
16, 0, 0, 0
17, 0, 0, 0
18, 0, 0, 0
19, 0, 0, 0
20, 0, 0, 0
21, 0, 0, 0
22, 0, 0, 0
23, 0, 0, 0
24, 0, 0, 0
25, 0, 0, 0
26, 0, 0, 0
27, 0, 0, 0
28, 0, 0, 0
29, 0, 0, 0
30, 0, 0, 0.02971898205578327
31, 0, 0, 0.003576400689780712
32, 0, 0, 0
33, 0, 0, 0
34, 0, 0, 0
35, 0, 0, 0.004049339797347784
36, 0, 0, 0
37, 0, 0, 0
38, 0, 0, 0
39, 0, 0, 0
40, 0, 0, 0
41, 0, 0, 0
42, 0, 0, 0
43, 0, 0, 0
44, 0, 0, 0
45, 0, 0, 0
46, 0, 0, 0
47, 0, 0, 0
48, 0, 0, 0
49, 0, 0, 0.005789624061435461
50, 0, 0, 0
51, 0, 0, 0
52, 0, 0, 0
53, 0, 0, 0
54, 0, 0, 0
55, 0, 0, 0
56, 0, 0, 0
57, 0, 0, 0
58, 0, 0, 0
59, 0, 0, 0
60, 0, 0, 0
61, 0, 0, 0
62, 0, 0, 0
63, 0, 0, 0
64, 0, 0, 10.75675296783447
65, 0, 0, 114.0932006835938
66, 0, 0, 424.0505981445312
67, 0, 0, 1315.124877929688
68, 0, 0, 2891.659423828125
69, 0, 0, 4633.89111328125
70, 0, 0, 5428.89013671875
71, 0, 0, 5433.17529296875
72, 0, 0, 4967.00048828125
73, 0, 0, 4307.4453125
74, 0, 0, 3756.590087890625
75, 0, 0, 3383.86181640625
76, 0, 0, 3133.613525390625
77, 0, 0, 2932.750732421875
78, 0, 0, 2764.203369140625
79, 0, 0, 2641.97265625
80, 0, 0, 2516.93994140625
81, 0, 0, 2428.286376953125
82, 0, 0, 2338.006103515625
83, 0, 0, 2261.043212890625
84, 0, 0, 2193.009033203125
85, 0, 0, 2135.21826171875
86, 0, 0, 2066.888916015625
87, 0, 0, 2020.841918945312
88, 0, 0, 1968.785522460938
89, 0, 0, 1928.96142578125
90, 0, 0, 1895.458862304688
91, 0, 0, 1854.697021484375
92, 0, 0, 1815.849853515625
93, 0, 0, 1777.384521484375
94, 0, 0, 1747.466186523438
95, 0, 0, 1718.364135742188
96, 0, 0, 1683.860107421875
97, 0, 0, 1664.14013671875
98, 0, 0, 1640.9736328125
99, 0, 0, 1613.049560546875
100, 0, 0, 1604.480224609375
101, 0, 0, 1570.743774414062
102, 0, 0, 1549.628051757812
103, 0, 0, 1540.989624023438
104, 0, 0, 1512.15673828125
105, 0, 0, 1496.562255859375
106, 0, 0, 1472.906860351562
107, 0, 0, 1460.559448242188
108, 0, 0, 1452.806518554688
109, 0, 0, 1433.574340820312
110, 0, 0, 1415.216430664062
111, 0, 0, 1405.454345703125
112, 0, 0, 1392.356323242188
113, 0, 0, 1379.802001953125
114, 0, 0, 1367.90185546875
115, 0, 0, 1348.064086914062
116, 0, 0, 1336.923583984375
117, 0, 0, 1324.779663085938
118, 0, 0, 1310.525268554688
119, 0, 0, 1302.5634765625
120, 0, 0, 1289.456176757812
121, 0, 0, 1286.315551757812
122, 0, 0, 1277.536743164062
123, 0, 0, 1263.525634765625
124, 0, 0, 1252.944213867188
125, 0, 0, 1245.811645507812
126, 0, 0, 1236.627563476562
127, 0, 0, 1227.573364257812
128, 0, 0, 1214.654052734375
129, 0, 0, 1200.003784179688
130, 0, 0, 1200.965087890625
131, 0, 0, 1192.308471679688
132, 0, 0, 1189.471435546875
133, 0, 0, 1178.40283203125
134, 0, 0, 1174.983154296875
135, 0, 0, 1160.531616210938
136, 0, 0, 1152.10888671875
137, 0, 0, 1156.4208984375
138, 0, 0, 1145.7998046875
139, 0, 0, 1145.711059570312
140, 0, 0, 1132.62939453125
141, 0, 0, 1123.852661132812
142, 0, 0, 1123.149780273438
143, 0, 0, 1120.9248046875
144, 0, 0, 1112.72265625
145, 0, 0, 1100.993041992188
146, 0, 0, 1098.446899414062
147, 0, 0, 1097.670043945312
148, 0, 0, 1080.935913085938
149, 0, 0, 1081.702758789062
150, 0, 0, 1077.520263671875
151, 0, 0, 1070.003540039062
152, 0, 0, 1064.091918945312
153, 0, 0, 1055.805908203125
154, 0, 0, 1050.453979492188
155, 0, 0, 1043.677978515625
156, 0, 0, 1044.279296875
157, 0, 0, 1047.671142578125
158, 0, 0, 1041.854125976562
159, 0, 0, 1036.8310546875
160, 0, 0, 1031.832885742188
161, 0, 0, 1016.897644042969
162, 0, 0, 1019.389709472656
163, 0, 0, 1015.037048339844
164, 0, 0, 1007.778686523438
