# TOPAS Version: 3.3.p1
# Parameter File: Test.txt
# Results for scorer MLIC_Scorer
# Scored in component: MLIC
# X in 180 bins of 0.177778 cm
# Y in 1 bin  of 10 cm
# Z in 1 bin  of 10 cm
# EnergyDeposit ( MeV ) : Sum   
0, 0, 0, 0
1, 0, 0, 0
2, 0, 0, 0
3, 0, 0, 0
4, 0, 0, 0
5, 0, 0, 0
6, 0, 0, 0
7, 0, 0, 0.004878285806626081
8, 0, 0, 0
9, 0, 0, 0
10, 0, 0, 0
11, 0, 0, 0
12, 0, 0, 0
13, 0, 0, 0
14, 0, 0, 0
15, 0, 0, 0
16, 0, 0, 0
17, 0, 0, 0
18, 0, 0, 0
19, 0, 0, 0
20, 0, 0, 0
21, 0, 0, 0
22, 0, 0, 4.590997695922852
23, 0, 0, 29.34825325012207
24, 0, 0, 148.8276519775391
25, 0, 0, 449.4435729980469
26, 0, 0, 1365.20263671875
27, 0, 0, 2688.63330078125
28, 0, 0, 4234.56005859375
29, 0, 0, 4819.56494140625
30, 0, 0, 4933.0791015625
31, 0, 0, 4612.56298828125
32, 0, 0, 4044.91259765625
33, 0, 0, 3572.84765625
34, 0, 0, 3212.156982421875
35, 0, 0, 2966.20703125
36, 0, 0, 2756.23095703125
37, 0, 0, 2610.39794921875
38, 0, 0, 2476.3173828125
39, 0, 0, 2367.7314453125
40, 0, 0, 2283.544677734375
41, 0, 0, 2198.52880859375
42, 0, 0, 2127.877197265625
43, 0, 0, 2058.479736328125
44, 0, 0, 1998.277709960938
45, 0, 0, 1946.254150390625
46, 0, 0, 1889.934692382812
47, 0, 0, 1855.120483398438
48, 0, 0, 1810.86376953125
49, 0, 0, 1767.546020507812
50, 0, 0, 1734.8408203125
51, 0, 0, 1695.984741210938
52, 0, 0, 1664.781372070312
53, 0, 0, 1640.603759765625
54, 0, 0, 1615.22705078125
55, 0, 0, 1585.257690429688
56, 0, 0, 1555.517456054688
57, 0, 0, 1532.936645507812
58, 0, 0, 1512.322631835938
59, 0, 0, 1502.402221679688
60, 0, 0, 1472.360473632812
61, 0, 0, 1450.106811523438
62, 0, 0, 1437.604614257812
63, 0, 0, 1419.424926757812
64, 0, 0, 1399.474853515625
65, 0, 0, 1389.850463867188
66, 0, 0, 1368.6328125
67, 0, 0, 1355.601806640625
68, 0, 0, 1334.163330078125
69, 0, 0, 1325.015380859375
70, 0, 0, 1312.363037109375
71, 0, 0, 1306.09130859375
72, 0, 0, 1280.741088867188
73, 0, 0, 1276.814575195312
74, 0, 0, 1262.797973632812
75, 0, 0, 1242.633178710938
76, 0, 0, 1237.052001953125
77, 0, 0, 1230.013916015625
78, 0, 0, 1214.881958007812
79, 0, 0, 1208.137939453125
80, 0, 0, 1201.330322265625
81, 0, 0, 1189.692138671875
82, 0, 0, 1181.8837890625
83, 0, 0, 1167.851318359375
84, 0, 0, 1157.911743164062
85, 0, 0, 1155.133178710938
86, 0, 0, 1143.803955078125
87, 0, 0, 1131.865112304688
88, 0, 0, 1130.961791992188
89, 0, 0, 1120.790771484375
90, 0, 0, 1112.5712890625
91, 0, 0, 1101.499389648438
92, 0, 0, 1097.191040039062
93, 0, 0, 1097.6064453125
94, 0, 0, 1085.392211914062
95, 0, 0, 1083.342407226562
96, 0, 0, 1075.408081054688
97, 0, 0, 1074.66650390625
98, 0, 0, 1068.319213867188
99, 0, 0, 1062.216796875
100, 0, 0, 1042.193969726562
101, 0, 0, 1038.8564453125
102, 0, 0, 1032.968017578125
103, 0, 0, 1029.546752929688
104, 0, 0, 1021.426818847656
105, 0, 0, 1017.508850097656
106, 0, 0, 1013.461486816406
107, 0, 0, 1007.580993652344
108, 0, 0, 1005.267639160156
109, 0, 0, 995.2859497070312
110, 0, 0, 989.8225708007812
111, 0, 0, 983.2906494140625
112, 0, 0, 985.7158203125
113, 0, 0, 988.6209716796875
114, 0, 0, 982.8408203125
115, 0, 0, 980.65380859375
116, 0, 0, 973.5665893554688
117, 0, 0, 961.1421508789062
118, 0, 0, 965.1970825195312
119, 0, 0, 956.1729736328125
120, 0, 0, 954.1870727539062
121, 0, 0, 946.837646484375
122, 0, 0, 946.6346435546875
123, 0, 0, 942.6133422851562
124, 0, 0, 931.1985473632812
125, 0, 0, 938.9981079101562
126, 0, 0, 927.2576293945312
127, 0, 0, 912.1655883789062
128, 0, 0, 914.6331787109375
129, 0, 0, 923.2108764648438
130, 0, 0, 913.2001953125
131, 0, 0, 910.2989501953125
132, 0, 0, 906.3649291992188
133, 0, 0, 904.2903442382812
134, 0, 0, 900.4918212890625
135, 0, 0, 897.0316162109375
136, 0, 0, 889.99169921875
137, 0, 0, 886.9683227539062
138, 0, 0, 883.80419921875
139, 0, 0, 878.961669921875
140, 0, 0, 879.4630737304688
141, 0, 0, 876.1585083007812
142, 0, 0, 870.5455322265625
143, 0, 0, 872.7650756835938
144, 0, 0, 862.1202392578125
145, 0, 0, 864.7077026367188
146, 0, 0, 866.1966552734375
147, 0, 0, 856.0720825195312
148, 0, 0, 867.9611206054688
149, 0, 0, 857.8895874023438
150, 0, 0, 849.0091552734375
151, 0, 0, 849.8626098632812
152, 0, 0, 842.9705200195312
153, 0, 0, 843.7474365234375
154, 0, 0, 842.1581420898438
155, 0, 0, 844.5343627929688
156, 0, 0, 833.0006713867188
157, 0, 0, 839.3713989257812
158, 0, 0, 834.4142456054688
159, 0, 0, 822.6775512695312
160, 0, 0, 824.004150390625
161, 0, 0, 823.5113525390625
162, 0, 0, 819.5350341796875
163, 0, 0, 826.2744750976562
164, 0, 0, 816.1337890625
165, 0, 0, 815.8478393554688
166, 0, 0, 815.3613891601562
167, 0, 0, 812.008544921875
168, 0, 0, 809.1263427734375
169, 0, 0, 800.255859375
170, 0, 0, 804.4153442382812
171, 0, 0, 803.8380126953125
172, 0, 0, 804.4669189453125
173, 0, 0, 806.3573608398438
174, 0, 0, 799.3009033203125
175, 0, 0, 795.17333984375
176, 0, 0, 795.5699462890625
177, 0, 0, 788.3976440429688
178, 0, 0, 785.4508666992188
179, 0, 0, 790.5908813476562
