# TOPAS Version: 3.3.p1
# Parameter File: Test.txt
# Results for scorer MLIC_Scorer
# Scored in component: MLIC
# X in 180 bins of 0.183333 cm
# Y in 1 bin  of 10 cm
# Z in 1 bin  of 10 cm
# EnergyDeposit ( MeV ) : Sum   
0, 0, 0, 0
1, 0, 0, 0
2, 0, 0, 0
3, 0, 0, 0
4, 0, 0, 0
5, 0, 0, 0
6, 0, 0, 0
7, 0, 0, 0
8, 0, 0, 0
9, 0, 0, 0
10, 0, 0, 0
11, 0, 0, 0
12, 0, 0, 0
13, 0, 0, 0
14, 0, 0, 0
15, 0, 0, 0
16, 0, 0, 0
17, 0, 0, 0
18, 0, 0, 0
19, 0, 0, 0
20, 0, 0, 0
21, 0, 0, 0
22, 0, 0, 0
23, 0, 0, 0
24, 0, 0, 0
25, 0, 0, 0
26, 0, 0, 0
27, 0, 0, 0
28, 0, 0, 0
29, 0, 0, 0
30, 0, 0, 0
31, 0, 0, 0
32, 0, 0, 0
33, 0, 0, 0
34, 0, 0, 0
35, 0, 0, 0
36, 0, 0, 0
37, 0, 0, 0
38, 0, 0, 0
39, 0, 0, 0
40, 0, 0, 0
41, 0, 0, 0
42, 0, 0, 0
43, 0, 0, 0
44, 0, 0, 0
45, 0, 0, 0
46, 0, 0, 0
47, 0, 0, 0
48, 0, 0, 0
49, 0, 0, 0
50, 0, 0, 0
51, 0, 0, 0
52, 0, 0, 0
53, 0, 0, 0
54, 0, 0, 0
55, 0, 0, 0
56, 0, 0, 0
57, 0, 0, 0
58, 0, 0, 0
59, 0, 0, 0
60, 0, 0, 0
61, 0, 0, 0
62, 0, 0, 0
63, 0, 0, 0
64, 0, 0, 0
65, 0, 0, 0
66, 0, 0, 0
67, 0, 0, 0
68, 0, 0, 10.83430576324463
69, 0, 0, 110.4700317382812
70, 0, 0, 468.7990112304688
71, 0, 0, 1273.251220703125
72, 0, 0, 2460.215087890625
73, 0, 0, 4011.187255859375
74, 0, 0, 5070.65673828125
75, 0, 0, 5047.84033203125
76, 0, 0, 4785.53466796875
77, 0, 0, 4142.2724609375
78, 0, 0, 3695.093994140625
79, 0, 0, 3303.928955078125
80, 0, 0, 3026.3046875
81, 0, 0, 2826.214599609375
82, 0, 0, 2662.850341796875
83, 0, 0, 2533.483642578125
84, 0, 0, 2419.765625
85, 0, 0, 2327.429931640625
86, 0, 0, 2239.728271484375
87, 0, 0, 2160.14013671875
88, 0, 0, 2106.6162109375
89, 0, 0, 2038.921264648438
90, 0, 0, 1986.612182617188
91, 0, 0, 1938.548217773438
92, 0, 0, 1891.296020507812
93, 0, 0, 1850.133666992188
94, 0, 0, 1803.072631835938
95, 0, 0, 1764.541259765625
96, 0, 0, 1734.54638671875
97, 0, 0, 1700.784301757812
98, 0, 0, 1671.975708007812
99, 0, 0, 1645.278076171875
100, 0, 0, 1611.605224609375
101, 0, 0, 1589.649169921875
102, 0, 0, 1562.35888671875
103, 0, 0, 1547.736083984375
104, 0, 0, 1521.771118164062
105, 0, 0, 1498.344970703125
106, 0, 0, 1478.538330078125
107, 0, 0, 1455.74755859375
108, 0, 0, 1443.82763671875
109, 0, 0, 1428.614624023438
110, 0, 0, 1413.35595703125
111, 0, 0, 1392.61572265625
112, 0, 0, 1384.109985351562
113, 0, 0, 1372.913330078125
114, 0, 0, 1348.242919921875
115, 0, 0, 1334.978759765625
116, 0, 0, 1315.011474609375
117, 0, 0, 1311.19677734375
118, 0, 0, 1296.302856445312
119, 0, 0, 1288.353637695312
120, 0, 0, 1271.171142578125
121, 0, 0, 1256.21630859375
122, 0, 0, 1251.991088867188
123, 0, 0, 1241.219116210938
124, 0, 0, 1237.272094726562
125, 0, 0, 1227.7900390625
126, 0, 0, 1214.614868164062
127, 0, 0, 1206.758178710938
128, 0, 0, 1182.553100585938
129, 0, 0, 1184.938110351562
130, 0, 0, 1177.037841796875
131, 0, 0, 1165.96142578125
132, 0, 0, 1161.240600585938
133, 0, 0, 1149.191040039062
134, 0, 0, 1142.377563476562
135, 0, 0, 1139.53759765625
136, 0, 0, 1129.001831054688
137, 0, 0, 1132.000366210938
138, 0, 0, 1116.370971679688
139, 0, 0, 1105.67138671875
140, 0, 0, 1098.18798828125
141, 0, 0, 1099.637817382812
142, 0, 0, 1095.658203125
143, 0, 0, 1078.198608398438
144, 0, 0, 1080.035034179688
145, 0, 0, 1065.441528320312
146, 0, 0, 1062.233154296875
147, 0, 0, 1057.013916015625
148, 0, 0, 1050.802856445312
149, 0, 0, 1044.403198242188
150, 0, 0, 1043.49853515625
151, 0, 0, 1042.1123046875
152, 0, 0, 1029.971435546875
153, 0, 0, 1027.0693359375
154, 0, 0, 1015.522155761719
155, 0, 0, 1016.099792480469
156, 0, 0, 1013.035888671875
157, 0, 0, 1004.158996582031
158, 0, 0, 1006.749145507812
159, 0, 0, 997.6094360351562
160, 0, 0, 995.776611328125
161, 0, 0, 992.220458984375
162, 0, 0, 982.718017578125
163, 0, 0, 981.4713134765625
164, 0, 0, 971.31982421875
165, 0, 0, 972.6766357421875
166, 0, 0, 967.3558959960938
167, 0, 0, 955.2374877929688
168, 0, 0, 962.4230346679688
169, 0, 0, 952.6670532226562
170, 0, 0, 954.059814453125
171, 0, 0, 948.5118408203125
172, 0, 0, 939.6129150390625
173, 0, 0, 937.4393920898438
174, 0, 0, 938.7901000976562
175, 0, 0, 926.6045532226562
176, 0, 0, 922.7647094726562
177, 0, 0, 925.6148681640625
178, 0, 0, 918.3085327148438
179, 0, 0, 915.13330078125
