# TOPAS Version: 3.3.p1
# Parameter File: Test.txt
# Results for scorer MLIC_Scorer
# Scored in component: MLIC
# X in 180 bins of 0.177778 cm
# Y in 1 bin  of 10 cm
# Z in 1 bin  of 10 cm
# EnergyDeposit ( MeV ) : Sum   
0, 0, 0, 0
1, 0, 0, 0
2, 0, 0, 0
3, 0, 0, 0
4, 0, 0, 0
5, 0, 0, 0
6, 0, 0, 0
7, 0, 0, 0
8, 0, 0, 0
9, 0, 0, 0
10, 0, 0, 0
11, 0, 0, 0
12, 0, 0, 0
13, 0, 0, 0
14, 0, 0, 0
15, 0, 0, 0
16, 0, 0, 0
17, 0, 0, 0
18, 0, 0, 0
19, 0, 0, 0
20, 0, 0, 0
21, 0, 0, 0
22, 0, 0, 0
23, 0, 0, 0
24, 0, 0, 0
25, 0, 0, 0
26, 0, 0, 0
27, 0, 0, 0
28, 0, 0, 0
29, 0, 0, 0
30, 0, 0, 0
31, 0, 0, 0
32, 0, 0, 0
33, 0, 0, 0
34, 0, 0, 5.053901195526123
35, 0, 0, 52.17868041992188
36, 0, 0, 337.1419677734375
37, 0, 0, 983.400146484375
38, 0, 0, 2295.33984375
39, 0, 0, 3657.737548828125
40, 0, 0, 4765.166015625
41, 0, 0, 5129.505859375
42, 0, 0, 4688.7734375
43, 0, 0, 4247.75927734375
44, 0, 0, 3723.335693359375
45, 0, 0, 3308.55615234375
46, 0, 0, 3022.69775390625
47, 0, 0, 2810.381591796875
48, 0, 0, 2648.7822265625
49, 0, 0, 2520.00634765625
50, 0, 0, 2404.4267578125
51, 0, 0, 2294.045166015625
52, 0, 0, 2216.862060546875
53, 0, 0, 2149.780029296875
54, 0, 0, 2078.01416015625
55, 0, 0, 2018.603515625
56, 0, 0, 1964.150024414062
57, 0, 0, 1904.393676757812
58, 0, 0, 1865.756225585938
59, 0, 0, 1823.670288085938
60, 0, 0, 1780.388061523438
61, 0, 0, 1741.595336914062
62, 0, 0, 1713.073852539062
63, 0, 0, 1677.735229492188
64, 0, 0, 1648.064331054688
65, 0, 0, 1615.268188476562
66, 0, 0, 1592.813598632812
67, 0, 0, 1569.455078125
68, 0, 0, 1552.187377929688
69, 0, 0, 1524.90966796875
70, 0, 0, 1499.94482421875
71, 0, 0, 1475.87939453125
72, 0, 0, 1455.933715820312
73, 0, 0, 1442.141845703125
74, 0, 0, 1423.8896484375
75, 0, 0, 1404.657958984375
76, 0, 0, 1387.238525390625
77, 0, 0, 1367.025756835938
78, 0, 0, 1362.659790039062
79, 0, 0, 1340.31787109375
80, 0, 0, 1331.157348632812
81, 0, 0, 1318.68115234375
82, 0, 0, 1312.14404296875
83, 0, 0, 1293.3994140625
84, 0, 0, 1279.21533203125
85, 0, 0, 1263.98291015625
86, 0, 0, 1257.142333984375
87, 0, 0, 1238.989013671875
88, 0, 0, 1237.236083984375
89, 0, 0, 1220.038818359375
90, 0, 0, 1212.866333007812
91, 0, 0, 1205.92578125
92, 0, 0, 1185.017456054688
93, 0, 0, 1175.902465820312
94, 0, 0, 1173.056030273438
95, 0, 0, 1165.276977539062
96, 0, 0, 1154.740356445312
97, 0, 0, 1150.86083984375
98, 0, 0, 1136.868408203125
99, 0, 0, 1127.334838867188
100, 0, 0, 1126.838256835938
101, 0, 0, 1112.542236328125
102, 0, 0, 1113.500610351562
103, 0, 0, 1110.417236328125
104, 0, 0, 1089.733276367188
105, 0, 0, 1095.012451171875
106, 0, 0, 1085.1630859375
107, 0, 0, 1079.648315429688
108, 0, 0, 1072.404174804688
109, 0, 0, 1063.672973632812
110, 0, 0, 1059.109985351562
111, 0, 0, 1049.295166015625
112, 0, 0, 1044.685180664062
113, 0, 0, 1036.150634765625
114, 0, 0, 1040.37109375
115, 0, 0, 1032.74267578125
116, 0, 0, 1016.790466308594
117, 0, 0, 1018.318298339844
118, 0, 0, 1011.454833984375
119, 0, 0, 1012.519409179688
120, 0, 0, 1004.58349609375
121, 0, 0, 994.5759887695312
122, 0, 0, 990.9664916992188
123, 0, 0, 985.1038818359375
124, 0, 0, 981.80615234375
125, 0, 0, 973.0577392578125
126, 0, 0, 974.1201171875
127, 0, 0, 959.2431030273438
128, 0, 0, 969.1317138671875
129, 0, 0, 965.460205078125
130, 0, 0, 954.5948486328125
131, 0, 0, 953.8776245117188
132, 0, 0, 953.5894775390625
133, 0, 0, 936.523681640625
134, 0, 0, 944.0485229492188
135, 0, 0, 932.5187377929688
136, 0, 0, 933.2511596679688
137, 0, 0, 932.5758666992188
138, 0, 0, 922.3690185546875
139, 0, 0, 916.257568359375
140, 0, 0, 922.2443237304688
141, 0, 0, 919.7259521484375
142, 0, 0, 913.6993408203125
143, 0, 0, 910.2425537109375
144, 0, 0, 908.1729125976562
145, 0, 0, 896.8470458984375
146, 0, 0, 904.306396484375
147, 0, 0, 895.8946533203125
148, 0, 0, 891.1497802734375
149, 0, 0, 886.97412109375
150, 0, 0, 880.5966796875
151, 0, 0, 883.5542602539062
152, 0, 0, 881.5806274414062
153, 0, 0, 882.0374145507812
154, 0, 0, 871.7552490234375
155, 0, 0, 874.5074462890625
156, 0, 0, 866.1359252929688
157, 0, 0, 864.31005859375
158, 0, 0, 864.55322265625
159, 0, 0, 856.364013671875
160, 0, 0, 856.5294799804688
161, 0, 0, 858.9983520507812
162, 0, 0, 854.3728637695312
163, 0, 0, 854.9244384765625
164, 0, 0, 848.3464965820312
165, 0, 0, 844.8961791992188
166, 0, 0, 837.01611328125
167, 0, 0, 830.5839233398438
168, 0, 0, 830.08447265625
169, 0, 0, 832.2120971679688
170, 0, 0, 834.6945190429688
171, 0, 0, 825.93701171875
172, 0, 0, 832.1408081054688
173, 0, 0, 821.3666381835938
174, 0, 0, 828.0913696289062
175, 0, 0, 817.765380859375
176, 0, 0, 816.7330932617188
177, 0, 0, 810.4652709960938
178, 0, 0, 817.4776611328125
179, 0, 0, 805.9853515625
