# TOPAS Version: 3.3.p1
# Parameter File: Test.txt
# Results for scorer MLIC_Scorer
# Scored in component: MLIC
# X in 180 bins of 0.177778 cm
# Y in 1 bin  of 10 cm
# Z in 1 bin  of 10 cm
# EnergyDeposit ( MeV ) : Sum   
0, 0, 0, 0
1, 0, 0, 0
2, 0, 0, 0
3, 0, 0, 0
4, 0, 0, 0
5, 0, 0, 0
6, 0, 0, 0
7, 0, 0, 0
8, 0, 0, 0
9, 0, 0, 0
10, 0, 0, 0
11, 0, 0, 0
12, 0, 0, 0
13, 0, 0, 0
14, 0, 0, 0
15, 0, 0, 0
16, 0, 0, 0
17, 0, 0, 0
18, 0, 0, 0
19, 0, 0, 0.00187305361032486
20, 0, 0, 0
21, 0, 0, 0.02303016744554043
22, 0, 0, 0
23, 0, 0, 0
24, 0, 0, 0
25, 0, 0, 0.0001677703112363815
26, 0, 0, 0
27, 0, 0, 0
28, 0, 0, 0.0002846118004526943
29, 0, 0, 0
30, 0, 0, 0
31, 0, 0, 0
32, 0, 0, 0.003779858117923141
33, 0, 0, 0
34, 0, 0, 0
35, 0, 0, 0
36, 0, 0, 0
37, 0, 0, 0
38, 0, 0, 0
39, 0, 0, 0
40, 0, 0, 0.007956704124808311
41, 0, 0, 0
42, 0, 0, 0
43, 0, 0, 0
44, 0, 0, 0
45, 0, 0, 8.227917671203613
46, 0, 0, 16.14412117004395
47, 0, 0, 145.8542327880859
48, 0, 0, 400.9320983886719
49, 0, 0, 914.5018920898438
50, 0, 0, 1449.5810546875
51, 0, 0, 2005.029907226562
52, 0, 0, 2101.921630859375
53, 0, 0, 2070.8583984375
54, 0, 0, 1923.984741210938
55, 0, 0, 1702.980590820312
56, 0, 0, 1513.893310546875
57, 0, 0, 1386.494873046875
58, 0, 0, 1275.407958984375
59, 0, 0, 1191.518310546875
60, 0, 0, 1129.302490234375
61, 0, 0, 1078.667358398438
62, 0, 0, 1030.40087890625
63, 0, 0, 989.6532592773438
64, 0, 0, 954.8662109375
65, 0, 0, 927.613037109375
66, 0, 0, 900.7947387695312
67, 0, 0, 869.515869140625
68, 0, 0, 849.0921020507812
69, 0, 0, 832.2177124023438
70, 0, 0, 809.8892211914062
71, 0, 0, 795.7345581054688
72, 0, 0, 772.4013671875
73, 0, 0, 760.9429321289062
74, 0, 0, 748.4456787109375
75, 0, 0, 729.0560913085938
76, 0, 0, 721.4237060546875
77, 0, 0, 702.326416015625
78, 0, 0, 699.34521484375
79, 0, 0, 684.9081420898438
80, 0, 0, 675.4395751953125
81, 0, 0, 669.67822265625
82, 0, 0, 652.6036376953125
83, 0, 0, 644.6134643554688
84, 0, 0, 642.5718994140625
85, 0, 0, 625.0183715820312
86, 0, 0, 627.05859375
87, 0, 0, 616.2645263671875
88, 0, 0, 606.2883911132812
89, 0, 0, 601.42626953125
90, 0, 0, 594.8944702148438
91, 0, 0, 594.1983642578125
92, 0, 0, 580.2561645507812
93, 0, 0, 581.119384765625
94, 0, 0, 571.2449340820312
95, 0, 0, 566.0038452148438
96, 0, 0, 559.5711059570312
97, 0, 0, 558.4990234375
98, 0, 0, 552.0543823242188
99, 0, 0, 548.2044677734375
100, 0, 0, 539.9435424804688
101, 0, 0, 535.9837646484375
102, 0, 0, 533.0820922851562
103, 0, 0, 527.1075439453125
104, 0, 0, 525.2938842773438
105, 0, 0, 520.8007202148438
106, 0, 0, 510.7029724121094
107, 0, 0, 508.8729248046875
108, 0, 0, 505.0242614746094
109, 0, 0, 503.664794921875
110, 0, 0, 505.6391296386719
111, 0, 0, 499.1607055664062
112, 0, 0, 497.6364440917969
113, 0, 0, 492.3443908691406
114, 0, 0, 488.2869567871094
115, 0, 0, 485.3955078125
116, 0, 0, 482.2120361328125
117, 0, 0, 476.7255554199219
118, 0, 0, 476.4327087402344
119, 0, 0, 471.2374877929688
120, 0, 0, 471.6630554199219
121, 0, 0, 471.6192016601562
122, 0, 0, 459.1894836425781
123, 0, 0, 466.0476684570312
124, 0, 0, 456.4745178222656
125, 0, 0, 459.6958923339844
126, 0, 0, 460.3490295410156
127, 0, 0, 453.9524841308594
128, 0, 0, 453.05224609375
129, 0, 0, 443.9984130859375
130, 0, 0, 447.9776916503906
131, 0, 0, 447.6978454589844
132, 0, 0, 444.6735229492188
133, 0, 0, 437.7131958007812
134, 0, 0, 433.7621459960938
135, 0, 0, 433.8351440429688
136, 0, 0, 431.5517272949219
137, 0, 0, 426.2802734375
138, 0, 0, 428.1345520019531
139, 0, 0, 424.1161499023438
140, 0, 0, 428.3815612792969
141, 0, 0, 423.0146484375
142, 0, 0, 420.4819641113281
143, 0, 0, 417.9281616210938
144, 0, 0, 417.1109924316406
145, 0, 0, 412.0648193359375
146, 0, 0, 411.7402648925781
147, 0, 0, 412.1784362792969
148, 0, 0, 413.6847229003906
149, 0, 0, 407.9656372070312
150, 0, 0, 406.6934814453125
151, 0, 0, 405.8476867675781
152, 0, 0, 403.7361145019531
153, 0, 0, 398.1804504394531
154, 0, 0, 399.7856750488281
155, 0, 0, 398.7437133789062
156, 0, 0, 405.248779296875
157, 0, 0, 399.2202758789062
158, 0, 0, 394.8272094726562
159, 0, 0, 394.319091796875
160, 0, 0, 389.2975158691406
161, 0, 0, 387.9150085449219
162, 0, 0, 389.6512451171875
163, 0, 0, 385.4500427246094
164, 0, 0, 392.7321166992188
165, 0, 0, 389.1492004394531
166, 0, 0, 383.7025756835938
167, 0, 0, 379.4198913574219
168, 0, 0, 381.51806640625
169, 0, 0, 381.4901733398438
170, 0, 0, 382.6374816894531
171, 0, 0, 379.7581787109375
172, 0, 0, 379.5913391113281
173, 0, 0, 380.4287414550781
174, 0, 0, 373.4888610839844
175, 0, 0, 374.0697631835938
176, 0, 0, 376.2012939453125
177, 0, 0, 371.5704956054688
178, 0, 0, 373.6468200683594
179, 0, 0, 368.7939453125
