# TOPAS Version: 3.3.p1
# Parameter File: Test.txt
# Results for scorer MLIC_Scorer
# Scored in component: MLIC
# X in 180 bins of 0.183333 cm
# Y in 1 bin  of 10 cm
# Z in 1 bin  of 10 cm
# EnergyDeposit ( MeV ) : Sum   
0, 0, 0, 0
1, 0, 0, 0
2, 0, 0, 0
3, 0, 0, 0
4, 0, 0, 0
5, 0, 0, 0
6, 0, 0, 0
7, 0, 0, 0
8, 0, 0, 0
9, 0, 0, 0
10, 0, 0, 0
11, 0, 0, 0
12, 0, 0, 0
13, 0, 0, 0
14, 0, 0, 0
15, 0, 0, 0
16, 0, 0, 0
17, 0, 0, 0
18, 0, 0, 0
19, 0, 0, 0
20, 0, 0, 0
21, 0, 0, 0
22, 0, 0, 0
23, 0, 0, 0
24, 0, 0, 0
25, 0, 0, 0
26, 0, 0, 0
27, 0, 0, 0
28, 0, 0, 0
29, 0, 0, 0
30, 0, 0, 0
31, 0, 0, 0
32, 0, 0, 0
33, 0, 0, 0
34, 0, 0, 0
35, 0, 0, 0
36, 0, 0, 0
37, 0, 0, 0
38, 0, 0, 0
39, 0, 0, 0
40, 0, 0, 0
41, 0, 0, 0
42, 0, 0, 0
43, 0, 0, 0
44, 0, 0, 0
45, 0, 0, 0
46, 0, 0, 0
47, 0, 0, 0
48, 0, 0, 0
49, 0, 0, 0
50, 0, 0, 0
51, 0, 0, 0
52, 0, 0, 0
53, 0, 0, 0
54, 0, 0, 0
55, 0, 0, 0
56, 0, 0, 0
57, 0, 0, 0
58, 0, 0, 0
59, 0, 0, 0
60, 0, 0, 0
61, 0, 0, 0
62, 0, 0, 0
63, 0, 0, 0
64, 0, 0, 0
65, 0, 0, 0
66, 0, 0, 0
67, 0, 0, 0
68, 0, 0, 0
69, 0, 0, 0
70, 0, 0, 0
71, 0, 0, 0
72, 0, 0, 0
73, 0, 0, 0
74, 0, 0, 0
75, 0, 0, 0
76, 0, 0, 0
77, 0, 0, 0
78, 0, 0, 0
79, 0, 0, 0
80, 0, 0, 0
81, 0, 0, 0
82, 0, 0, 0
83, 0, 0, 0
84, 0, 0, 0
85, 0, 0, 0
86, 0, 0, 0
87, 0, 0, 0
88, 0, 0, 0
89, 0, 0, 0
90, 0, 0, 0
91, 0, 0, 0.02802121452987194
92, 0, 0, 0
93, 0, 0, 0
94, 0, 0, 0
95, 0, 0, 0
96, 0, 0, 0
97, 0, 0, 0.003362460294738412
98, 0, 0, 0.005553413648158312
99, 0, 0, 0
100, 0, 0, 0
101, 0, 0, 0
102, 0, 0, 0.02989945001900196
103, 0, 0, 2.224711894989014
104, 0, 0, 10.73180484771729
105, 0, 0, 60.24292373657227
106, 0, 0, 395.1097412109375
107, 0, 0, 1307.196533203125
108, 0, 0, 2560.717529296875
109, 0, 0, 3975.429443359375
110, 0, 0, 5261.25634765625
111, 0, 0, 5220.685546875
112, 0, 0, 4715.78076171875
113, 0, 0, 4141.18310546875
114, 0, 0, 3638.827880859375
115, 0, 0, 3268.791015625
116, 0, 0, 3009.607666015625
117, 0, 0, 2807.41796875
118, 0, 0, 2655.860107421875
119, 0, 0, 2525.2109375
120, 0, 0, 2413.6240234375
121, 0, 0, 2328.44873046875
122, 0, 0, 2230.205810546875
123, 0, 0, 2162.50146484375
124, 0, 0, 2095.7021484375
125, 0, 0, 2041.09716796875
126, 0, 0, 1981.776123046875
127, 0, 0, 1930.883056640625
128, 0, 0, 1878.829833984375
129, 0, 0, 1839.077514648438
130, 0, 0, 1800.439575195312
131, 0, 0, 1765.951904296875
132, 0, 0, 1727.95263671875
133, 0, 0, 1700.140747070312
134, 0, 0, 1666.004638671875
135, 0, 0, 1648.531127929688
136, 0, 0, 1613.961547851562
137, 0, 0, 1595.051635742188
138, 0, 0, 1568.985473632812
139, 0, 0, 1537.068603515625
140, 0, 0, 1528.22802734375
141, 0, 0, 1499.654174804688
142, 0, 0, 1480.106811523438
143, 0, 0, 1462.113159179688
144, 0, 0, 1443.095825195312
145, 0, 0, 1430.467895507812
146, 0, 0, 1406.564331054688
147, 0, 0, 1396.587890625
148, 0, 0, 1379.99658203125
149, 0, 0, 1358.0537109375
150, 0, 0, 1348.041381835938
151, 0, 0, 1340.978515625
152, 0, 0, 1320.785522460938
153, 0, 0, 1308.199584960938
154, 0, 0, 1299.1572265625
155, 0, 0, 1290.68994140625
156, 0, 0, 1271.859008789062
157, 0, 0, 1258.960693359375
158, 0, 0, 1255.979858398438
159, 0, 0, 1242.075927734375
160, 0, 0, 1227.464477539062
161, 0, 0, 1221.797729492188
162, 0, 0, 1210.94384765625
163, 0, 0, 1198.161376953125
164, 0, 0, 1189.698974609375
165, 0, 0, 1185.838256835938
166, 0, 0, 1175.609985351562
167, 0, 0, 1161.907836914062
168, 0, 0, 1155.481689453125
169, 0, 0, 1148.710327148438
170, 0, 0, 1148.416259765625
171, 0, 0, 1140.708984375
172, 0, 0, 1126.312744140625
173, 0, 0, 1122.86962890625
174, 0, 0, 1114.754516601562
175, 0, 0, 1106.225830078125
176, 0, 0, 1097.300170898438
177, 0, 0, 1093.139404296875
178, 0, 0, 1087.836059570312
179, 0, 0, 1090.094116210938
