# TOPAS Version: 3.3.p1
# Parameter File: Test.txt
# Results for scorer MLIC_Scorer
# Scored in component: MLIC
# X in 180 bins of 0.177778 cm
# Y in 1 bin  of 10 cm
# Z in 1 bin  of 10 cm
# EnergyDeposit ( MeV ) : Sum   
0, 0, 0, 0
1, 0, 0, 0
2, 0, 0, 0
3, 0, 0, 17.47757339477539
4, 0, 0, 107.5628280639648
5, 0, 0, 486.1819763183594
6, 0, 0, 1219.924560546875
7, 0, 0, 2558.480712890625
8, 0, 0, 3974.650634765625
9, 0, 0, 4876.83056640625
10, 0, 0, 5037.5244140625
11, 0, 0, 4687.306640625
12, 0, 0, 4115.41162109375
13, 0, 0, 3598.412841796875
14, 0, 0, 3213.999755859375
15, 0, 0, 2973.713623046875
16, 0, 0, 2777.580078125
17, 0, 0, 2625.6708984375
18, 0, 0, 2483.84619140625
19, 0, 0, 2373.048828125
20, 0, 0, 2279.145751953125
21, 0, 0, 2200.9921875
22, 0, 0, 2124.671142578125
23, 0, 0, 2059.0576171875
24, 0, 0, 2003.691772460938
25, 0, 0, 1949.919677734375
26, 0, 0, 1897.248046875
27, 0, 0, 1849.096435546875
28, 0, 0, 1817.93359375
29, 0, 0, 1778.3916015625
30, 0, 0, 1736.31689453125
31, 0, 0, 1709.939819335938
32, 0, 0, 1669.385620117188
33, 0, 0, 1633.91650390625
34, 0, 0, 1614.3017578125
35, 0, 0, 1591.639404296875
36, 0, 0, 1563.386596679688
37, 0, 0, 1538.924438476562
38, 0, 0, 1517.272216796875
39, 0, 0, 1498.7275390625
40, 0, 0, 1465.747680664062
41, 0, 0, 1454.91748046875
42, 0, 0, 1445.082153320312
43, 0, 0, 1421.3310546875
44, 0, 0, 1398.703125
45, 0, 0, 1391.916748046875
46, 0, 0, 1368.366943359375
47, 0, 0, 1353.046264648438
48, 0, 0, 1344.005004882812
49, 0, 0, 1324.765014648438
50, 0, 0, 1314.567138671875
51, 0, 0, 1301.537109375
52, 0, 0, 1280.510131835938
53, 0, 0, 1280.70166015625
54, 0, 0, 1262.479125976562
55, 0, 0, 1257.620971679688
56, 0, 0, 1239.885498046875
57, 0, 0, 1229.966552734375
58, 0, 0, 1224.067626953125
59, 0, 0, 1214.127563476562
60, 0, 0, 1206.68310546875
61, 0, 0, 1190.962646484375
62, 0, 0, 1177.048217773438
63, 0, 0, 1170.092041015625
64, 0, 0, 1167.262939453125
65, 0, 0, 1159.804321289062
66, 0, 0, 1141.958862304688
67, 0, 0, 1141.404907226562
68, 0, 0, 1130.337646484375
69, 0, 0, 1124.340698242188
70, 0, 0, 1111.777099609375
71, 0, 0, 1112.578491210938
72, 0, 0, 1104.947509765625
73, 0, 0, 1099.825927734375
74, 0, 0, 1082.210205078125
75, 0, 0, 1077.696044921875
76, 0, 0, 1067.524169921875
77, 0, 0, 1071.8974609375
78, 0, 0, 1065.551391601562
79, 0, 0, 1056.214477539062
80, 0, 0, 1045.816284179688
81, 0, 0, 1037.382568359375
82, 0, 0, 1035.678955078125
83, 0, 0, 1033.23486328125
84, 0, 0, 1021.374572753906
85, 0, 0, 1018.342651367188
86, 0, 0, 1023.168823242188
87, 0, 0, 1007.534362792969
88, 0, 0, 1004.238098144531
89, 0, 0, 999.9514770507812
90, 0, 0, 998.4676513671875
91, 0, 0, 988.4359741210938
92, 0, 0, 989.2620239257812
93, 0, 0, 981.693603515625
94, 0, 0, 979.40673828125
95, 0, 0, 976.7988891601562
96, 0, 0, 967.6671142578125
97, 0, 0, 961.0538330078125
98, 0, 0, 956.879150390625
99, 0, 0, 956.2348022460938
100, 0, 0, 954.8155517578125
101, 0, 0, 942.3778686523438
102, 0, 0, 943.1471557617188
103, 0, 0, 932.6815185546875
104, 0, 0, 935.9458618164062
105, 0, 0, 935.5676879882812
106, 0, 0, 920.3399047851562
107, 0, 0, 916.4583740234375
108, 0, 0, 912.4915161132812
109, 0, 0, 918.9269409179688
110, 0, 0, 909.8240356445312
111, 0, 0, 905.56787109375
112, 0, 0, 906.8829345703125
113, 0, 0, 909.3006591796875
114, 0, 0, 906.13818359375
115, 0, 0, 898.9954833984375
116, 0, 0, 892.3873901367188
117, 0, 0, 895.1375732421875
118, 0, 0, 888.9002075195312
119, 0, 0, 883.8106079101562
120, 0, 0, 876.1280517578125
121, 0, 0, 887.2238159179688
122, 0, 0, 870.9951782226562
123, 0, 0, 875.2099609375
124, 0, 0, 869.674072265625
125, 0, 0, 862.7640380859375
126, 0, 0, 863.92333984375
127, 0, 0, 857.8446044921875
128, 0, 0, 859.5343627929688
129, 0, 0, 855.8174438476562
130, 0, 0, 853.0582885742188
131, 0, 0, 853.1412353515625
132, 0, 0, 853.5881958007812
133, 0, 0, 841.7453002929688
134, 0, 0, 852.1937866210938
135, 0, 0, 845.4501953125
136, 0, 0, 848.5689086914062
137, 0, 0, 838.671142578125
138, 0, 0, 835.9800415039062
139, 0, 0, 827.0408935546875
140, 0, 0, 831.8091430664062
141, 0, 0, 824.3177490234375
142, 0, 0, 822.6666870117188
143, 0, 0, 822.9326782226562
144, 0, 0, 818.4396362304688
145, 0, 0, 815.1737670898438
146, 0, 0, 817.1347045898438
147, 0, 0, 811.5093383789062
148, 0, 0, 809.1566772460938
149, 0, 0, 809.8506469726562
150, 0, 0, 811.4487915039062
151, 0, 0, 806.7217407226562
152, 0, 0, 796.0422973632812
153, 0, 0, 804.0108032226562
154, 0, 0, 795.875244140625
155, 0, 0, 793.2545166015625
156, 0, 0, 801.3883056640625
157, 0, 0, 786.0828857421875
158, 0, 0, 782.9594116210938
159, 0, 0, 782.4178466796875
160, 0, 0, 785.9484252929688
161, 0, 0, 777.6258544921875
162, 0, 0, 783.2734985351562
163, 0, 0, 775.7142333984375
164, 0, 0, 780.6731567382812
165, 0, 0, 773.7921752929688
166, 0, 0, 771.3467407226562
167, 0, 0, 769.6467895507812
168, 0, 0, 762.55810546875
169, 0, 0, 768.3089599609375
170, 0, 0, 759.8805541992188
171, 0, 0, 757.3699340820312
172, 0, 0, 761.2365112304688
173, 0, 0, 759.3511352539062
174, 0, 0, 757.3201293945312
175, 0, 0, 759.0262451171875
176, 0, 0, 755.0617065429688
177, 0, 0, 753.9903564453125
178, 0, 0, 746.8368530273438
179, 0, 0, 747.8387451171875
