# TOPAS Version: 3.3.p1
# Parameter File: Test.txt
# Results for scorer MLIC_Scorer
# Scored in component: MLIC
# X in 180 bins of 0.177778 cm
# Y in 1 bin  of 10 cm
# Z in 1 bin  of 10 cm
# EnergyDeposit ( MeV ) : Sum   
0, 0, 0, 0
1, 0, 0, 0
2, 0, 0, 0
3, 0, 0, 0
4, 0, 0, 0
5, 0, 0, 0
6, 0, 0, 0
7, 0, 0, 0
8, 0, 0, 0
9, 0, 0, 0
10, 0, 0, 0
11, 0, 0, 0
12, 0, 0, 0
13, 0, 0, 0
14, 0, 0, 0
15, 0, 0, 0
16, 0, 0, 0
17, 0, 0, 0
18, 0, 0, 0
19, 0, 0, 0
20, 0, 0, 0
21, 0, 0, 0
22, 0, 0, 0
23, 0, 0, 0
24, 0, 0, 0
25, 0, 0, 0
26, 0, 0, 0
27, 0, 0, 0
28, 0, 0, 0
29, 0, 0, 0
30, 0, 0, 0
31, 0, 0, 0
32, 0, 0, 0
33, 0, 0, 0
34, 0, 0, 0
35, 0, 0, 0
36, 0, 0, 0
37, 0, 0, 0
38, 0, 0, 0
39, 0, 0, 0
40, 0, 0, 0
41, 0, 0, 0
42, 0, 0, 0
43, 0, 0, 0
44, 0, 0, 0
45, 0, 0, 0
46, 0, 0, 0
47, 0, 0, 0
48, 0, 0, 0
49, 0, 0, 0
50, 0, 0, 0
51, 0, 0, 0
52, 0, 0, 0
53, 0, 0, 0
54, 0, 0, 0
55, 0, 0, 0
56, 0, 0, 0
57, 0, 0, 0
58, 0, 0, 0
59, 0, 0, 0
60, 0, 0, 0
61, 0, 0, 0
62, 0, 0, 0
63, 0, 0, 0
64, 0, 0, 0
65, 0, 0, 0
66, 0, 0, 0
67, 0, 0, 0
68, 0, 0, 0
69, 0, 0, 0
70, 0, 0, 0
71, 0, 0, 0
72, 0, 0, 0
73, 0, 0, 0
74, 0, 0, 0
75, 0, 0, 0
76, 0, 0, 0.003290661610662937
77, 0, 0, 0.02572927251458168
78, 0, 0, 0
79, 0, 0, 16.1435546875
80, 0, 0, 80.87376403808594
81, 0, 0, 555.4821166992188
82, 0, 0, 1120.848510742188
83, 0, 0, 2302.500244140625
84, 0, 0, 3684.51904296875
85, 0, 0, 4712.9248046875
86, 0, 0, 4918.51904296875
87, 0, 0, 4659.91943359375
88, 0, 0, 4256.47998046875
89, 0, 0, 3701.076416015625
90, 0, 0, 3306.439697265625
91, 0, 0, 3021.253662109375
92, 0, 0, 2802.300537109375
93, 0, 0, 2641.70751953125
94, 0, 0, 2511.056884765625
95, 0, 0, 2399.542236328125
96, 0, 0, 2295.831298828125
97, 0, 0, 2214.394287109375
98, 0, 0, 2136.8232421875
99, 0, 0, 2074.523193359375
100, 0, 0, 2011.039916992188
101, 0, 0, 1961.955078125
102, 0, 0, 1910.1923828125
103, 0, 0, 1864.064453125
104, 0, 0, 1821.534423828125
105, 0, 0, 1779.673950195312
106, 0, 0, 1732.874755859375
107, 0, 0, 1712.30322265625
108, 0, 0, 1676.096557617188
109, 0, 0, 1640.023071289062
110, 0, 0, 1620.05908203125
111, 0, 0, 1589.694458007812
112, 0, 0, 1564.958618164062
113, 0, 0, 1536.383056640625
114, 0, 0, 1517.828979492188
115, 0, 0, 1501.814086914062
116, 0, 0, 1473.292846679688
117, 0, 0, 1447.37060546875
118, 0, 0, 1439.003173828125
119, 0, 0, 1425.85693359375
120, 0, 0, 1411.630615234375
121, 0, 0, 1388.330078125
122, 0, 0, 1373.991455078125
123, 0, 0, 1359.385009765625
124, 0, 0, 1340.307739257812
125, 0, 0, 1328.928466796875
126, 0, 0, 1312.779052734375
127, 0, 0, 1303.4892578125
128, 0, 0, 1293.160400390625
129, 0, 0, 1281.675537109375
130, 0, 0, 1267.3369140625
131, 0, 0, 1254.43798828125
132, 0, 0, 1241.441040039062
133, 0, 0, 1224.144165039062
134, 0, 0, 1224.687622070312
135, 0, 0, 1213.272705078125
136, 0, 0, 1211.704467773438
137, 0, 0, 1188.337646484375
138, 0, 0, 1177.32275390625
139, 0, 0, 1167.115234375
140, 0, 0, 1160.943359375
141, 0, 0, 1148.158325195312
142, 0, 0, 1150.710815429688
143, 0, 0, 1141.447509765625
144, 0, 0, 1131.515747070312
145, 0, 0, 1119.423706054688
146, 0, 0, 1112.986206054688
147, 0, 0, 1101.474975585938
148, 0, 0, 1107.388916015625
149, 0, 0, 1101.097534179688
150, 0, 0, 1085.328735351562
151, 0, 0, 1087.549926757812
152, 0, 0, 1077.109008789062
153, 0, 0, 1068.58837890625
154, 0, 0, 1066.58642578125
155, 0, 0, 1057.612426757812
156, 0, 0, 1043.074584960938
157, 0, 0, 1049.032592773438
158, 0, 0, 1041.301513671875
159, 0, 0, 1036.411743164062
160, 0, 0, 1026.855712890625
161, 0, 0, 1018.374877929688
162, 0, 0, 1017.519409179688
163, 0, 0, 1008.5810546875
164, 0, 0, 997.9292602539062
165, 0, 0, 1003.03662109375
166, 0, 0, 1001.798645019531
167, 0, 0, 991.8323364257812
168, 0, 0, 989.7051391601562
169, 0, 0, 982.6010131835938
170, 0, 0, 974.6365966796875
171, 0, 0, 978.0223388671875
172, 0, 0, 967.3688354492188
173, 0, 0, 961.3536376953125
174, 0, 0, 963.2806396484375
175, 0, 0, 963.2817993164062
176, 0, 0, 949.72998046875
177, 0, 0, 952.0335083007812
178, 0, 0, 941.8344116210938
179, 0, 0, 939.5208740234375
