# TOPAS Version: 3.3.p1
# Parameter File: Test.txt
# Results for scorer MLIC_Scorer
# Scored in component: MLIC
# X in 180 bins of 0.183333 cm
# Y in 1 bin  of 10 cm
# Z in 1 bin  of 10 cm
# EnergyDeposit ( MeV ) : Sum   
0, 0, 0, 0
1, 0, 0, 0
2, 0, 0, 0
3, 0, 0, 0
4, 0, 0, 0
5, 0, 0, 0
6, 0, 0, 0
7, 0, 0, 0
8, 0, 0, 0
9, 0, 0, 0
10, 0, 0, 0
11, 0, 0, 0
12, 0, 0, 0
13, 0, 0, 0
14, 0, 0, 0
15, 0, 0, 0
16, 0, 0, 0
17, 0, 0, 0
18, 0, 0, 0
19, 0, 0, 0
20, 0, 0, 0
21, 0, 0, 0
22, 0, 0, 0
23, 0, 0, 0
24, 0, 0, 0
25, 0, 0, 0
26, 0, 0, 0
27, 0, 0, 0
28, 0, 0, 0
29, 0, 0, 0
30, 0, 0, 0
31, 0, 0, 0
32, 0, 0, 0
33, 0, 0, 0
34, 0, 0, 0
35, 0, 0, 0
36, 0, 0, 0
37, 0, 0, 0
38, 0, 0, 0
39, 0, 0, 0
40, 0, 0, 0
41, 0, 0, 0
42, 0, 0, 0
43, 0, 0, 0.004059799015522003
44, 0, 0, 0
45, 0, 0, 0
46, 0, 0, 0
47, 0, 0, 0.0009030496003106236
48, 0, 0, 0
49, 0, 0, 0
50, 0, 0, 0
51, 0, 0, 0
52, 0, 0, 0
53, 0, 0, 0
54, 0, 0, 0
55, 0, 0, 0
56, 0, 0, 0
57, 0, 0, 0
58, 0, 0, 0
59, 0, 0, 0
60, 0, 0, 0
61, 0, 0, 0
62, 0, 0, 0
63, 0, 0, 0
64, 0, 0, 0
65, 0, 0, 0
66, 0, 0, 0
67, 0, 0, 0
68, 0, 0, 0
69, 0, 0, 0
70, 0, 0, 0
71, 0, 0, 0
72, 0, 0, 0
73, 0, 0, 0
74, 0, 0, 0
75, 0, 0, 0
76, 0, 0, 0
77, 0, 0, 0
78, 0, 0, 0
79, 0, 0, 0
80, 0, 0, 0
81, 0, 0, 0
82, 0, 0, 0
83, 0, 0, 0
84, 0, 0, 0
85, 0, 0, 0
86, 0, 0, 0
87, 0, 0, 0
88, 0, 0, 0
89, 0, 0, 0
90, 0, 0, 0
91, 0, 0, 0
92, 0, 0, 0
93, 0, 0, 0
94, 0, 0, 0
95, 0, 0, 0
96, 0, 0, 0
97, 0, 0, 0
98, 0, 0, 0
99, 0, 0, 0
100, 0, 0, 0
101, 0, 0, 0
102, 0, 0, 0
103, 0, 0, 0
104, 0, 0, 0
105, 0, 0, 0
106, 0, 0, 0
107, 0, 0, 0
108, 0, 0, 0
109, 0, 0, 0.002031653420999646
110, 0, 0, 1.732403516769409
111, 0, 0, 54.24051666259766
112, 0, 0, 88.86034393310547
113, 0, 0, 626.5674438476562
114, 0, 0, 1715.59326171875
115, 0, 0, 3108.347412109375
116, 0, 0, 4521.03173828125
117, 0, 0, 5151.73291015625
118, 0, 0, 5000.26416015625
119, 0, 0, 4637.22119140625
120, 0, 0, 4007.468017578125
121, 0, 0, 3498.8720703125
122, 0, 0, 3172.967041015625
123, 0, 0, 2941.112548828125
124, 0, 0, 2756.957763671875
125, 0, 0, 2612.057373046875
126, 0, 0, 2489.110595703125
127, 0, 0, 2380.3974609375
128, 0, 0, 2297.271240234375
129, 0, 0, 2210.210205078125
130, 0, 0, 2140.699462890625
131, 0, 0, 2076.169189453125
132, 0, 0, 2018.213500976562
133, 0, 0, 1965.045532226562
134, 0, 0, 1917.409423828125
135, 0, 0, 1873.452270507812
136, 0, 0, 1827.408813476562
137, 0, 0, 1794.452758789062
138, 0, 0, 1753.085205078125
139, 0, 0, 1721.415283203125
140, 0, 0, 1686.542236328125
141, 0, 0, 1656.398193359375
142, 0, 0, 1626.2119140625
143, 0, 0, 1601.476196289062
144, 0, 0, 1584.4658203125
145, 0, 0, 1552.644409179688
146, 0, 0, 1541.405395507812
147, 0, 0, 1512.0771484375
148, 0, 0, 1495.659790039062
149, 0, 0, 1473.129760742188
150, 0, 0, 1460.610229492188
151, 0, 0, 1441.600463867188
152, 0, 0, 1424.601440429688
153, 0, 0, 1412.227783203125
154, 0, 0, 1385.8896484375
155, 0, 0, 1370.521606445312
156, 0, 0, 1355.938720703125
157, 0, 0, 1348.225219726562
158, 0, 0, 1335.315307617188
159, 0, 0, 1317.307006835938
160, 0, 0, 1309.909545898438
161, 0, 0, 1296.509521484375
162, 0, 0, 1284.95654296875
163, 0, 0, 1268.30078125
164, 0, 0, 1261.408447265625
165, 0, 0, 1257.648071289062
166, 0, 0, 1238.209594726562
167, 0, 0, 1222.650390625
168, 0, 0, 1215.207763671875
169, 0, 0, 1212.680541992188
170, 0, 0, 1201.12890625
171, 0, 0, 1188.866821289062
172, 0, 0, 1183.324829101562
173, 0, 0, 1171.124145507812
174, 0, 0, 1164.960205078125
175, 0, 0, 1151.124755859375
176, 0, 0, 1143.18115234375
177, 0, 0, 1139.044189453125
178, 0, 0, 1140.251342773438
179, 0, 0, 1124.316528320312
