# TOPAS Version: 3.3.p1
# Parameter File: Test.txt
# Results for scorer MLIC_Scorer
# Scored in component: MLIC
# X in 180 bins of 0.177778 cm
# Y in 1 bin  of 10 cm
# Z in 1 bin  of 10 cm
# EnergyDeposit ( MeV ) : Sum   
0, 0, 0, 0
1, 0, 0, 0
2, 0, 0, 0
3, 0, 0, 0
4, 0, 0, 0
5, 0, 0, 0
6, 0, 0, 0
7, 0, 0, 0
8, 0, 0, 0
9, 0, 0, 0
10, 0, 0, 0
11, 0, 0, 0
12, 0, 0, 0
13, 0, 0, 0
14, 0, 0, 0
15, 0, 0, 0
16, 0, 0, 0
17, 0, 0, 0
18, 0, 0, 0
19, 0, 0, 0
20, 0, 0, 0
21, 0, 0, 0
22, 0, 0, 0.0245601050555706
23, 0, 0, 0
24, 0, 0, 0
25, 0, 0, 0
26, 0, 0, 0
27, 0, 0, 0
28, 0, 0, 0
29, 0, 0, 0
30, 0, 0, 0
31, 0, 0, 0
32, 0, 0, 0
33, 0, 0, 0
34, 0, 0, 0
35, 0, 0, 0
36, 0, 0, 20.21573448181152
37, 0, 0, 76.62047576904297
38, 0, 0, 261.376220703125
39, 0, 0, 695.9119873046875
40, 0, 0, 1622.933959960938
41, 0, 0, 3021.217529296875
42, 0, 0, 4295.3330078125
43, 0, 0, 5034.39208984375
44, 0, 0, 4886.9697265625
45, 0, 0, 4531.01171875
46, 0, 0, 3878.38232421875
47, 0, 0, 3442.04248046875
48, 0, 0, 3144.964111328125
49, 0, 0, 2916.697509765625
50, 0, 0, 2715.90869140625
51, 0, 0, 2568.71240234375
52, 0, 0, 2447.508544921875
53, 0, 0, 2344.64599609375
54, 0, 0, 2247.50048828125
55, 0, 0, 2174.9873046875
56, 0, 0, 2105.073486328125
57, 0, 0, 2043.811401367188
58, 0, 0, 1982.122680664062
59, 0, 0, 1936.483276367188
60, 0, 0, 1886.493408203125
61, 0, 0, 1833.471801757812
62, 0, 0, 1800.653564453125
63, 0, 0, 1758.788696289062
64, 0, 0, 1726.384033203125
65, 0, 0, 1696.082763671875
66, 0, 0, 1665.9970703125
67, 0, 0, 1626.550537109375
68, 0, 0, 1602.131469726562
69, 0, 0, 1581.72900390625
70, 0, 0, 1556.546752929688
71, 0, 0, 1529.0615234375
72, 0, 0, 1512.137084960938
73, 0, 0, 1486.045776367188
74, 0, 0, 1467.522338867188
75, 0, 0, 1448.723266601562
76, 0, 0, 1426.181396484375
77, 0, 0, 1415.578247070312
78, 0, 0, 1396.0849609375
79, 0, 0, 1378.69189453125
80, 0, 0, 1364.953247070312
81, 0, 0, 1351.065795898438
82, 0, 0, 1330.997802734375
83, 0, 0, 1319.490478515625
84, 0, 0, 1309.579467773438
85, 0, 0, 1294.74755859375
86, 0, 0, 1277.390991210938
87, 0, 0, 1267.641235351562
88, 0, 0, 1263.084594726562
89, 0, 0, 1253.404541015625
90, 0, 0, 1232.860717773438
91, 0, 0, 1234.047973632812
92, 0, 0, 1213.50390625
93, 0, 0, 1199.936279296875
94, 0, 0, 1192.1142578125
95, 0, 0, 1179.746826171875
96, 0, 0, 1173.59326171875
97, 0, 0, 1169.438354492188
98, 0, 0, 1161.987548828125
99, 0, 0, 1153.791015625
100, 0, 0, 1140.87841796875
101, 0, 0, 1134.147338867188
102, 0, 0, 1122.244018554688
103, 0, 0, 1116.692016601562
104, 0, 0, 1114.405395507812
105, 0, 0, 1099.816650390625
106, 0, 0, 1098.4912109375
107, 0, 0, 1087.785766601562
108, 0, 0, 1084.528930664062
109, 0, 0, 1078.026245117188
110, 0, 0, 1082.6181640625
111, 0, 0, 1063.518676757812
112, 0, 0, 1059.007934570312
113, 0, 0, 1052.874877929688
114, 0, 0, 1044.3671875
115, 0, 0, 1042.972412109375
116, 0, 0, 1029.315307617188
117, 0, 0, 1030.459350585938
118, 0, 0, 1027.505126953125
119, 0, 0, 1021.043151855469
120, 0, 0, 1014.857238769531
121, 0, 0, 1012.896484375
122, 0, 0, 1010.052124023438
123, 0, 0, 998.3447875976562
124, 0, 0, 1000.560791015625
125, 0, 0, 987.4564819335938
126, 0, 0, 980.827880859375
127, 0, 0, 975.7946166992188
128, 0, 0, 981.0318603515625
129, 0, 0, 967.7433471679688
130, 0, 0, 968.1038818359375
131, 0, 0, 957.260986328125
132, 0, 0, 963.4176635742188
133, 0, 0, 955.3697509765625
134, 0, 0, 945.7922973632812
135, 0, 0, 947.4710083007812
136, 0, 0, 944.3929443359375
137, 0, 0, 934.502197265625
138, 0, 0, 929.826416015625
139, 0, 0, 927.3790283203125
140, 0, 0, 924.8656616210938
141, 0, 0, 927.211181640625
142, 0, 0, 916.2901611328125
143, 0, 0, 913.9915161132812
144, 0, 0, 915.8273315429688
145, 0, 0, 910.2714233398438
146, 0, 0, 906.938720703125
147, 0, 0, 904.3043823242188
148, 0, 0, 909.7966918945312
149, 0, 0, 902.890625
150, 0, 0, 889.523681640625
151, 0, 0, 885.5130615234375
152, 0, 0, 889.2274169921875
153, 0, 0, 882.8395385742188
154, 0, 0, 883.682373046875
155, 0, 0, 879.3489379882812
156, 0, 0, 876.17431640625
157, 0, 0, 870.70751953125
158, 0, 0, 863.4853515625
159, 0, 0, 863.128173828125
160, 0, 0, 860.9054565429688
161, 0, 0, 856.3170166015625
162, 0, 0, 855.0250854492188
163, 0, 0, 861.0859985351562
164, 0, 0, 852.2619018554688
165, 0, 0, 849.4708251953125
166, 0, 0, 839.1149291992188
167, 0, 0, 836.73095703125
168, 0, 0, 845.29052734375
169, 0, 0, 838.962158203125
170, 0, 0, 839.5892333984375
171, 0, 0, 832.5970458984375
172, 0, 0, 834.3026733398438
173, 0, 0, 839.3410034179688
174, 0, 0, 830.8054809570312
175, 0, 0, 826.6290893554688
176, 0, 0, 820.767578125
177, 0, 0, 822.8954467773438
178, 0, 0, 822.8580322265625
179, 0, 0, 813.451416015625
