# TOPAS Version: 3.3.p1
# Parameter File: Test.txt
# Results for scorer MLIC_Scorer
# Scored in component: MLIC
# X in 180 bins of 0.177778 cm
# Y in 1 bin  of 10 cm
# Z in 1 bin  of 10 cm
# EnergyDeposit ( MeV ) : Sum   
0, 0, 0, 0
1, 0, 0, 0
2, 0, 0, 0
3, 0, 0, 0
4, 0, 0, 0
5, 0, 0, 0
6, 0, 0, 0
7, 0, 0, 0
8, 0, 0, 0
9, 0, 0, 0
10, 0, 0, 0
11, 0, 0, 0
12, 0, 0, 0
13, 0, 0, 0
14, 0, 0, 0
15, 0, 0, 0
16, 0, 0, 0
17, 0, 0, 0
18, 0, 0, 0
19, 0, 0, 0
20, 0, 0, 0
21, 0, 0, 0
22, 0, 0, 0
23, 0, 0, 0
24, 0, 0, 0
25, 0, 0, 0
26, 0, 0, 0
27, 0, 0, 0
28, 0, 0, 0
29, 0, 0, 0
30, 0, 0, 0
31, 0, 0, 0
32, 0, 0, 0
33, 0, 0, 0
34, 0, 0, 0
35, 0, 0, 0
36, 0, 0, 0
37, 0, 0, 0
38, 0, 0, 0
39, 0, 0, 0
40, 0, 0, 0
41, 0, 0, 0
42, 0, 0, 0
43, 0, 0, 0
44, 0, 0, 0
45, 0, 0, 0
46, 0, 0, 0
47, 0, 0, 0
48, 0, 0, 0
49, 0, 0, 0
50, 0, 0, 0
51, 0, 0, 0
52, 0, 0, 0
53, 0, 0, 0
54, 0, 0, 0
55, 0, 0, 0
56, 0, 0, 0
57, 0, 0, 0
58, 0, 0, 0
59, 0, 0, 0
60, 0, 0, 0
61, 0, 0, 0
62, 0, 0, 0
63, 0, 0, 0
64, 0, 0, 0
65, 0, 0, 0
66, 0, 0, 0
67, 0, 0, 0
68, 0, 0, 0
69, 0, 0, 0
70, 0, 0, 0
71, 0, 0, 0
72, 0, 0, 0
73, 0, 0, 0
74, 0, 0, 0
75, 0, 0, 0
76, 0, 0, 0
77, 0, 0, 0
78, 0, 0, 0
79, 0, 0, 0
80, 0, 0, 0
81, 0, 0, 0
82, 0, 0, 0
83, 0, 0, 0
84, 0, 0, 0
85, 0, 0, 0
86, 0, 0, 0
87, 0, 0, 0
88, 0, 0, 0
89, 0, 0, 0
90, 0, 0, 0
91, 0, 0, 0
92, 0, 0, 0
93, 0, 0, 0
94, 0, 0, 0
95, 0, 0, 0
96, 0, 0, 0
97, 0, 0, 0
98, 0, 0, 0
99, 0, 0, 0
100, 0, 0, 0
101, 0, 0, 0
102, 0, 0, 0
103, 0, 0, 0
104, 0, 0, 0
105, 0, 0, 0
106, 0, 0, 0
107, 0, 0, 0
108, 0, 0, 0
109, 0, 0, 0
110, 0, 0, 0
111, 0, 0, 0
112, 0, 0, 0
113, 0, 0, 0
114, 0, 0, 0
115, 0, 0, 0
116, 0, 0, 0
117, 0, 0, 0
118, 0, 0, 0
119, 0, 0, 0
120, 0, 0, 0
121, 0, 0, 0
122, 0, 0, 0
123, 0, 0, 29.46265411376953
124, 0, 0, 113.8568344116211
125, 0, 0, 449.238525390625
126, 0, 0, 1286.413696289062
127, 0, 0, 2528.468505859375
128, 0, 0, 3878.3291015625
129, 0, 0, 4730.96533203125
130, 0, 0, 5028.7021484375
131, 0, 0, 4675.2548828125
132, 0, 0, 4111.68603515625
133, 0, 0, 3632.65185546875
134, 0, 0, 3266.552490234375
135, 0, 0, 2988.79345703125
136, 0, 0, 2787.184814453125
137, 0, 0, 2625.298828125
138, 0, 0, 2490.67578125
139, 0, 0, 2383.435302734375
140, 0, 0, 2284.01123046875
141, 0, 0, 2210.56298828125
142, 0, 0, 2133.17138671875
143, 0, 0, 2064.95166015625
144, 0, 0, 1999.984008789062
145, 0, 0, 1953.144775390625
146, 0, 0, 1897.82080078125
147, 0, 0, 1859.337524414062
148, 0, 0, 1815.470703125
149, 0, 0, 1769.755493164062
150, 0, 0, 1741.455322265625
151, 0, 0, 1704.731811523438
152, 0, 0, 1674.32275390625
153, 0, 0, 1645.999389648438
154, 0, 0, 1610.208618164062
155, 0, 0, 1585.295288085938
156, 0, 0, 1566.84130859375
157, 0, 0, 1540.169555664062
158, 0, 0, 1516.9580078125
159, 0, 0, 1495.825561523438
160, 0, 0, 1473.605346679688
161, 0, 0, 1450.682861328125
162, 0, 0, 1441.218017578125
163, 0, 0, 1418.602661132812
164, 0, 0, 1401.833618164062
165, 0, 0, 1384.166015625
166, 0, 0, 1363.02392578125
167, 0, 0, 1352.405517578125
168, 0, 0, 1339.678466796875
169, 0, 0, 1328.060546875
170, 0, 0, 1310.970581054688
171, 0, 0, 1298.489624023438
172, 0, 0, 1284.932373046875
173, 0, 0, 1283.595458984375
174, 0, 0, 1266.744506835938
175, 0, 0, 1247.124267578125
176, 0, 0, 1241.732177734375
177, 0, 0, 1229.59130859375
178, 0, 0, 1218.67578125
179, 0, 0, 1204.4482421875
