# TOPAS Version: 3.3.p1
# Parameter File: Test.txt
# Results for scorer MLIC_Scorer
# Scored in component: MLIC
# X in 180 bins of 0.177778 cm
# Y in 1 bin  of 10 cm
# Z in 1 bin  of 10 cm
# EnergyDeposit ( MeV ) : Sum   
0, 0, 0, 0
1, 0, 0, 0
2, 0, 0, 0
3, 0, 0, 0
4, 0, 0, 0
5, 0, 0, 0
6, 0, 0, 0
7, 0, 0, 0
8, 0, 0, 0
9, 0, 0, 0
10, 0, 0, 0
11, 0, 0, 0
12, 0, 0, 0
13, 0, 0, 0
14, 0, 0, 0
15, 0, 0, 0
16, 0, 0, 0
17, 0, 0, 0
18, 0, 0, 0.0372278243303299
19, 0, 0, 0
20, 0, 0, 0
21, 0, 0, 0
22, 0, 0, 0
23, 0, 0, 0
24, 0, 0, 0
25, 0, 0, 0
26, 0, 0, 0
27, 0, 0, 0
28, 0, 0, 0.04297984391450882
29, 0, 0, 0
30, 0, 0, 0
31, 0, 0, 0
32, 0, 0, 0
33, 0, 0, 0
34, 0, 0, 0
35, 0, 0, 0
36, 0, 0, 0
37, 0, 0, 0.01101168058812618
38, 0, 0, 0
39, 0, 0, 18.0555477142334
40, 0, 0, 126.3014602661133
41, 0, 0, 398.2593078613281
42, 0, 0, 1065.405151367188
43, 0, 0, 2215.50439453125
44, 0, 0, 3708.140380859375
45, 0, 0, 4779.0634765625
46, 0, 0, 5087.87841796875
47, 0, 0, 4687.80126953125
48, 0, 0, 4173.58349609375
49, 0, 0, 3662.845458984375
50, 0, 0, 3301.85546875
51, 0, 0, 3036.2353515625
52, 0, 0, 2819.57568359375
53, 0, 0, 2656.72802734375
54, 0, 0, 2516.980224609375
55, 0, 0, 2399.0390625
56, 0, 0, 2309.42431640625
57, 0, 0, 2217.277587890625
58, 0, 0, 2143.49462890625
59, 0, 0, 2074.619140625
60, 0, 0, 2017.656616210938
61, 0, 0, 1970.814086914062
62, 0, 0, 1900.722778320312
63, 0, 0, 1853.108276367188
64, 0, 0, 1814.06982421875
65, 0, 0, 1777.494262695312
66, 0, 0, 1744.958374023438
67, 0, 0, 1710.760986328125
68, 0, 0, 1676.941284179688
69, 0, 0, 1648.378662109375
70, 0, 0, 1612.91845703125
71, 0, 0, 1594.432983398438
72, 0, 0, 1571.878784179688
73, 0, 0, 1543.322021484375
74, 0, 0, 1518.76513671875
75, 0, 0, 1509.221435546875
76, 0, 0, 1473.649658203125
77, 0, 0, 1463.08251953125
78, 0, 0, 1444.395874023438
79, 0, 0, 1423.671752929688
80, 0, 0, 1408.29052734375
81, 0, 0, 1388.693237304688
82, 0, 0, 1367.239868164062
83, 0, 0, 1356.296752929688
84, 0, 0, 1345.312622070312
85, 0, 0, 1328.020141601562
86, 0, 0, 1312.582885742188
87, 0, 0, 1300.291137695312
88, 0, 0, 1296.880126953125
89, 0, 0, 1279.48681640625
90, 0, 0, 1264.145874023438
91, 0, 0, 1256.922241210938
92, 0, 0, 1241.828857421875
93, 0, 0, 1230.562866210938
94, 0, 0, 1225.427490234375
95, 0, 0, 1208.896850585938
96, 0, 0, 1197.979248046875
97, 0, 0, 1186.645874023438
98, 0, 0, 1186.054931640625
99, 0, 0, 1167.848754882812
100, 0, 0, 1164.955932617188
101, 0, 0, 1160.08544921875
102, 0, 0, 1146.619873046875
103, 0, 0, 1133.85107421875
104, 0, 0, 1129.634521484375
105, 0, 0, 1124.9189453125
106, 0, 0, 1117.7861328125
107, 0, 0, 1111.39306640625
108, 0, 0, 1109.700439453125
109, 0, 0, 1100.06201171875
110, 0, 0, 1087.17822265625
111, 0, 0, 1086.156616210938
112, 0, 0, 1073.187866210938
113, 0, 0, 1067.119506835938
114, 0, 0, 1063.663696289062
115, 0, 0, 1057.654663085938
116, 0, 0, 1055.123413085938
117, 0, 0, 1049.763549804688
118, 0, 0, 1035.648071289062
119, 0, 0, 1032.87158203125
120, 0, 0, 1033.468383789062
121, 0, 0, 1025.781127929688
122, 0, 0, 1015.116088867188
123, 0, 0, 1006.241271972656
124, 0, 0, 1003.89453125
125, 0, 0, 1003.140380859375
126, 0, 0, 996.128662109375
127, 0, 0, 994.7026977539062
128, 0, 0, 987.7157592773438
129, 0, 0, 991.8042602539062
130, 0, 0, 975.873779296875
131, 0, 0, 963.8360595703125
132, 0, 0, 970.1673583984375
133, 0, 0, 968.6578369140625
134, 0, 0, 968.8397827148438
135, 0, 0, 955.5306396484375
136, 0, 0, 951.5701293945312
137, 0, 0, 946.5725708007812
138, 0, 0, 936.8926391601562
139, 0, 0, 942.3551635742188
140, 0, 0, 935.8256225585938
141, 0, 0, 934.8355712890625
142, 0, 0, 926.9705810546875
143, 0, 0, 915.80517578125
144, 0, 0, 911.6502685546875
145, 0, 0, 922.1634521484375
146, 0, 0, 914.9342041015625
147, 0, 0, 912.6541748046875
148, 0, 0, 905.0402221679688
149, 0, 0, 904.9617309570312
150, 0, 0, 902.8297729492188
151, 0, 0, 898.0374145507812
152, 0, 0, 895.9742431640625
153, 0, 0, 893.4840087890625
154, 0, 0, 890.5894165039062
155, 0, 0, 878.4189453125
156, 0, 0, 886.41845703125
157, 0, 0, 879.5701904296875
158, 0, 0, 875.6444091796875
159, 0, 0, 869.4612426757812
160, 0, 0, 867.136962890625
161, 0, 0, 870.8425903320312
162, 0, 0, 869.1751708984375
163, 0, 0, 872.8743286132812
164, 0, 0, 853.5038452148438
165, 0, 0, 860.5794677734375
166, 0, 0, 844.9744873046875
167, 0, 0, 841.4722290039062
168, 0, 0, 855.5956420898438
169, 0, 0, 842.5726318359375
170, 0, 0, 842.0130615234375
171, 0, 0, 840.6773071289062
172, 0, 0, 841.1790771484375
173, 0, 0, 835.5540161132812
174, 0, 0, 833.54931640625
175, 0, 0, 831.2698974609375
176, 0, 0, 829.2457275390625
177, 0, 0, 828.4171142578125
178, 0, 0, 817.3739624023438
179, 0, 0, 815.345458984375
