# TOPAS Version: 3.3.p1
# Parameter File: Test.txt
# Results for scorer MLIC_Scorer
# Scored in component: MLIC
# X in 180 bins of 0.183333 cm
# Y in 1 bin  of 10 cm
# Z in 1 bin  of 10 cm
# EnergyDeposit ( MeV ) : Sum   
0, 0, 0, 0
1, 0, 0, 0
2, 0, 0, 0
3, 0, 0, 0
4, 0, 0, 0
5, 0, 0, 0
6, 0, 0, 0
7, 0, 0, 0
8, 0, 0, 0
9, 0, 0, 0
10, 0, 0, 0
11, 0, 0, 0
12, 0, 0, 0
13, 0, 0, 0
14, 0, 0, 0
15, 0, 0, 0
16, 0, 0, 0
17, 0, 0, 0
18, 0, 0, 0
19, 0, 0, 0
20, 0, 0, 0
21, 0, 0, 0
22, 0, 0, 0
23, 0, 0, 0
24, 0, 0, 0
25, 0, 0, 0
26, 0, 0, 0
27, 0, 0, 0
28, 0, 0, 0
29, 0, 0, 0
30, 0, 0, 0
31, 0, 0, 0
32, 0, 0, 0
33, 0, 0, 0
34, 0, 0, 0
35, 0, 0, 0
36, 0, 0, 0
37, 0, 0, 0
38, 0, 0, 0
39, 0, 0, 0
40, 0, 0, 0
41, 0, 0, 0
42, 0, 0, 0
43, 0, 0, 0
44, 0, 0, 0
45, 0, 0, 0
46, 0, 0, 0
47, 0, 0, 0
48, 0, 0, 0
49, 0, 0, 0
50, 0, 0, 0
51, 0, 0, 0
52, 0, 0, 0
53, 0, 0, 0
54, 0, 0, 0
55, 0, 0, 0
56, 0, 0, 0
57, 0, 0, 0
58, 0, 0, 0
59, 0, 0, 0
60, 0, 0, 0
61, 0, 0, 0
62, 0, 0, 0
63, 0, 0, 0
64, 0, 0, 0
65, 0, 0, 0
66, 0, 0, 0
67, 0, 0, 0
68, 0, 0, 0
69, 0, 0, 0
70, 0, 0, 0
71, 0, 0, 0
72, 0, 0, 0
73, 0, 0, 0
74, 0, 0, 0
75, 0, 0, 0
76, 0, 0, 0
77, 0, 0, 0
78, 0, 0, 0.00341319851577282
79, 0, 0, 0
80, 0, 0, 0.006177177187055349
81, 0, 0, 0
82, 0, 0, 0
83, 0, 0, 0
84, 0, 0, 0.04081140831112862
85, 0, 0, 0
86, 0, 0, 0
87, 0, 0, 0
88, 0, 0, 0
89, 0, 0, 0
90, 0, 0, 0
91, 0, 0, 0.0008870070450939238
92, 0, 0, 0
93, 0, 0, 0
94, 0, 0, 0
95, 0, 0, 0
96, 0, 0, 0
97, 0, 0, 0
98, 0, 0, 24.25382804870605
99, 0, 0, 61.05791091918945
100, 0, 0, 205.1537322998047
101, 0, 0, 813.7673950195312
102, 0, 0, 1833.684692382812
103, 0, 0, 3235.222412109375
104, 0, 0, 4287.04248046875
105, 0, 0, 5194.58984375
106, 0, 0, 5040.20947265625
107, 0, 0, 4547.42919921875
108, 0, 0, 3912.8701171875
109, 0, 0, 3496.474365234375
110, 0, 0, 3163.3740234375
111, 0, 0, 2932.968994140625
112, 0, 0, 2751.073486328125
113, 0, 0, 2601.166748046875
114, 0, 0, 2475.387451171875
115, 0, 0, 2371.215087890625
116, 0, 0, 2276.731201171875
117, 0, 0, 2209.851318359375
118, 0, 0, 2138.775146484375
119, 0, 0, 2067.2373046875
120, 0, 0, 2012.712280273438
121, 0, 0, 1955.2373046875
122, 0, 0, 1910.68896484375
123, 0, 0, 1856.276245117188
124, 0, 0, 1828.47998046875
125, 0, 0, 1781.491577148438
126, 0, 0, 1747.009033203125
127, 0, 0, 1723.173217773438
128, 0, 0, 1689.812133789062
129, 0, 0, 1655.102294921875
130, 0, 0, 1635.953369140625
131, 0, 0, 1603.799926757812
132, 0, 0, 1577.975219726562
133, 0, 0, 1555.533203125
134, 0, 0, 1535.690185546875
135, 0, 0, 1511.36962890625
136, 0, 0, 1487.888305664062
137, 0, 0, 1470.4609375
138, 0, 0, 1450.280883789062
139, 0, 0, 1435.786987304688
140, 0, 0, 1424.40283203125
141, 0, 0, 1408.56689453125
142, 0, 0, 1384.71923828125
143, 0, 0, 1376.546630859375
144, 0, 0, 1354.506958007812
145, 0, 0, 1351.477905273438
146, 0, 0, 1335.3408203125
147, 0, 0, 1320.037353515625
148, 0, 0, 1305.57470703125
149, 0, 0, 1296.428588867188
150, 0, 0, 1280.207763671875
151, 0, 0, 1271.157958984375
152, 0, 0, 1252.224731445312
153, 0, 0, 1246.059692382812
154, 0, 0, 1233.499145507812
155, 0, 0, 1230.682250976562
156, 0, 0, 1217.735229492188
157, 0, 0, 1204.775146484375
158, 0, 0, 1199.404907226562
159, 0, 0, 1189.410034179688
160, 0, 0, 1183.002807617188
161, 0, 0, 1172.703857421875
162, 0, 0, 1164.5966796875
163, 0, 0, 1165.782836914062
164, 0, 0, 1146.817993164062
165, 0, 0, 1136.814208984375
166, 0, 0, 1134.537475585938
167, 0, 0, 1131.552124023438
168, 0, 0, 1123.720947265625
169, 0, 0, 1107.864379882812
170, 0, 0, 1113.172973632812
171, 0, 0, 1099.594482421875
172, 0, 0, 1082.419555664062
173, 0, 0, 1087.941772460938
174, 0, 0, 1077.466186523438
175, 0, 0, 1073.578002929688
176, 0, 0, 1072.509521484375
177, 0, 0, 1055.910888671875
178, 0, 0, 1051.332763671875
179, 0, 0, 1047.03271484375
