# TOPAS Version: 3.3.p1
# Parameter File: Test.txt
# Results for scorer MLIC_Scorer
# Scored in component: MLIC
# X in 180 bins of 0.177778 cm
# Y in 1 bin  of 10 cm
# Z in 1 bin  of 10 cm
# EnergyDeposit ( MeV ) : Sum   
0, 0, 0, 0
1, 0, 0, 0
2, 0, 0, 0
3, 0, 0, 0
4, 0, 0, 0
5, 0, 0, 0
6, 0, 0, 0
7, 0, 0, 0
8, 0, 0, 0
9, 0, 0, 0
10, 0, 0, 0
11, 0, 0, 0
12, 0, 0, 0
13, 0, 0, 0
14, 0, 0, 0
15, 0, 0, 0
16, 0, 0, 0
17, 0, 0, 0
18, 0, 0, 0
19, 0, 0, 0
20, 0, 0, 0
21, 0, 0, 0
22, 0, 0, 0
23, 0, 0, 0
24, 0, 0, 0
25, 0, 0, 0
26, 0, 0, 0
27, 0, 0, 0
28, 0, 0, 0
29, 0, 0, 0
30, 0, 0, 0
31, 0, 0, 0
32, 0, 0, 0
33, 0, 0, 0
34, 0, 0, 0
35, 0, 0, 0
36, 0, 0, 0
37, 0, 0, 0
38, 0, 0, 0
39, 0, 0, 0
40, 0, 0, 0
41, 0, 0, 0
42, 0, 0, 0
43, 0, 0, 0
44, 0, 0, 0
45, 0, 0, 0
46, 0, 0, 0.02110440656542778
47, 0, 0, 0
48, 0, 0, 0
49, 0, 0, 0.003796113887801766
50, 0, 0, 0
51, 0, 0, 0
52, 0, 0, 0
53, 0, 0, 0
54, 0, 0, 0
55, 0, 0, 0
56, 0, 0, 0.006854633335024118
57, 0, 0, 0
58, 0, 0, 0
59, 0, 0, 0
60, 0, 0, 0
61, 0, 0, 0
62, 0, 0, 0
63, 0, 0, 0
64, 0, 0, 0
65, 0, 0, 0
66, 0, 0, 0
67, 0, 0, 0
68, 0, 0, 0
69, 0, 0, 0
70, 0, 0, 0
71, 0, 0, 0
72, 0, 0, 0
73, 0, 0, 0
74, 0, 0, 0
75, 0, 0, 0
76, 0, 0, 0
77, 0, 0, 0
78, 0, 0, 0
79, 0, 0, 0
80, 0, 0, 0
81, 0, 0, 0
82, 0, 0, 0
83, 0, 0, 0
84, 0, 0, 0
85, 0, 0, 0
86, 0, 0, 0
87, 0, 0, 0
88, 0, 0, 0
89, 0, 0, 0
90, 0, 0, 0
91, 0, 0, 0
92, 0, 0, 0
93, 0, 0, 0
94, 0, 0, 0
95, 0, 0, 0
96, 0, 0, 0
97, 0, 0, 0
98, 0, 0, 0
99, 0, 0, 0
100, 0, 0, 0
101, 0, 0, 0
102, 0, 0, 0
103, 0, 0, 0.02698544040322304
104, 0, 0, 0
105, 0, 0, 0
106, 0, 0, 0
107, 0, 0, 0
108, 0, 0, 0
109, 0, 0, 0
110, 0, 0, 0
111, 0, 0, 0
112, 0, 0, 0
113, 0, 0, 0
114, 0, 0, 0
115, 0, 0, 0
116, 0, 0, 0
117, 0, 0, 0
118, 0, 0, 0
119, 0, 0, 0.03397608548402786
120, 0, 0, 0
121, 0, 0, 0
122, 0, 0, 0
123, 0, 0, 0
124, 0, 0, 0
125, 0, 0, 0
126, 0, 0, 0
127, 0, 0, 0.003590599866583943
128, 0, 0, 0.03340344876050949
129, 0, 0, 0
130, 0, 0, 0
131, 0, 0, 0
132, 0, 0, 0
133, 0, 0, 0.02177034690976143
134, 0, 0, 0.002043446991592646
135, 0, 0, 0
136, 0, 0, 0.001452353317290545
137, 0, 0, 3.425119575695135e-05
138, 0, 0, 5.011761665344238
139, 0, 0, 8.632031440734863
140, 0, 0, 46.30434036254883
141, 0, 0, 271.6310729980469
142, 0, 0, 1117.359741210938
143, 0, 0, 2079.973876953125
144, 0, 0, 3414.71484375
145, 0, 0, 4716.1865234375
146, 0, 0, 5046.57861328125
147, 0, 0, 4819.1767578125
148, 0, 0, 4259.205078125
149, 0, 0, 3708.265380859375
150, 0, 0, 3354.585693359375
151, 0, 0, 3054.275390625
152, 0, 0, 2845.3798828125
153, 0, 0, 2665.285400390625
154, 0, 0, 2526.468017578125
155, 0, 0, 2410.637939453125
156, 0, 0, 2318.77197265625
157, 0, 0, 2225.556640625
158, 0, 0, 2147.742431640625
159, 0, 0, 2083.084716796875
160, 0, 0, 2024.182983398438
161, 0, 0, 1961.251953125
162, 0, 0, 1910.197509765625
163, 0, 0, 1868.238647460938
164, 0, 0, 1825.646362304688
165, 0, 0, 1785.67626953125
166, 0, 0, 1742.826049804688
167, 0, 0, 1712.4150390625
168, 0, 0, 1683.621704101562
169, 0, 0, 1654.539916992188
170, 0, 0, 1618.818359375
171, 0, 0, 1602.266967773438
172, 0, 0, 1566.3935546875
173, 0, 0, 1542.109130859375
174, 0, 0, 1526.477661132812
175, 0, 0, 1504.660522460938
176, 0, 0, 1479.3017578125
177, 0, 0, 1462.441040039062
178, 0, 0, 1449.09521484375
179, 0, 0, 1421.8662109375
