# TOPAS Version: 3.3.p1
# Parameter File: Test.txt
# Results for scorer MLIC_Scorer
# Scored in component: MLIC
# X in 180 bins of 0.177778 cm
# Y in 1 bin  of 10 cm
# Z in 1 bin  of 10 cm
# EnergyDeposit ( MeV ) : Sum   
0, 0, 0, 0
1, 0, 0, 0
2, 0, 0, 0
3, 0, 0, 0
4, 0, 0, 0
5, 0, 0, 0
6, 0, 0, 0
7, 0, 0, 0
8, 0, 0, 0
9, 0, 0, 0
10, 0, 0, 0
11, 0, 0, 0
12, 0, 0, 0
13, 0, 0, 0
14, 0, 0, 0
15, 0, 0, 0
16, 0, 0, 0
17, 0, 0, 0
18, 0, 0, 0
19, 0, 0, 0
20, 0, 0, 0
21, 0, 0, 0.001721799955703318
22, 0, 0, 0
23, 0, 0, 0
24, 0, 0, 0
25, 0, 0, 0
26, 0, 0, 0
27, 0, 0, 0
28, 0, 0, 0
29, 0, 0, 0
30, 0, 0, 0
31, 0, 0, 0
32, 0, 0, 0
33, 0, 0, 0
34, 0, 0, 0
35, 0, 0, 0
36, 0, 0, 0.02056690119206905
37, 0, 0, 0
38, 0, 0, 0
39, 0, 0, 17.35444450378418
40, 0, 0, 90.12181854248047
41, 0, 0, 308.4052734375
42, 0, 0, 925.6207275390625
43, 0, 0, 2132.554443359375
44, 0, 0, 3407.286865234375
45, 0, 0, 4756.54541015625
46, 0, 0, 5019.35009765625
47, 0, 0, 4815.43017578125
48, 0, 0, 4329.94091796875
49, 0, 0, 3723.0517578125
50, 0, 0, 3340.966064453125
51, 0, 0, 3040.37646484375
52, 0, 0, 2832.85302734375
53, 0, 0, 2661.287353515625
54, 0, 0, 2522.35107421875
55, 0, 0, 2411.33447265625
56, 0, 0, 2323.50048828125
57, 0, 0, 2222.5888671875
58, 0, 0, 2155.743408203125
59, 0, 0, 2080.89453125
60, 0, 0, 2021.037231445312
61, 0, 0, 1960.515014648438
62, 0, 0, 1912.896728515625
63, 0, 0, 1865.255737304688
64, 0, 0, 1824.582763671875
65, 0, 0, 1786.328247070312
66, 0, 0, 1752.307006835938
67, 0, 0, 1713.070068359375
68, 0, 0, 1679.460815429688
69, 0, 0, 1654.81103515625
70, 0, 0, 1622.5517578125
71, 0, 0, 1597.42138671875
72, 0, 0, 1570.873291015625
73, 0, 0, 1541.625244140625
74, 0, 0, 1516.773315429688
75, 0, 0, 1507.109008789062
76, 0, 0, 1473.72412109375
77, 0, 0, 1456.90673828125
78, 0, 0, 1447.45166015625
79, 0, 0, 1427.742553710938
80, 0, 0, 1408.704467773438
81, 0, 0, 1390.434326171875
82, 0, 0, 1381.2919921875
83, 0, 0, 1355.247436523438
84, 0, 0, 1342.745361328125
85, 0, 0, 1323.747314453125
86, 0, 0, 1319.085327148438
87, 0, 0, 1308.145263671875
88, 0, 0, 1284.920654296875
89, 0, 0, 1279.03564453125
90, 0, 0, 1262.255737304688
91, 0, 0, 1265.244140625
92, 0, 0, 1246.912353515625
93, 0, 0, 1233.603637695312
94, 0, 0, 1227.323486328125
95, 0, 0, 1208.01318359375
96, 0, 0, 1204.597045898438
97, 0, 0, 1194.030395507812
98, 0, 0, 1183.616821289062
99, 0, 0, 1180.363159179688
100, 0, 0, 1167.820922851562
101, 0, 0, 1156.557739257812
102, 0, 0, 1144.662231445312
103, 0, 0, 1141.216552734375
104, 0, 0, 1128.282592773438
105, 0, 0, 1121.979370117188
106, 0, 0, 1116.884399414062
107, 0, 0, 1106.63330078125
108, 0, 0, 1105.04931640625
109, 0, 0, 1092.369506835938
110, 0, 0, 1088.364990234375
111, 0, 0, 1083.915771484375
112, 0, 0, 1075.144165039062
113, 0, 0, 1069.926391601562
114, 0, 0, 1067.733520507812
115, 0, 0, 1057.07666015625
116, 0, 0, 1054.171142578125
117, 0, 0, 1048.491943359375
118, 0, 0, 1042.98095703125
119, 0, 0, 1026.64697265625
120, 0, 0, 1036.698364257812
121, 0, 0, 1026.2080078125
122, 0, 0, 1023.118591308594
123, 0, 0, 1015.527587890625
124, 0, 0, 1000.711120605469
125, 0, 0, 999.8229370117188
126, 0, 0, 1003.017150878906
127, 0, 0, 993.8519287109375
128, 0, 0, 982.5416259765625
129, 0, 0, 977.46142578125
130, 0, 0, 979.5988159179688
131, 0, 0, 970.0651245117188
132, 0, 0, 971.1229858398438
133, 0, 0, 967.951171875
134, 0, 0, 961.9268798828125
135, 0, 0, 968.7874145507812
136, 0, 0, 957.0406494140625
137, 0, 0, 947.8604125976562
138, 0, 0, 948.7703247070312
139, 0, 0, 947.4932861328125
140, 0, 0, 944.8247680664062
141, 0, 0, 928.130615234375
142, 0, 0, 931.4681396484375
143, 0, 0, 924.353759765625
144, 0, 0, 922.0130615234375
145, 0, 0, 920.3936767578125
146, 0, 0, 916.7396240234375
147, 0, 0, 914.7369384765625
148, 0, 0, 907.0025024414062
149, 0, 0, 912.5818481445312
150, 0, 0, 907.27392578125
151, 0, 0, 900.1084594726562
152, 0, 0, 895.5453491210938
153, 0, 0, 890.584716796875
154, 0, 0, 886.4368896484375
155, 0, 0, 882.5576782226562
156, 0, 0, 883.1222534179688
157, 0, 0, 874.0972290039062
158, 0, 0, 868.5562744140625
159, 0, 0, 868.8854370117188
160, 0, 0, 864.2189331054688
161, 0, 0, 875.2323608398438
162, 0, 0, 865.874267578125
163, 0, 0, 859.2144165039062
164, 0, 0, 863.2328491210938
165, 0, 0, 859.0756225585938
166, 0, 0, 856.8729248046875
167, 0, 0, 850.6718139648438
168, 0, 0, 856.5108032226562
169, 0, 0, 839.7310180664062
170, 0, 0, 836.5772094726562
171, 0, 0, 847.2633056640625
172, 0, 0, 830.6353759765625
173, 0, 0, 834.0344848632812
174, 0, 0, 833.462158203125
175, 0, 0, 838.0325317382812
176, 0, 0, 830.9422607421875
177, 0, 0, 834.1892700195312
178, 0, 0, 829.5179443359375
179, 0, 0, 820.255859375
