# TOPAS Version: 3.3.p1
# Parameter File: Test.txt
# Results for scorer MLIC_Scorer
# Scored in component: MLIC
# X in 180 bins of 0.177778 cm
# Y in 1 bin  of 10 cm
# Z in 1 bin  of 10 cm
# EnergyDeposit ( MeV ) : Sum   
0, 0, 0, 0
1, 0, 0, 0
2, 0, 0, 0
3, 0, 0, 0
4, 0, 0, 0
5, 0, 0, 0
6, 0, 0, 0
7, 0, 0, 0
8, 0, 0, 0
9, 0, 0, 0
10, 0, 0, 1.83826470375061
11, 0, 0, 14.24606323242188
12, 0, 0, 43.35954666137695
13, 0, 0, 172.0960998535156
14, 0, 0, 546.07080078125
15, 0, 0, 1584.431762695312
16, 0, 0, 2907.299072265625
17, 0, 0, 4502.34765625
18, 0, 0, 5077.4296875
19, 0, 0, 4891.9208984375
20, 0, 0, 4481.7626953125
21, 0, 0, 3907.32763671875
22, 0, 0, 3475.98876953125
23, 0, 0, 3149.617431640625
24, 0, 0, 2905.6240234375
25, 0, 0, 2720.5029296875
26, 0, 0, 2575.437744140625
27, 0, 0, 2453.14990234375
28, 0, 0, 2336.9130859375
29, 0, 0, 2259.0029296875
30, 0, 0, 2178.59814453125
31, 0, 0, 2102.351806640625
32, 0, 0, 2039.244873046875
33, 0, 0, 1980.562255859375
34, 0, 0, 1939.232543945312
35, 0, 0, 1891.133178710938
36, 0, 0, 1839.809692382812
37, 0, 0, 1802.447387695312
38, 0, 0, 1761.584350585938
39, 0, 0, 1715.621704101562
40, 0, 0, 1693.43212890625
41, 0, 0, 1663.60498046875
42, 0, 0, 1634.800048828125
43, 0, 0, 1598.284912109375
44, 0, 0, 1587.732421875
45, 0, 0, 1560.759399414062
46, 0, 0, 1528.267211914062
47, 0, 0, 1507.442993164062
48, 0, 0, 1495.18017578125
49, 0, 0, 1463.143920898438
50, 0, 0, 1455.762573242188
51, 0, 0, 1439.489013671875
52, 0, 0, 1407.541748046875
53, 0, 0, 1398.930541992188
54, 0, 0, 1388.047119140625
55, 0, 0, 1371.480712890625
56, 0, 0, 1349.551025390625
57, 0, 0, 1337.436279296875
58, 0, 0, 1320.392700195312
59, 0, 0, 1304.852661132812
60, 0, 0, 1298.005737304688
61, 0, 0, 1284.602294921875
62, 0, 0, 1266.235961914062
63, 0, 0, 1255.603759765625
64, 0, 0, 1248.548706054688
65, 0, 0, 1231.639404296875
66, 0, 0, 1222.033447265625
67, 0, 0, 1214.446899414062
68, 0, 0, 1207.373901367188
69, 0, 0, 1194.97314453125
70, 0, 0, 1196.556762695312
71, 0, 0, 1173.699462890625
72, 0, 0, 1171.40576171875
73, 0, 0, 1160.060668945312
74, 0, 0, 1149.910522460938
75, 0, 0, 1140.92041015625
76, 0, 0, 1140.724365234375
77, 0, 0, 1130.762084960938
78, 0, 0, 1119.677368164062
79, 0, 0, 1112.6806640625
80, 0, 0, 1109.498901367188
81, 0, 0, 1101.680541992188
82, 0, 0, 1091.458862304688
83, 0, 0, 1092.08154296875
84, 0, 0, 1073.304443359375
85, 0, 0, 1074.3271484375
86, 0, 0, 1065.129760742188
87, 0, 0, 1062.436767578125
88, 0, 0, 1055.4658203125
89, 0, 0, 1045.969482421875
90, 0, 0, 1046.964965820312
91, 0, 0, 1035.895141601562
92, 0, 0, 1033.29833984375
93, 0, 0, 1018.154418945312
94, 0, 0, 1020.741271972656
95, 0, 0, 1016.105407714844
96, 0, 0, 1007.789611816406
97, 0, 0, 1005.724975585938
98, 0, 0, 1002.75634765625
99, 0, 0, 997.0516357421875
100, 0, 0, 991.4891967773438
101, 0, 0, 977.5269165039062
102, 0, 0, 986.5445556640625
103, 0, 0, 977.1812744140625
104, 0, 0, 975.365966796875
105, 0, 0, 973.3074951171875
106, 0, 0, 958.3765258789062
107, 0, 0, 963.5206909179688
108, 0, 0, 943.2958984375
109, 0, 0, 953.6494750976562
110, 0, 0, 942.9547729492188
111, 0, 0, 940.04833984375
112, 0, 0, 939.8914184570312
113, 0, 0, 937.927734375
114, 0, 0, 929.8362426757812
115, 0, 0, 930.6689453125
116, 0, 0, 925.4598999023438
117, 0, 0, 922.2073364257812
118, 0, 0, 913.0284423828125
119, 0, 0, 906.85107421875
120, 0, 0, 912.9481811523438
121, 0, 0, 913.8853149414062
122, 0, 0, 896.729248046875
123, 0, 0, 894.7667846679688
124, 0, 0, 897.9330444335938
125, 0, 0, 885.6970825195312
126, 0, 0, 892.763671875
127, 0, 0, 882.4365234375
128, 0, 0, 879.9492797851562
129, 0, 0, 879.60107421875
130, 0, 0, 872.5745849609375
131, 0, 0, 876.0756225585938
132, 0, 0, 863.2193603515625
133, 0, 0, 865.7116088867188
134, 0, 0, 868.3016967773438
135, 0, 0, 858.8702392578125
136, 0, 0, 862.9693603515625
137, 0, 0, 856.542724609375
138, 0, 0, 855.3506469726562
139, 0, 0, 854.802978515625
140, 0, 0, 845.510498046875
141, 0, 0, 847.625
142, 0, 0, 841.1107788085938
143, 0, 0, 847.3715209960938
144, 0, 0, 841.461181640625
145, 0, 0, 832.9386596679688
146, 0, 0, 831.18896484375
147, 0, 0, 832.1388549804688
148, 0, 0, 827.1978759765625
149, 0, 0, 814.4893188476562
150, 0, 0, 830.5226440429688
151, 0, 0, 823.8343505859375
152, 0, 0, 816.1340942382812
153, 0, 0, 809.0988159179688
154, 0, 0, 821.550537109375
155, 0, 0, 817.0276489257812
156, 0, 0, 812.5809326171875
157, 0, 0, 804.9238891601562
158, 0, 0, 813.8614501953125
159, 0, 0, 809.43701171875
160, 0, 0, 801.2918701171875
161, 0, 0, 793.5130004882812
162, 0, 0, 801.5626220703125
163, 0, 0, 800.75439453125
164, 0, 0, 802.5624389648438
165, 0, 0, 783.4393310546875
166, 0, 0, 788.8721923828125
167, 0, 0, 789.5658569335938
168, 0, 0, 783.8578491210938
169, 0, 0, 782.624267578125
170, 0, 0, 783.341796875
171, 0, 0, 777.0859985351562
172, 0, 0, 775.5059814453125
173, 0, 0, 778.9483642578125
174, 0, 0, 771.5621948242188
175, 0, 0, 781.7718505859375
176, 0, 0, 773.5220947265625
177, 0, 0, 764.6544189453125
178, 0, 0, 764.5009765625
179, 0, 0, 769.017333984375
