# TOPAS Version: 3.3.p1
# Parameter File: Test.txt
# Results for scorer MLIC_Scorer
# Scored in component: MLIC
# X in 180 bins of 0.222222 cm
# Y in 1 bin  of 10 cm
# Z in 1 bin  of 10 cm
# EnergyDeposit ( MeV ) : Sum   
0, 0, 0, 0
1, 0, 0, 0
2, 0, 0, 0
3, 0, 0, 0
4, 0, 0, 0
5, 0, 0, 0
6, 0, 0, 0
7, 0, 0, 0
8, 0, 0, 0
9, 0, 0, 0
10, 0, 0, 0
11, 0, 0, 0
12, 0, 0, 0
13, 0, 0, 0
14, 0, 0, 0
15, 0, 0, 0
16, 0, 0, 0
17, 0, 0, 0
18, 0, 0, 0
19, 0, 0, 0
20, 0, 0, 0
21, 0, 0, 0
22, 0, 0, 0
23, 0, 0, 0
24, 0, 0, 0
25, 0, 0, 0
26, 0, 0, 0
27, 0, 0, 0
28, 0, 0, 0
29, 0, 0, 0
30, 0, 0, 0
31, 0, 0, 0
32, 0, 0, 0
33, 0, 0, 0
34, 0, 0, 0
35, 0, 0, 0
36, 0, 0, 0
37, 0, 0, 0
38, 0, 0, 0
39, 0, 0, 0
40, 0, 0, 0
41, 0, 0, 0
42, 0, 0, 0.005984327755868435
43, 0, 0, 0
44, 0, 0, 0
45, 0, 0, 0.04444591328501701
46, 0, 0, 0
47, 0, 0, 0
48, 0, 0, 0.003322080476209521
49, 0, 0, 0
50, 0, 0, 0.002028218703344464
51, 0, 0, 0
52, 0, 0, 0.01228550635278225
53, 0, 0, 0
54, 0, 0, 0
55, 0, 0, 29.59271240234375
56, 0, 0, 123.0673675537109
57, 0, 0, 745.6937866210938
58, 0, 0, 2183.869140625
59, 0, 0, 4407.998046875
60, 0, 0, 6201.78759765625
61, 0, 0, 6155.365234375
62, 0, 0, 5460.8017578125
63, 0, 0, 4653.96484375
64, 0, 0, 4092.736328125
65, 0, 0, 3657.593017578125
66, 0, 0, 3392.257568359375
67, 0, 0, 3160.0615234375
68, 0, 0, 2985.12451171875
69, 0, 0, 2835.21533203125
70, 0, 0, 2713.86669921875
71, 0, 0, 2605.84423828125
72, 0, 0, 2501.290771484375
73, 0, 0, 2424.05908203125
74, 0, 0, 2349.7685546875
75, 0, 0, 2274.677001953125
76, 0, 0, 2221.8388671875
77, 0, 0, 2162.064208984375
78, 0, 0, 2106.631591796875
79, 0, 0, 2071.681640625
80, 0, 0, 2013.152221679688
81, 0, 0, 1979.245361328125
82, 0, 0, 1943.501342773438
83, 0, 0, 1902.6416015625
84, 0, 0, 1873.980712890625
85, 0, 0, 1841.010131835938
86, 0, 0, 1818.23876953125
87, 0, 0, 1779.487426757812
88, 0, 0, 1754.1162109375
89, 0, 0, 1731.6494140625
90, 0, 0, 1706.639770507812
91, 0, 0, 1682.880004882812
92, 0, 0, 1660.544799804688
93, 0, 0, 1644.424682617188
94, 0, 0, 1616.560913085938
95, 0, 0, 1592.670532226562
96, 0, 0, 1573.964233398438
97, 0, 0, 1562.727294921875
98, 0, 0, 1545.711059570312
99, 0, 0, 1533.827026367188
100, 0, 0, 1523.039428710938
101, 0, 0, 1503.087280273438
102, 0, 0, 1484.10791015625
103, 0, 0, 1463.061645507812
104, 0, 0, 1452.7724609375
105, 0, 0, 1447.166381835938
106, 0, 0, 1429.946533203125
107, 0, 0, 1412.316162109375
108, 0, 0, 1401.2822265625
109, 0, 0, 1396.725463867188
110, 0, 0, 1381.046997070312
111, 0, 0, 1363.852783203125
112, 0, 0, 1359.90283203125
113, 0, 0, 1348.093872070312
114, 0, 0, 1347.473266601562
115, 0, 0, 1327.369995117188
116, 0, 0, 1312.779296875
117, 0, 0, 1310.960205078125
118, 0, 0, 1304.96240234375
119, 0, 0, 1290.07861328125
120, 0, 0, 1283.058715820312
121, 0, 0, 1284.882934570312
122, 0, 0, 1263.993408203125
123, 0, 0, 1253.774780273438
124, 0, 0, 1249.756591796875
125, 0, 0, 1244.96630859375
126, 0, 0, 1229.382934570312
127, 0, 0, 1231.123046875
128, 0, 0, 1223.063354492188
129, 0, 0, 1217.137939453125
130, 0, 0, 1198.557739257812
131, 0, 0, 1201.123413085938
132, 0, 0, 1197.207275390625
133, 0, 0, 1184.563842773438
134, 0, 0, 1176.346069335938
135, 0, 0, 1177.747192382812
136, 0, 0, 1168.800415039062
137, 0, 0, 1164.37109375
138, 0, 0, 1157.01416015625
139, 0, 0, 1141.529663085938
140, 0, 0, 1141.175048828125
141, 0, 0, 1143.961303710938
142, 0, 0, 1137.553955078125
143, 0, 0, 1134.494873046875
144, 0, 0, 1128.499389648438
145, 0, 0, 1110.62548828125
146, 0, 0, 1123.083129882812
147, 0, 0, 1107.820922851562
148, 0, 0, 1101.040161132812
149, 0, 0, 1106.029174804688
150, 0, 0, 1088.503784179688
151, 0, 0, 1093.513305664062
152, 0, 0, 1086.641357421875
153, 0, 0, 1078.271118164062
154, 0, 0, 1089.614624023438
155, 0, 0, 1067.097412109375
156, 0, 0, 1069.95166015625
157, 0, 0, 1064.566650390625
158, 0, 0, 1061.830932617188
159, 0, 0, 1063.599609375
160, 0, 0, 1044.057495117188
161, 0, 0, 1054.952880859375
162, 0, 0, 1049.739624023438
163, 0, 0, 1040.279907226562
164, 0, 0, 1034.5771484375
165, 0, 0, 1033.77978515625
166, 0, 0, 1028.685913085938
167, 0, 0, 1021.37158203125
168, 0, 0, 1023.335754394531
169, 0, 0, 1007.507202148438
170, 0, 0, 1008.601501464844
171, 0, 0, 1011.871948242188
172, 0, 0, 1016.130798339844
173, 0, 0, 1004.478332519531
174, 0, 0, 1001.632141113281
175, 0, 0, 1001.686767578125
176, 0, 0, 992.0353393554688
177, 0, 0, 998.9234619140625
178, 0, 0, 993.2464599609375
179, 0, 0, 985.9033813476562
