# TOPAS Version: 3.3.p1
# Parameter File: Test.txt
# Results for scorer MLIC_Scorer
# Scored in component: MLIC
# X in 165 bins of 0.2 cm
# Y in 1 bin  of 10 cm
# Z in 1 bin  of 10 cm
# EnergyDeposit ( MeV ) : Sum   
0, 0, 0, 0
1, 0, 0, 0
2, 0, 0, 0
3, 0, 0, 0
4, 0, 0, 0
5, 0, 0, 0
6, 0, 0, 0
7, 0, 0, 0
8, 0, 0, 0
9, 0, 0, 0
10, 0, 0, 0
11, 0, 0, 0
12, 0, 0, 0
13, 0, 0, 0
14, 0, 0, 0
15, 0, 0, 0
16, 0, 0, 0
17, 0, 0, 0
18, 0, 0, 0
19, 0, 0, 0
20, 0, 0, 0
21, 0, 0, 0
22, 0, 0, 0
23, 0, 0, 0
24, 0, 0, 0.06162304431200027
25, 0, 0, 0
26, 0, 0, 0
27, 0, 0, 0
28, 0, 0, 0
29, 0, 0, 0
30, 0, 0, 0
31, 0, 0, 0
32, 0, 0, 0
33, 0, 0, 6.397671699523926
34, 0, 0, 40.34846878051758
35, 0, 0, 170.7574768066406
36, 0, 0, 598.8958129882812
37, 0, 0, 1589.778564453125
38, 0, 0, 3066.73779296875
39, 0, 0, 4564.9375
40, 0, 0, 5437.57177734375
41, 0, 0, 5404.9931640625
42, 0, 0, 4710.912109375
43, 0, 0, 4206.34326171875
44, 0, 0, 3750.629150390625
45, 0, 0, 3375.314697265625
46, 0, 0, 3126.871826171875
47, 0, 0, 2928.27001953125
48, 0, 0, 2757.4365234375
49, 0, 0, 2629.21337890625
50, 0, 0, 2515.86279296875
51, 0, 0, 2412.063720703125
52, 0, 0, 2333.604248046875
53, 0, 0, 2248.90283203125
54, 0, 0, 2188.582763671875
55, 0, 0, 2122.56298828125
56, 0, 0, 2073.228515625
57, 0, 0, 2013.734008789062
58, 0, 0, 1968.691528320312
59, 0, 0, 1927.267578125
60, 0, 0, 1892.6171875
61, 0, 0, 1841.434692382812
62, 0, 0, 1814.345703125
63, 0, 0, 1783.254760742188
64, 0, 0, 1750.50439453125
65, 0, 0, 1723.715576171875
66, 0, 0, 1692.944702148438
67, 0, 0, 1663.169921875
68, 0, 0, 1639.4306640625
69, 0, 0, 1617.45361328125
70, 0, 0, 1592.948852539062
71, 0, 0, 1575.613037109375
72, 0, 0, 1554.09521484375
73, 0, 0, 1539.088256835938
74, 0, 0, 1508.85546875
75, 0, 0, 1495.064208984375
76, 0, 0, 1475.609008789062
77, 0, 0, 1459.092163085938
78, 0, 0, 1447.465209960938
79, 0, 0, 1425.492919921875
80, 0, 0, 1419.163818359375
81, 0, 0, 1407.528686523438
82, 0, 0, 1397.001708984375
83, 0, 0, 1379.253173828125
84, 0, 0, 1364.27734375
85, 0, 0, 1350.592163085938
86, 0, 0, 1338.618896484375
87, 0, 0, 1329.1474609375
88, 0, 0, 1316.612548828125
89, 0, 0, 1304.206176757812
90, 0, 0, 1289.490478515625
91, 0, 0, 1285.251831054688
92, 0, 0, 1271.703369140625
93, 0, 0, 1260.35205078125
94, 0, 0, 1260.823974609375
95, 0, 0, 1249.457885742188
96, 0, 0, 1237.06396484375
97, 0, 0, 1218.652954101562
98, 0, 0, 1214.248413085938
99, 0, 0, 1204.467895507812
100, 0, 0, 1205.541381835938
101, 0, 0, 1198.932006835938
102, 0, 0, 1187.890380859375
103, 0, 0, 1181.82763671875
104, 0, 0, 1170.548950195312
105, 0, 0, 1160.70703125
106, 0, 0, 1148.745483398438
107, 0, 0, 1146.16259765625
108, 0, 0, 1146.494995117188
109, 0, 0, 1135.635131835938
110, 0, 0, 1127.032836914062
111, 0, 0, 1125.193603515625
112, 0, 0, 1110.116455078125
113, 0, 0, 1114.443725585938
114, 0, 0, 1104.05029296875
115, 0, 0, 1110.00048828125
116, 0, 0, 1098.156982421875
117, 0, 0, 1090.465942382812
118, 0, 0, 1082.62841796875
119, 0, 0, 1077.523071289062
120, 0, 0, 1063.584228515625
121, 0, 0, 1073.105590820312
122, 0, 0, 1059.355102539062
123, 0, 0, 1052.559448242188
124, 0, 0, 1056.738891601562
125, 0, 0, 1047.116943359375
126, 0, 0, 1037.792114257812
127, 0, 0, 1035.393188476562
128, 0, 0, 1035.376220703125
129, 0, 0, 1027.66748046875
130, 0, 0, 1027.279296875
131, 0, 0, 1023.534545898438
132, 0, 0, 1023.428649902344
133, 0, 0, 1010.375
134, 0, 0, 1011.416320800781
135, 0, 0, 1004.592834472656
136, 0, 0, 992.5104370117188
137, 0, 0, 996.2526245117188
138, 0, 0, 991.3621215820312
139, 0, 0, 987.5328979492188
140, 0, 0, 993.9888305664062
141, 0, 0, 975.9883422851562
142, 0, 0, 971.0030517578125
143, 0, 0, 973.7857055664062
144, 0, 0, 960.5389404296875
145, 0, 0, 964.7376708984375
146, 0, 0, 964.0772094726562
147, 0, 0, 955.812255859375
148, 0, 0, 953.2909545898438
149, 0, 0, 952.3927612304688
150, 0, 0, 947.11279296875
151, 0, 0, 940.6275634765625
152, 0, 0, 950.0625
153, 0, 0, 945.2555541992188
154, 0, 0, 934.493408203125
155, 0, 0, 929.4710083007812
156, 0, 0, 938.7333374023438
157, 0, 0, 924.6057739257812
158, 0, 0, 924.0420532226562
159, 0, 0, 924.7709350585938
160, 0, 0, 917.2560424804688
161, 0, 0, 917.556640625
162, 0, 0, 912.247314453125
163, 0, 0, 908.9046630859375
164, 0, 0, 905.1010131835938
