# TOPAS Version: 3.3.p1
# Parameter File: Test.txt
# Results for scorer MLIC_Scorer
# Scored in component: MLIC
# X in 180 bins of 0.183333 cm
# Y in 1 bin  of 10 cm
# Z in 1 bin  of 10 cm
# EnergyDeposit ( MeV ) : Sum   
0, 0, 0, 0
1, 0, 0, 0
2, 0, 0, 0
3, 0, 0, 0
4, 0, 0, 0
5, 0, 0, 0
6, 0, 0, 0
7, 0, 0, 0
8, 0, 0, 0
9, 0, 0, 0
10, 0, 0, 0
11, 0, 0, 0
12, 0, 0, 0
13, 0, 0, 0
14, 0, 0, 0
15, 0, 0, 0
16, 0, 0, 0
17, 0, 0, 0
18, 0, 0, 0
19, 0, 0, 0
20, 0, 0, 0
21, 0, 0, 0
22, 0, 0, 0
23, 0, 0, 0
24, 0, 0, 0
25, 0, 0, 0
26, 0, 0, 0
27, 0, 0, 0
28, 0, 0, 0
29, 0, 0, 0
30, 0, 0, 0
31, 0, 0, 0
32, 0, 0, 0
33, 0, 0, 0
34, 0, 0, 0
35, 0, 0, 0
36, 0, 0, 0
37, 0, 0, 0
38, 0, 0, 0
39, 0, 0, 0
40, 0, 0, 0
41, 0, 0, 0
42, 0, 0, 0
43, 0, 0, 0
44, 0, 0, 0
45, 0, 0, 0
46, 0, 0, 0.001119713997468352
47, 0, 0, 0
48, 0, 0, 0.02393230050802231
49, 0, 0, 0
50, 0, 0, 0
51, 0, 0, 0
52, 0, 0, 27.0866584777832
53, 0, 0, 158.3385620117188
54, 0, 0, 576.7189331054688
55, 0, 0, 1488.274658203125
56, 0, 0, 3207.81298828125
57, 0, 0, 4546.32763671875
58, 0, 0, 5201.91748046875
59, 0, 0, 5051.13916015625
60, 0, 0, 4444.97021484375
61, 0, 0, 3968.824462890625
62, 0, 0, 3542.521484375
63, 0, 0, 3199.559814453125
64, 0, 0, 2947.616943359375
65, 0, 0, 2763.2255859375
66, 0, 0, 2613.052734375
67, 0, 0, 2485.8642578125
68, 0, 0, 2386.08740234375
69, 0, 0, 2294.801513671875
70, 0, 0, 2214.206787109375
71, 0, 0, 2137.48046875
72, 0, 0, 2075.431396484375
73, 0, 0, 2012.94140625
74, 0, 0, 1967.79248046875
75, 0, 0, 1919.257446289062
76, 0, 0, 1873.416381835938
77, 0, 0, 1826.6796875
78, 0, 0, 1787.378173828125
79, 0, 0, 1760.98681640625
80, 0, 0, 1718.759521484375
81, 0, 0, 1687.63232421875
82, 0, 0, 1653.951293945312
83, 0, 0, 1635.512084960938
84, 0, 0, 1602.01611328125
85, 0, 0, 1582.361694335938
86, 0, 0, 1552.84423828125
87, 0, 0, 1533.2314453125
88, 0, 0, 1512.065063476562
89, 0, 0, 1490.090942382812
90, 0, 0, 1474.030639648438
91, 0, 0, 1461.106201171875
92, 0, 0, 1433.060180664062
93, 0, 0, 1416.025024414062
94, 0, 0, 1402.189819335938
95, 0, 0, 1389.915649414062
96, 0, 0, 1374.359619140625
97, 0, 0, 1372.371948242188
98, 0, 0, 1334.348510742188
99, 0, 0, 1332.854125976562
100, 0, 0, 1318.50146484375
101, 0, 0, 1306.451416015625
102, 0, 0, 1293.475463867188
103, 0, 0, 1281.512573242188
104, 0, 0, 1269.828735351562
105, 0, 0, 1260.813598632812
106, 0, 0, 1247.481079101562
107, 0, 0, 1240.967895507812
108, 0, 0, 1229.233764648438
109, 0, 0, 1216.8876953125
110, 0, 0, 1211.368896484375
111, 0, 0, 1202.791015625
112, 0, 0, 1197.171875
113, 0, 0, 1181.927978515625
114, 0, 0, 1180.754150390625
115, 0, 0, 1158.369873046875
116, 0, 0, 1150.0029296875
117, 0, 0, 1147.590698242188
118, 0, 0, 1149.500732421875
119, 0, 0, 1131.92724609375
120, 0, 0, 1122.587768554688
121, 0, 0, 1122.928955078125
122, 0, 0, 1113.983154296875
123, 0, 0, 1099.37890625
124, 0, 0, 1099.502807617188
125, 0, 0, 1082.743041992188
126, 0, 0, 1090.7001953125
127, 0, 0, 1079.19189453125
128, 0, 0, 1072.438720703125
129, 0, 0, 1066.2919921875
130, 0, 0, 1057.312255859375
131, 0, 0, 1056.087280273438
132, 0, 0, 1054.589477539062
133, 0, 0, 1050.69287109375
134, 0, 0, 1044.243041992188
135, 0, 0, 1035.7802734375
136, 0, 0, 1026.7001953125
137, 0, 0, 1018.733337402344
138, 0, 0, 1024.739135742188
139, 0, 0, 1012.261901855469
140, 0, 0, 1005.818298339844
141, 0, 0, 1007.46630859375
142, 0, 0, 1003.223083496094
143, 0, 0, 999.4903564453125
144, 0, 0, 987.4981689453125
145, 0, 0, 982.9199829101562
146, 0, 0, 991.2626342773438
147, 0, 0, 981.2361450195312
148, 0, 0, 970.6412963867188
149, 0, 0, 964.7606811523438
150, 0, 0, 963.5316162109375
151, 0, 0, 963.8742065429688
152, 0, 0, 962.8626098632812
153, 0, 0, 953.9971923828125
154, 0, 0, 949.4855346679688
155, 0, 0, 948.5146484375
156, 0, 0, 940.45654296875
157, 0, 0, 941.7177124023438
158, 0, 0, 938.020263671875
159, 0, 0, 932.2284545898438
160, 0, 0, 924.823486328125
161, 0, 0, 922.2898559570312
162, 0, 0, 909.79345703125
163, 0, 0, 918.482666015625
164, 0, 0, 918.2772827148438
165, 0, 0, 902.860595703125
166, 0, 0, 908.3359985351562
167, 0, 0, 901.692138671875
168, 0, 0, 904.5192260742188
169, 0, 0, 899.5011596679688
170, 0, 0, 893.740966796875
171, 0, 0, 894.3585205078125
172, 0, 0, 888.0220336914062
173, 0, 0, 889.4959106445312
174, 0, 0, 886.4766845703125
175, 0, 0, 877.631103515625
176, 0, 0, 878.5158081054688
177, 0, 0, 868.2586669921875
178, 0, 0, 869.8643798828125
179, 0, 0, 868.1703491210938
