# TOPAS Version: 3.3.p1
# Parameter File: Test.txt
# Results for scorer MLIC_Scorer
# Scored in component: MLIC
# X in 180 bins of 0.183333 cm
# Y in 1 bin  of 10 cm
# Z in 1 bin  of 10 cm
# EnergyDeposit ( MeV ) : Sum   
0, 0, 0, 0
1, 0, 0, 0
2, 0, 0, 0
3, 0, 0, 0
4, 0, 0, 0
5, 0, 0, 0
6, 0, 0, 0
7, 0, 0, 0
8, 0, 0, 0
9, 0, 0, 0
10, 0, 0, 0
11, 0, 0, 0
12, 0, 0, 0
13, 0, 0, 0
14, 0, 0, 0
15, 0, 0, 0
16, 0, 0, 0
17, 0, 0, 0
18, 0, 0, 0
19, 0, 0, 0
20, 0, 0, 0
21, 0, 0, 0
22, 0, 0, 0
23, 0, 0, 0
24, 0, 0, 0
25, 0, 0, 0
26, 0, 0, 0
27, 0, 0, 0
28, 0, 0, 0
29, 0, 0, 0
30, 0, 0, 0
31, 0, 0, 0
32, 0, 0, 0
33, 0, 0, 0
34, 0, 0, 0
35, 0, 0, 0
36, 0, 0, 0
37, 0, 0, 0
38, 0, 0, 0
39, 0, 0, 0
40, 0, 0, 0
41, 0, 0, 0
42, 0, 0, 0
43, 0, 0, 0
44, 0, 0, 0
45, 0, 0, 0
46, 0, 0, 0
47, 0, 0, 0
48, 0, 0, 0
49, 0, 0, 0
50, 0, 0, 0
51, 0, 0, 0
52, 0, 0, 0
53, 0, 0, 0
54, 0, 0, 0
55, 0, 0, 0
56, 0, 0, 0
57, 0, 0, 0
58, 0, 0, 0
59, 0, 0, 0
60, 0, 0, 0
61, 0, 0, 0
62, 0, 0, 0
63, 0, 0, 0
64, 0, 0, 0
65, 0, 0, 0
66, 0, 0, 0
67, 0, 0, 0
68, 0, 0, 0
69, 0, 0, 0
70, 0, 0, 0
71, 0, 0, 0
72, 0, 0, 0
73, 0, 0, 0
74, 0, 0, 0
75, 0, 0, 0
76, 0, 0, 0
77, 0, 0, 0
78, 0, 0, 0
79, 0, 0, 0.02819274738430977
80, 0, 0, 0
81, 0, 0, 0
82, 0, 0, 0
83, 0, 0, 0
84, 0, 0, 0
85, 0, 0, 0
86, 0, 0, 0
87, 0, 0, 0
88, 0, 0, 0
89, 0, 0, 0
90, 0, 0, 2.841261812136509e-05
91, 0, 0, 0
92, 0, 0, 0
93, 0, 0, 0
94, 0, 0, 0
95, 0, 0, 0
96, 0, 0, 0
97, 0, 0, 0
98, 0, 0, 0
99, 0, 0, 0
100, 0, 0, 0
101, 0, 0, 0
102, 0, 0, 0
103, 0, 0, 0.00365184317342937
104, 0, 0, 0
105, 0, 0, 0
106, 0, 0, 0
107, 0, 0, 0.03810727223753929
108, 0, 0, 0
109, 0, 0, 0
110, 0, 0, 0
111, 0, 0, 0
112, 0, 0, 2.434590578079224
113, 0, 0, 41.38162612915039
114, 0, 0, 160.0641479492188
115, 0, 0, 594.3063354492188
116, 0, 0, 1576.950073242188
117, 0, 0, 3116.154052734375
118, 0, 0, 4424.78662109375
119, 0, 0, 5132.75927734375
120, 0, 0, 5017.486328125
121, 0, 0, 4642.5869140625
122, 0, 0, 3989.1123046875
123, 0, 0, 3532.100830078125
124, 0, 0, 3193.159912109375
125, 0, 0, 2953.58203125
126, 0, 0, 2763.3505859375
127, 0, 0, 2616.583251953125
128, 0, 0, 2496.341064453125
129, 0, 0, 2385.049072265625
130, 0, 0, 2298.888916015625
131, 0, 0, 2210.16845703125
132, 0, 0, 2135.73193359375
133, 0, 0, 2084.100341796875
134, 0, 0, 2016.013061523438
135, 0, 0, 1964.045654296875
136, 0, 0, 1918.248291015625
137, 0, 0, 1872.343383789062
138, 0, 0, 1821.025634765625
139, 0, 0, 1787.066528320312
140, 0, 0, 1747.963256835938
141, 0, 0, 1718.422729492188
142, 0, 0, 1688.874755859375
143, 0, 0, 1663.179565429688
144, 0, 0, 1641.34375
145, 0, 0, 1611.972534179688
146, 0, 0, 1587.997192382812
147, 0, 0, 1564.712280273438
148, 0, 0, 1534.000854492188
149, 0, 0, 1515.636962890625
150, 0, 0, 1499.369995117188
151, 0, 0, 1482.119018554688
152, 0, 0, 1455.80810546875
153, 0, 0, 1438.701293945312
154, 0, 0, 1423.785278320312
155, 0, 0, 1407.087890625
156, 0, 0, 1386.03857421875
157, 0, 0, 1373.709594726562
158, 0, 0, 1361.500244140625
159, 0, 0, 1345.781616210938
160, 0, 0, 1329.451538085938
161, 0, 0, 1312.463012695312
162, 0, 0, 1304.461059570312
163, 0, 0, 1309.560302734375
164, 0, 0, 1279.2373046875
165, 0, 0, 1271.179077148438
166, 0, 0, 1259.740478515625
167, 0, 0, 1243.25244140625
168, 0, 0, 1239.566528320312
169, 0, 0, 1227.04736328125
170, 0, 0, 1219.904418945312
171, 0, 0, 1204.95361328125
172, 0, 0, 1203.326782226562
173, 0, 0, 1191.075561523438
174, 0, 0, 1176.851440429688
175, 0, 0, 1173.889770507812
176, 0, 0, 1163.793212890625
177, 0, 0, 1155.384887695312
178, 0, 0, 1147.647583007812
179, 0, 0, 1138.739990234375
