# TOPAS Version: 3.3.p1
# Parameter File: Test.txt
# Results for scorer MLIC_Scorer
# Scored in component: MLIC
# X in 180 bins of 0.177778 cm
# Y in 1 bin  of 10 cm
# Z in 1 bin  of 10 cm
# EnergyDeposit ( MeV ) : Sum   
0, 0, 0, 0
1, 0, 0, 0
2, 0, 0, 0
3, 0, 0, 0
4, 0, 0, 0
5, 0, 0, 0
6, 0, 0, 0
7, 0, 0, 0
8, 0, 0, 0
9, 0, 0, 0
10, 0, 0, 0
11, 0, 0, 0
12, 0, 0, 0
13, 0, 0, 0
14, 0, 0, 0
15, 0, 0, 0
16, 0, 0, 0
17, 0, 0, 0
18, 0, 0, 0
19, 0, 0, 0
20, 0, 0, 0
21, 0, 0, 0
22, 0, 0, 0
23, 0, 0, 0
24, 0, 0, 0
25, 0, 0, 0
26, 0, 0, 0
27, 0, 0, 0
28, 0, 0, 0
29, 0, 0, 0
30, 0, 0, 0
31, 0, 0, 0
32, 0, 0, 0
33, 0, 0, 0
34, 0, 0, 0
35, 0, 0, 0
36, 0, 0, 0
37, 0, 0, 0
38, 0, 0, 0
39, 0, 0, 0
40, 0, 0, 0
41, 0, 0, 0
42, 0, 0, 0
43, 0, 0, 0
44, 0, 0, 0
45, 0, 0, 0
46, 0, 0, 0
47, 0, 0, 0
48, 0, 0, 0
49, 0, 0, 0
50, 0, 0, 0
51, 0, 0, 0
52, 0, 0, 0
53, 0, 0, 0
54, 0, 0, 0
55, 0, 0, 0
56, 0, 0, 0
57, 0, 0, 0
58, 0, 0, 0
59, 0, 0, 0
60, 0, 0, 0
61, 0, 0, 0
62, 0, 0, 0
63, 0, 0, 0
64, 0, 0, 0
65, 0, 0, 0
66, 0, 0, 0
67, 0, 0, 0
68, 0, 0, 0
69, 0, 0, 0
70, 0, 0, 0
71, 0, 0, 0
72, 0, 0, 0
73, 0, 0, 0
74, 0, 0, 0
75, 0, 0, 0
76, 0, 0, 0
77, 0, 0, 0
78, 0, 0, 0
79, 0, 0, 0
80, 0, 0, 0
81, 0, 0, 0
82, 0, 0, 0
83, 0, 0, 0
84, 0, 0, 0
85, 0, 0, 0
86, 0, 0, 0
87, 0, 0, 0
88, 0, 0, 0
89, 0, 0, 0
90, 0, 0, 0
91, 0, 0, 0
92, 0, 0, 0
93, 0, 0, 0
94, 0, 0, 0
95, 0, 0, 0
96, 0, 0, 0
97, 0, 0, 0
98, 0, 0, 0
99, 0, 0, 0
100, 0, 0, 5.723745822906494
101, 0, 0, 55.58157348632812
102, 0, 0, 211.3791046142578
103, 0, 0, 644.4747314453125
104, 0, 0, 1949.52783203125
105, 0, 0, 3303.39306640625
106, 0, 0, 4355.6982421875
107, 0, 0, 4944.9423828125
108, 0, 0, 5001.3076171875
109, 0, 0, 4328.443359375
110, 0, 0, 3844.99462890625
111, 0, 0, 3411.3701171875
112, 0, 0, 3105.917236328125
113, 0, 0, 2883.127197265625
114, 0, 0, 2693.13427734375
115, 0, 0, 2559.8564453125
116, 0, 0, 2436.725830078125
117, 0, 0, 2328.978515625
118, 0, 0, 2242.445556640625
119, 0, 0, 2162.73486328125
120, 0, 0, 2089.409423828125
121, 0, 0, 2023.2060546875
122, 0, 0, 1970.472900390625
123, 0, 0, 1919.40283203125
124, 0, 0, 1873.1904296875
125, 0, 0, 1828.733520507812
126, 0, 0, 1787.874389648438
127, 0, 0, 1756.017944335938
128, 0, 0, 1714.208984375
129, 0, 0, 1681.102661132812
130, 0, 0, 1655.766967773438
131, 0, 0, 1627.034545898438
132, 0, 0, 1593.798950195312
133, 0, 0, 1574.832397460938
134, 0, 0, 1545.455810546875
135, 0, 0, 1528.60888671875
136, 0, 0, 1501.058349609375
137, 0, 0, 1489.080932617188
138, 0, 0, 1470.740966796875
139, 0, 0, 1446.64892578125
140, 0, 0, 1426.62841796875
141, 0, 0, 1407.401123046875
142, 0, 0, 1392.652099609375
143, 0, 0, 1373.211547851562
144, 0, 0, 1365.462890625
145, 0, 0, 1345.286254882812
146, 0, 0, 1333.394775390625
147, 0, 0, 1317.630981445312
148, 0, 0, 1298.202392578125
149, 0, 0, 1287.073974609375
150, 0, 0, 1269.057250976562
151, 0, 0, 1270.631591796875
152, 0, 0, 1254.54638671875
153, 0, 0, 1249.416381835938
154, 0, 0, 1228.819091796875
155, 0, 0, 1224.819213867188
156, 0, 0, 1211.770385742188
157, 0, 0, 1203.857788085938
158, 0, 0, 1189.857421875
159, 0, 0, 1187.179809570312
160, 0, 0, 1176.746704101562
161, 0, 0, 1162.257446289062
162, 0, 0, 1148.533203125
163, 0, 0, 1150.701293945312
164, 0, 0, 1141.935180664062
165, 0, 0, 1134.629516601562
166, 0, 0, 1127.12451171875
167, 0, 0, 1115.658203125
168, 0, 0, 1113.522338867188
169, 0, 0, 1106.816284179688
170, 0, 0, 1097.644897460938
171, 0, 0, 1099.609252929688
172, 0, 0, 1079.831665039062
173, 0, 0, 1079.131958007812
174, 0, 0, 1071.876586914062
175, 0, 0, 1061.959594726562
176, 0, 0, 1055.778198242188
177, 0, 0, 1047.899169921875
178, 0, 0, 1040.259887695312
179, 0, 0, 1043.766845703125
