# TOPAS Version: 3.3.p1
# Parameter File: Test.txt
# Results for scorer MLIC_Scorer
# Scored in component: MLIC
# X in 180 bins of 0.177778 cm
# Y in 1 bin  of 10 cm
# Z in 1 bin  of 10 cm
# EnergyDeposit ( MeV ) : Sum   
0, 0, 0, 0
1, 0, 0, 0
2, 0, 0, 0
3, 0, 0, 0
4, 0, 0, 0
5, 0, 0, 0
6, 0, 0, 0.007282579783350229
7, 0, 0, 0
8, 0, 0, 0.004452351480722427
9, 0, 0, 0
10, 0, 0, 0
11, 0, 0, 0
12, 0, 0, 0
13, 0, 0, 0
14, 0, 0, 0
15, 0, 0, 0
16, 0, 0, 0.001122704590670764
17, 0, 0, 0
18, 0, 0, 0
19, 0, 0, 0
20, 0, 0, 0.04015013575553894
21, 0, 0, 0.002708777086809278
22, 0, 0, 0
23, 0, 0, 0
24, 0, 0, 0
25, 0, 0, 0.001426105503924191
26, 0, 0, 0
27, 0, 0, 0
28, 0, 0, 0
29, 0, 0, 0
30, 0, 0, 10.19585514068604
31, 0, 0, 57.76673889160156
32, 0, 0, 282.5780334472656
33, 0, 0, 838.1740112304688
34, 0, 0, 1878.799560546875
35, 0, 0, 3261.366943359375
36, 0, 0, 4550.73291015625
37, 0, 0, 4977.91259765625
38, 0, 0, 4796.32177734375
39, 0, 0, 4236.83203125
40, 0, 0, 3873.388427734375
41, 0, 0, 3453.310546875
42, 0, 0, 3118.1806640625
43, 0, 0, 2879.228271484375
44, 0, 0, 2700.507568359375
45, 0, 0, 2553.05126953125
46, 0, 0, 2431.69384765625
47, 0, 0, 2331.72314453125
48, 0, 0, 2245.01513671875
49, 0, 0, 2160.83203125
50, 0, 0, 2089.68017578125
51, 0, 0, 2038.80224609375
52, 0, 0, 1981.033447265625
53, 0, 0, 1922.115356445312
54, 0, 0, 1879.628784179688
55, 0, 0, 1831.408081054688
56, 0, 0, 1791.1279296875
57, 0, 0, 1756.572631835938
58, 0, 0, 1719.708129882812
59, 0, 0, 1691.659423828125
60, 0, 0, 1659.442749023438
61, 0, 0, 1636.494140625
62, 0, 0, 1606.29345703125
63, 0, 0, 1575.921142578125
64, 0, 0, 1552.3681640625
65, 0, 0, 1528.73291015625
66, 0, 0, 1501.665771484375
67, 0, 0, 1487.737548828125
68, 0, 0, 1462.671875
69, 0, 0, 1445.317260742188
70, 0, 0, 1428.395751953125
71, 0, 0, 1410.848388671875
72, 0, 0, 1398.70068359375
73, 0, 0, 1382.636962890625
74, 0, 0, 1362.66552734375
75, 0, 0, 1347.08642578125
76, 0, 0, 1327.267211914062
77, 0, 0, 1318.701538085938
78, 0, 0, 1312.875854492188
79, 0, 0, 1298.693481445312
80, 0, 0, 1283.016723632812
81, 0, 0, 1272.735717773438
82, 0, 0, 1254.369995117188
83, 0, 0, 1247.535400390625
84, 0, 0, 1230.655517578125
85, 0, 0, 1230.3984375
86, 0, 0, 1212.26123046875
87, 0, 0, 1205.103393554688
88, 0, 0, 1192.588500976562
89, 0, 0, 1181.151123046875
90, 0, 0, 1176.903686523438
91, 0, 0, 1168.259765625
92, 0, 0, 1164.171020507812
93, 0, 0, 1151.548095703125
94, 0, 0, 1140.867431640625
95, 0, 0, 1135.687377929688
96, 0, 0, 1129.72802734375
97, 0, 0, 1116.317749023438
98, 0, 0, 1118.568359375
99, 0, 0, 1105.313842773438
100, 0, 0, 1092.189331054688
101, 0, 0, 1083.189697265625
102, 0, 0, 1090.945678710938
103, 0, 0, 1070.555541992188
104, 0, 0, 1073.630126953125
105, 0, 0, 1072.853881835938
106, 0, 0, 1058.573120117188
107, 0, 0, 1052.112548828125
108, 0, 0, 1045.073120117188
109, 0, 0, 1040.9716796875
110, 0, 0, 1030.81689453125
111, 0, 0, 1035.49951171875
112, 0, 0, 1021.077941894531
113, 0, 0, 1024.1796875
114, 0, 0, 1018.552612304688
115, 0, 0, 1009.681335449219
116, 0, 0, 1006.508422851562
117, 0, 0, 996.604736328125
118, 0, 0, 996.184326171875
119, 0, 0, 987.9846801757812
120, 0, 0, 989.673583984375
121, 0, 0, 979.97021484375
122, 0, 0, 977.4568481445312
123, 0, 0, 969.719970703125
124, 0, 0, 967.04052734375
125, 0, 0, 954.0462036132812
126, 0, 0, 963.9320678710938
127, 0, 0, 952.6597290039062
128, 0, 0, 946.5299072265625
129, 0, 0, 944.8804321289062
130, 0, 0, 944.356689453125
131, 0, 0, 933.861083984375
132, 0, 0, 924.1631469726562
133, 0, 0, 927.720703125
134, 0, 0, 934.3494873046875
135, 0, 0, 922.0957641601562
136, 0, 0, 914.56591796875
137, 0, 0, 913.4588623046875
138, 0, 0, 906.1793212890625
139, 0, 0, 908.6011352539062
140, 0, 0, 897.5494384765625
141, 0, 0, 903.8319702148438
142, 0, 0, 906.0198364257812
143, 0, 0, 890.4103393554688
144, 0, 0, 890.6974487304688
145, 0, 0, 888.0368041992188
146, 0, 0, 895.0477905273438
147, 0, 0, 870.7081298828125
148, 0, 0, 874.5374755859375
149, 0, 0, 876.0029907226562
150, 0, 0, 872.941650390625
151, 0, 0, 874.414306640625
152, 0, 0, 862.2432861328125
153, 0, 0, 854.3766479492188
154, 0, 0, 865.7415161132812
155, 0, 0, 857.1337890625
156, 0, 0, 853.7745361328125
157, 0, 0, 855.1557006835938
158, 0, 0, 853.0760498046875
159, 0, 0, 849.397216796875
160, 0, 0, 846.11083984375
161, 0, 0, 851.3240966796875
162, 0, 0, 842.9015502929688
163, 0, 0, 842.6593627929688
164, 0, 0, 831.837646484375
165, 0, 0, 831.6777954101562
166, 0, 0, 823.2028198242188
167, 0, 0, 828.1339111328125
168, 0, 0, 829.70361328125
169, 0, 0, 824.3464965820312
170, 0, 0, 823.5025634765625
171, 0, 0, 817.5216674804688
172, 0, 0, 819.4196166992188
173, 0, 0, 808.5430297851562
174, 0, 0, 809.9010620117188
175, 0, 0, 812.0709838867188
176, 0, 0, 803.6692504882812
177, 0, 0, 804.200439453125
178, 0, 0, 808.406005859375
179, 0, 0, 799.8346557617188
