# TOPAS Version: 3.3.p1
# Parameter File: Test.txt
# Results for scorer MLIC_Scorer
# Scored in component: MLIC
# X in 180 bins of 0.177778 cm
# Y in 1 bin  of 10 cm
# Z in 1 bin  of 10 cm
# EnergyDeposit ( MeV ) : Sum   
0, 0, 0, 0
1, 0, 0, 0
2, 0, 0, 0
3, 0, 0, 0
4, 0, 0, 0
5, 0, 0, 0
6, 0, 0, 0
7, 0, 0, 0
8, 0, 0, 0
9, 0, 0, 0
10, 0, 0, 0
11, 0, 0, 0
12, 0, 0, 0
13, 0, 0, 0
14, 0, 0, 0
15, 0, 0, 0
16, 0, 0, 0
17, 0, 0, 0
18, 0, 0, 0
19, 0, 0, 0
20, 0, 0, 0
21, 0, 0, 0
22, 0, 0, 0
23, 0, 0, 0
24, 0, 0, 0
25, 0, 0, 0
26, 0, 0, 0
27, 0, 0, 0
28, 0, 0, 0
29, 0, 0, 0
30, 0, 0, 0
31, 0, 0, 0
32, 0, 0, 0
33, 0, 0, 0
34, 0, 0, 0
35, 0, 0, 0
36, 0, 0, 0
37, 0, 0, 0
38, 0, 0, 0
39, 0, 0, 0
40, 0, 0, 0.005802932661026716
41, 0, 0, 0
42, 0, 0, 0
43, 0, 0, 0
44, 0, 0, 0
45, 0, 0, 0
46, 0, 0, 0
47, 0, 0, 0
48, 0, 0, 0
49, 0, 0, 0
50, 0, 0, 0
51, 0, 0, 0
52, 0, 0, 0
53, 0, 0, 0
54, 0, 0, 0.005590173881500959
55, 0, 0, 0
56, 0, 0, 0
57, 0, 0, 0.002619546605274081
58, 0, 0, 0
59, 0, 0, 0
60, 0, 0, 0.007526462431997061
61, 0, 0, 0
62, 0, 0, 0
63, 0, 0, 0
64, 0, 0, 0
65, 0, 0, 0
66, 0, 0, 10.56713581085205
67, 0, 0, 54.97672653198242
68, 0, 0, 180.3877716064453
69, 0, 0, 845.9136352539062
70, 0, 0, 1686.1748046875
71, 0, 0, 3138.6142578125
72, 0, 0, 4175.5498046875
73, 0, 0, 4949.583984375
74, 0, 0, 4909.51806640625
75, 0, 0, 4515.27099609375
76, 0, 0, 3919.99658203125
77, 0, 0, 3449.281494140625
78, 0, 0, 3132.15283203125
79, 0, 0, 2902.462646484375
80, 0, 0, 2714.53564453125
81, 0, 0, 2574.144775390625
82, 0, 0, 2457.935302734375
83, 0, 0, 2347.80224609375
84, 0, 0, 2260.328125
85, 0, 0, 2177.369873046875
86, 0, 0, 2103.208984375
87, 0, 0, 2035.837280273438
88, 0, 0, 1983.81982421875
89, 0, 0, 1927.572509765625
90, 0, 0, 1877.662963867188
91, 0, 0, 1841.114501953125
92, 0, 0, 1795.591674804688
93, 0, 0, 1754.338256835938
94, 0, 0, 1719.962158203125
95, 0, 0, 1692.926879882812
96, 0, 0, 1667.145874023438
97, 0, 0, 1626.886352539062
98, 0, 0, 1601.4990234375
99, 0, 0, 1576.01513671875
100, 0, 0, 1556.822998046875
101, 0, 0, 1535.447509765625
102, 0, 0, 1506.094116210938
103, 0, 0, 1483.272216796875
104, 0, 0, 1461.79443359375
105, 0, 0, 1445.898071289062
106, 0, 0, 1428.677612304688
107, 0, 0, 1410.621459960938
108, 0, 0, 1401.81640625
109, 0, 0, 1377.980834960938
110, 0, 0, 1359.862182617188
111, 0, 0, 1344.0419921875
112, 0, 0, 1332.414672851562
113, 0, 0, 1319.268920898438
114, 0, 0, 1312.37939453125
115, 0, 0, 1295.768310546875
116, 0, 0, 1274.9423828125
117, 0, 0, 1273.019897460938
118, 0, 0, 1256.435668945312
119, 0, 0, 1251.210571289062
120, 0, 0, 1227.023681640625
121, 0, 0, 1221.08154296875
122, 0, 0, 1220.617553710938
123, 0, 0, 1200.589721679688
124, 0, 0, 1191.482299804688
125, 0, 0, 1190.339965820312
126, 0, 0, 1185.656860351562
127, 0, 0, 1162.005249023438
128, 0, 0, 1145.925048828125
129, 0, 0, 1143.0302734375
130, 0, 0, 1138.622314453125
131, 0, 0, 1138.382568359375
132, 0, 0, 1126.55029296875
133, 0, 0, 1125.966918945312
134, 0, 0, 1115.739501953125
135, 0, 0, 1101.283813476562
136, 0, 0, 1088.321166992188
137, 0, 0, 1093.803466796875
138, 0, 0, 1082.412719726562
139, 0, 0, 1073.096557617188
140, 0, 0, 1072.959350585938
141, 0, 0, 1066.000854492188
142, 0, 0, 1053.9140625
143, 0, 0, 1056.33203125
144, 0, 0, 1041.505493164062
145, 0, 0, 1046.845581054688
146, 0, 0, 1032.805786132812
147, 0, 0, 1032.49365234375
148, 0, 0, 1026.430297851562
149, 0, 0, 1022.745056152344
150, 0, 0, 1009.825500488281
151, 0, 0, 1004.659057617188
152, 0, 0, 1006.419372558594
153, 0, 0, 997.6836547851562
154, 0, 0, 990.2985229492188
155, 0, 0, 982.3648681640625
156, 0, 0, 981.09765625
157, 0, 0, 982.5806884765625
158, 0, 0, 976.1470336914062
159, 0, 0, 972.41650390625
160, 0, 0, 971.6774291992188
161, 0, 0, 952.5350952148438
162, 0, 0, 952.832763671875
163, 0, 0, 954.7791137695312
164, 0, 0, 951.6683959960938
165, 0, 0, 949.1384887695312
166, 0, 0, 945.1243896484375
167, 0, 0, 937.0308837890625
168, 0, 0, 939.281982421875
169, 0, 0, 939.2855224609375
170, 0, 0, 913.335693359375
171, 0, 0, 922.95263671875
172, 0, 0, 921.9319458007812
173, 0, 0, 921.1848754882812
174, 0, 0, 914.0809326171875
175, 0, 0, 911.1212768554688
176, 0, 0, 904.33251953125
177, 0, 0, 906.056396484375
178, 0, 0, 904.3951416015625
179, 0, 0, 896.890625
