# TOPAS Version: 3.3.p1
# Parameter File: Test.txt
# Results for scorer MLIC_Scorer
# Scored in component: MLIC
# X in 180 bins of 0.177778 cm
# Y in 1 bin  of 10 cm
# Z in 1 bin  of 10 cm
# EnergyDeposit ( MeV ) : Sum   
0, 0, 0, 0
1, 0, 0, 0
2, 0, 0, 0
3, 0, 0, 0
4, 0, 0, 0
5, 0, 0, 0
6, 0, 0, 0
7, 0, 0, 0
8, 0, 0, 0
9, 0, 0, 0
10, 0, 0, 0
11, 0, 0, 0
12, 0, 0, 0
13, 0, 0, 0
14, 0, 0, 0
15, 0, 0, 0
16, 0, 0, 0
17, 0, 0, 0
18, 0, 0, 0
19, 0, 0, 0
20, 0, 0, 0
21, 0, 0, 0
22, 0, 0, 0
23, 0, 0, 0
24, 0, 0, 0
25, 0, 0, 0
26, 0, 0, 0
27, 0, 0, 0
28, 0, 0, 0
29, 0, 0, 0
30, 0, 0, 0
31, 0, 0, 0
32, 0, 0, 0
33, 0, 0, 0
34, 0, 0, 0
35, 0, 0, 0
36, 0, 0, 0
37, 0, 0, 0
38, 0, 0, 0
39, 0, 0, 0
40, 0, 0, 0
41, 0, 0, 0
42, 0, 0, 0
43, 0, 0, 0
44, 0, 0, 0
45, 0, 0, 0
46, 0, 0, 0
47, 0, 0, 0
48, 0, 0, 0
49, 0, 0, 0
50, 0, 0, 0
51, 0, 0, 0
52, 0, 0, 0
53, 0, 0, 0
54, 0, 0, 0
55, 0, 0, 0
56, 0, 0, 0
57, 0, 0, 0
58, 0, 0, 0
59, 0, 0, 0
60, 0, 0, 0
61, 0, 0, 0
62, 0, 0, 0
63, 0, 0, 0
64, 0, 0, 0
65, 0, 0, 0
66, 0, 0, 0
67, 0, 0, 0
68, 0, 0, 0
69, 0, 0, 0
70, 0, 0, 0
71, 0, 0, 0
72, 0, 0, 0
73, 0, 0, 0
74, 0, 0, 0
75, 0, 0, 0
76, 0, 0, 0
77, 0, 0, 0
78, 0, 0, 0
79, 0, 0, 0
80, 0, 0, 0
81, 0, 0, 0
82, 0, 0, 0.004297297447919846
83, 0, 0, 0.003606541780754924
84, 0, 0, 0.003937689587473869
85, 0, 0, 0
86, 0, 0, 0.002186792436987162
87, 0, 0, 4.980700969696045
88, 0, 0, 40.1110954284668
89, 0, 0, 208.1983184814453
90, 0, 0, 477.35009765625
91, 0, 0, 1256.941284179688
92, 0, 0, 2475.577880859375
93, 0, 0, 3935.557373046875
94, 0, 0, 5019.24169921875
95, 0, 0, 5185.42822265625
96, 0, 0, 4626.138671875
97, 0, 0, 4049.349609375
98, 0, 0, 3555.955322265625
99, 0, 0, 3210.468505859375
100, 0, 0, 2968.274658203125
101, 0, 0, 2765.254150390625
102, 0, 0, 2614.191162109375
103, 0, 0, 2485.460205078125
104, 0, 0, 2366.451171875
105, 0, 0, 2273.654296875
106, 0, 0, 2197.65673828125
107, 0, 0, 2125.42236328125
108, 0, 0, 2055.3720703125
109, 0, 0, 1998.338134765625
110, 0, 0, 1954.119262695312
111, 0, 0, 1895.305053710938
112, 0, 0, 1854.232055664062
113, 0, 0, 1807.709838867188
114, 0, 0, 1764.292846679688
115, 0, 0, 1733.40234375
116, 0, 0, 1702.556884765625
117, 0, 0, 1673.873291015625
118, 0, 0, 1640.8828125
119, 0, 0, 1614.318359375
120, 0, 0, 1584.570678710938
121, 0, 0, 1557.843627929688
122, 0, 0, 1534.985595703125
123, 0, 0, 1504.975830078125
124, 0, 0, 1494.442626953125
125, 0, 0, 1471.986572265625
126, 0, 0, 1450.885620117188
127, 0, 0, 1434.759033203125
128, 0, 0, 1420.9033203125
129, 0, 0, 1404.453491210938
130, 0, 0, 1389.305053710938
131, 0, 0, 1374.600708007812
132, 0, 0, 1352.599853515625
133, 0, 0, 1344.330322265625
134, 0, 0, 1320.98681640625
135, 0, 0, 1312.72314453125
136, 0, 0, 1303.41455078125
137, 0, 0, 1285.597045898438
138, 0, 0, 1283.218139648438
139, 0, 0, 1265.95849609375
140, 0, 0, 1261.661254882812
141, 0, 0, 1243.726928710938
142, 0, 0, 1231.341552734375
143, 0, 0, 1222.432006835938
144, 0, 0, 1207.009643554688
145, 0, 0, 1196.713500976562
146, 0, 0, 1194.970092773438
147, 0, 0, 1178.626220703125
148, 0, 0, 1169.39306640625
149, 0, 0, 1156.672607421875
150, 0, 0, 1156.565185546875
151, 0, 0, 1148.837036132812
152, 0, 0, 1144.1220703125
153, 0, 0, 1133.854858398438
154, 0, 0, 1125.752685546875
155, 0, 0, 1112.541259765625
156, 0, 0, 1105.659301757812
157, 0, 0, 1102.440551757812
158, 0, 0, 1086.886840820312
159, 0, 0, 1089.820068359375
160, 0, 0, 1084.173217773438
161, 0, 0, 1066.406372070312
162, 0, 0, 1071.21435546875
163, 0, 0, 1069.37890625
164, 0, 0, 1047.316650390625
165, 0, 0, 1046.751098632812
166, 0, 0, 1041.254760742188
167, 0, 0, 1041.220092773438
168, 0, 0, 1034.51318359375
169, 0, 0, 1029.042114257812
170, 0, 0, 1016.341735839844
171, 0, 0, 1019.233215332031
172, 0, 0, 1017.533447265625
173, 0, 0, 1002.512329101562
174, 0, 0, 1002.550415039062
175, 0, 0, 988.2804565429688
176, 0, 0, 991.7578735351562
177, 0, 0, 987.7383422851562
178, 0, 0, 969.4679565429688
179, 0, 0, 983.526611328125
