# TOPAS Version: 3.3.p1
# Parameter File: Test.txt
# Results for scorer MLIC_Scorer
# Scored in component: MLIC
# X in 165 bins of 0.2 cm
# Y in 1 bin  of 10 cm
# Z in 1 bin  of 10 cm
# EnergyDeposit ( MeV ) : Sum   
0, 0, 0, 0
1, 0, 0, 0
2, 0, 0, 0
3, 0, 0, 0
4, 0, 0, 0
5, 0, 0, 0
6, 0, 0, 0
7, 0, 0, 0
8, 0, 0, 0
9, 0, 0, 0
10, 0, 0, 0
11, 0, 0, 0
12, 0, 0, 0
13, 0, 0, 0
14, 0, 0, 0
15, 0, 0, 0
16, 0, 0, 0
17, 0, 0, 0
18, 0, 0, 0
19, 0, 0, 0
20, 0, 0, 0
21, 0, 0, 0
22, 0, 0, 0
23, 0, 0, 0
24, 0, 0, 0
25, 0, 0, 0
26, 0, 0, 0
27, 0, 0, 0
28, 0, 0, 0
29, 0, 0, 0
30, 0, 0, 0
31, 0, 0, 0
32, 0, 0, 0
33, 0, 0, 0
34, 0, 0, 0
35, 0, 0, 0
36, 0, 0, 0
37, 0, 0, 0
38, 0, 0, 0
39, 0, 0, 0
40, 0, 0, 0
41, 0, 0, 0
42, 0, 0, 0
43, 0, 0, 0
44, 0, 0, 0
45, 0, 0, 0
46, 0, 0, 0
47, 0, 0, 0
48, 0, 0, 0
49, 0, 0, 0
50, 0, 0, 0
51, 0, 0, 0
52, 0, 0, 0
53, 0, 0, 0
54, 0, 0, 0
55, 0, 0, 0
56, 0, 0, 0
57, 0, 0, 0
58, 0, 0, 0
59, 0, 0, 0
60, 0, 0, 0
61, 0, 0, 0
62, 0, 0, 0
63, 0, 0, 0
64, 0, 0, 0
65, 0, 0, 0
66, 0, 0, 0
67, 0, 0, 0
68, 0, 0, 0
69, 0, 0, 0
70, 0, 0, 0
71, 0, 0, 0
72, 0, 0, 0
73, 0, 0, 0
74, 0, 0, 0
75, 0, 0, 0
76, 0, 0, 0
77, 0, 0, 0
78, 0, 0, 0
79, 0, 0, 0
80, 0, 0, 0
81, 0, 0, 0
82, 0, 0, 0
83, 0, 0, 0
84, 0, 0, 0
85, 0, 0, 0
86, 0, 0, 0
87, 0, 0, 0
88, 0, 0, 0
89, 0, 0, 0
90, 0, 0, 0
91, 0, 0, 0
92, 0, 0, 0
93, 0, 0, 0
94, 0, 0, 0
95, 0, 0, 0
96, 0, 0, 0
97, 0, 0, 0
98, 0, 0, 0
99, 0, 0, 0.003662476548925042
100, 0, 0, 0
101, 0, 0, 0
102, 0, 0, 0
103, 0, 0, 0
104, 0, 0, 0
105, 0, 0, 0.03741962090134621
106, 0, 0, 0
107, 0, 0, 0
108, 0, 0, 0
109, 0, 0, 0
110, 0, 0, 0
111, 0, 0, 14.63352680206299
112, 0, 0, 93.12677001953125
113, 0, 0, 409.8751525878906
114, 0, 0, 1336.480346679688
115, 0, 0, 2820.619873046875
116, 0, 0, 4472.28076171875
117, 0, 0, 5467.046875
118, 0, 0, 5455.23046875
119, 0, 0, 4870.060546875
120, 0, 0, 4268.8359375
121, 0, 0, 3803.999755859375
122, 0, 0, 3426.715576171875
123, 0, 0, 3153.00537109375
124, 0, 0, 2948.066650390625
125, 0, 0, 2781.4013671875
126, 0, 0, 2642.0859375
127, 0, 0, 2528.797607421875
128, 0, 0, 2437.389892578125
129, 0, 0, 2340.084716796875
130, 0, 0, 2265.4189453125
131, 0, 0, 2193.2568359375
132, 0, 0, 2138.053466796875
133, 0, 0, 2075.481689453125
134, 0, 0, 2017.712280273438
135, 0, 0, 1974.770874023438
136, 0, 0, 1938.556274414062
137, 0, 0, 1903.080444335938
138, 0, 0, 1853.588012695312
139, 0, 0, 1819.401977539062
140, 0, 0, 1786.109497070312
141, 0, 0, 1748.37255859375
142, 0, 0, 1724.70166015625
143, 0, 0, 1693.257202148438
144, 0, 0, 1671.389404296875
145, 0, 0, 1646.412475585938
146, 0, 0, 1616.364379882812
147, 0, 0, 1599.32958984375
148, 0, 0, 1575.818725585938
149, 0, 0, 1547.166259765625
150, 0, 0, 1534.731811523438
151, 0, 0, 1517.818725585938
152, 0, 0, 1503.803955078125
153, 0, 0, 1490.78857421875
154, 0, 0, 1463.582275390625
155, 0, 0, 1454.613037109375
156, 0, 0, 1434.63134765625
157, 0, 0, 1416.116333007812
158, 0, 0, 1400.30322265625
159, 0, 0, 1392.192504882812
160, 0, 0, 1378.442504882812
161, 0, 0, 1355.795166015625
162, 0, 0, 1353.169555664062
163, 0, 0, 1342.501586914062
164, 0, 0, 1329.778442382812
