# TOPAS Version: 3.3.p1
# Parameter File: Test.txt
# Results for scorer MLIC_Scorer
# Scored in component: MLIC
# X in 180 bins of 0.177778 cm
# Y in 1 bin  of 10 cm
# Z in 1 bin  of 10 cm
# EnergyDeposit ( MeV ) : Sum   
0, 0, 0, 0.001534900744445622
1, 0, 0, 0
2, 0, 0, 0.02995270490646362
3, 0, 0, 0.003097938140854239
4, 0, 0, 0
5, 0, 0, 0
6, 0, 0, 0
7, 0, 0, 18.5478343963623
8, 0, 0, 83.46828460693359
9, 0, 0, 603.6555786132812
10, 0, 0, 1501.329223632812
11, 0, 0, 2866.85693359375
12, 0, 0, 4112.23681640625
13, 0, 0, 5095.33837890625
14, 0, 0, 5085.033203125
15, 0, 0, 4471.73291015625
16, 0, 0, 3993.777099609375
17, 0, 0, 3496.173583984375
18, 0, 0, 3156.393310546875
19, 0, 0, 2942.167724609375
20, 0, 0, 2745.598876953125
21, 0, 0, 2587.18212890625
22, 0, 0, 2464.073974609375
23, 0, 0, 2356.867431640625
24, 0, 0, 2269.074951171875
25, 0, 0, 2190.635009765625
26, 0, 0, 2108.130126953125
27, 0, 0, 2044.872192382812
28, 0, 0, 1988.560668945312
29, 0, 0, 1944.075317382812
30, 0, 0, 1885.538940429688
31, 0, 0, 1843.662841796875
32, 0, 0, 1799.418579101562
33, 0, 0, 1769.606811523438
34, 0, 0, 1725.179321289062
35, 0, 0, 1698.40234375
36, 0, 0, 1663.693725585938
37, 0, 0, 1629.890991210938
38, 0, 0, 1610.7080078125
39, 0, 0, 1582.517944335938
40, 0, 0, 1549.307250976562
41, 0, 0, 1537.6513671875
42, 0, 0, 1515.167846679688
43, 0, 0, 1488.099853515625
44, 0, 0, 1465.459228515625
45, 0, 0, 1452.76953125
46, 0, 0, 1429.639892578125
47, 0, 0, 1421.140869140625
48, 0, 0, 1398.837768554688
49, 0, 0, 1384.188354492188
50, 0, 0, 1364.70068359375
51, 0, 0, 1348.65869140625
52, 0, 0, 1345.363525390625
53, 0, 0, 1327.813842773438
54, 0, 0, 1313.8515625
55, 0, 0, 1294.045043945312
56, 0, 0, 1286.6826171875
57, 0, 0, 1274.79443359375
58, 0, 0, 1258.979736328125
59, 0, 0, 1248.577880859375
60, 0, 0, 1249.697021484375
61, 0, 0, 1225.835571289062
62, 0, 0, 1214.65283203125
63, 0, 0, 1210.44140625
64, 0, 0, 1193.467895507812
65, 0, 0, 1186.074951171875
66, 0, 0, 1181.881591796875
67, 0, 0, 1169.400390625
68, 0, 0, 1161.085327148438
69, 0, 0, 1154.216674804688
70, 0, 0, 1143.359741210938
71, 0, 0, 1134.885498046875
72, 0, 0, 1133.024047851562
73, 0, 0, 1115.797119140625
74, 0, 0, 1116.461669921875
75, 0, 0, 1116.541137695312
76, 0, 0, 1104.083129882812
77, 0, 0, 1097.076293945312
78, 0, 0, 1089.249633789062
79, 0, 0, 1079.955932617188
80, 0, 0, 1070.48046875
81, 0, 0, 1059.932983398438
82, 0, 0, 1059.347900390625
83, 0, 0, 1055.171997070312
84, 0, 0, 1051.01220703125
85, 0, 0, 1040.353881835938
86, 0, 0, 1032.892822265625
87, 0, 0, 1028.276977539062
88, 0, 0, 1020.338317871094
89, 0, 0, 1012.746643066406
90, 0, 0, 1012.664428710938
91, 0, 0, 1009.910949707031
92, 0, 0, 1008.790649414062
93, 0, 0, 999.8247680664062
94, 0, 0, 997.3372802734375
95, 0, 0, 992.3640747070312
96, 0, 0, 992.9548950195312
97, 0, 0, 978.4421997070312
98, 0, 0, 976.9057006835938
99, 0, 0, 966.9238891601562
100, 0, 0, 964.0526123046875
101, 0, 0, 969.1445922851562
102, 0, 0, 962.819091796875
103, 0, 0, 953.1204223632812
104, 0, 0, 956.3538818359375
105, 0, 0, 951.1997680664062
106, 0, 0, 945.2224731445312
107, 0, 0, 932.2514038085938
108, 0, 0, 935.6806640625
109, 0, 0, 936.73095703125
110, 0, 0, 926.7574462890625
111, 0, 0, 913.98388671875
112, 0, 0, 925.0767822265625
113, 0, 0, 915.2515869140625
114, 0, 0, 911.832763671875
115, 0, 0, 906.1854248046875
116, 0, 0, 906.532470703125
117, 0, 0, 906.85546875
118, 0, 0, 899.0996704101562
119, 0, 0, 898.0569458007812
120, 0, 0, 896.6103515625
121, 0, 0, 893.8855590820312
122, 0, 0, 881.3662719726562
123, 0, 0, 889.7046508789062
124, 0, 0, 880.7907104492188
125, 0, 0, 870.4313354492188
126, 0, 0, 881.2150268554688
127, 0, 0, 872.1295776367188
128, 0, 0, 868.9293823242188
129, 0, 0, 868.1154174804688
130, 0, 0, 861.317626953125
131, 0, 0, 860.051513671875
132, 0, 0, 859.4171752929688
133, 0, 0, 852.5272827148438
134, 0, 0, 858.416015625
135, 0, 0, 848.8079223632812
136, 0, 0, 852.0275268554688
137, 0, 0, 847.08544921875
138, 0, 0, 840.9703369140625
139, 0, 0, 835.9531860351562
140, 0, 0, 836.67333984375
141, 0, 0, 834.2461547851562
142, 0, 0, 825.978515625
143, 0, 0, 822.8591918945312
144, 0, 0, 832.2750854492188
145, 0, 0, 824.094970703125
146, 0, 0, 831.95849609375
147, 0, 0, 820.2788696289062
148, 0, 0, 811.1112060546875
149, 0, 0, 823.5903930664062
150, 0, 0, 814.5360107421875
151, 0, 0, 811.9981689453125
152, 0, 0, 821.6749267578125
153, 0, 0, 804.7232055664062
154, 0, 0, 808.80517578125
155, 0, 0, 803.8212280273438
156, 0, 0, 796.469970703125
157, 0, 0, 807.88232421875
158, 0, 0, 801.6224975585938
159, 0, 0, 788.1610717773438
160, 0, 0, 801.57568359375
161, 0, 0, 790.8651733398438
162, 0, 0, 783.8866577148438
163, 0, 0, 777.9424438476562
164, 0, 0, 789.67919921875
165, 0, 0, 780.7843627929688
166, 0, 0, 778.8277587890625
167, 0, 0, 777.0100708007812
168, 0, 0, 782.1769409179688
169, 0, 0, 775.1510009765625
170, 0, 0, 772.322998046875
171, 0, 0, 776.6110229492188
172, 0, 0, 770.4515991210938
173, 0, 0, 762.5137939453125
174, 0, 0, 768.2845458984375
175, 0, 0, 768.4524536132812
176, 0, 0, 755.3005981445312
177, 0, 0, 763.5459594726562
178, 0, 0, 764.9588012695312
179, 0, 0, 756.7861938476562
