# TOPAS Version: 3.3.p1
# Parameter File: Test.txt
# Results for scorer MLIC_Scorer
# Scored in component: MLIC
# X in 180 bins of 0.183333 cm
# Y in 1 bin  of 10 cm
# Z in 1 bin  of 10 cm
# EnergyDeposit ( MeV ) : Sum   
0, 0, 0, 0
1, 0, 0, 0
2, 0, 0, 0
3, 0, 0, 0
4, 0, 0, 0
5, 0, 0, 0
6, 0, 0, 0
7, 0, 0, 0
8, 0, 0, 0
9, 0, 0, 0
10, 0, 0, 0
11, 0, 0, 0
12, 0, 0, 0
13, 0, 0, 0
14, 0, 0, 0
15, 0, 0, 0
16, 0, 0, 0
17, 0, 0, 0
18, 0, 0, 0
19, 0, 0, 0
20, 0, 0, 0
21, 0, 0, 0
22, 0, 0, 0
23, 0, 0, 0
24, 0, 0, 0
25, 0, 0, 0
26, 0, 0, 0
27, 0, 0, 0
28, 0, 0, 0
29, 0, 0, 0
30, 0, 0, 0
31, 0, 0, 0
32, 0, 0, 0
33, 0, 0, 0
34, 0, 0, 0
35, 0, 0, 0
36, 0, 0, 0
37, 0, 0, 0
38, 0, 0, 0
39, 0, 0, 0
40, 0, 0, 0
41, 0, 0, 0
42, 0, 0, 0
43, 0, 0, 0
44, 0, 0, 0
45, 0, 0, 0
46, 0, 0, 0
47, 0, 0, 0
48, 0, 0, 0
49, 0, 0, 0
50, 0, 0, 0
51, 0, 0, 0
52, 0, 0, 0
53, 0, 0, 0
54, 0, 0, 0
55, 0, 0, 0
56, 0, 0, 0
57, 0, 0, 0
58, 0, 0, 0
59, 0, 0, 0
60, 0, 0, 0
61, 0, 0, 0
62, 0, 0, 0
63, 0, 0, 0
64, 0, 0, 0
65, 0, 0, 0
66, 0, 0, 0
67, 0, 0, 0
68, 0, 0, 0
69, 0, 0, 0
70, 0, 0, 0
71, 0, 0, 0
72, 0, 0, 0
73, 0, 0, 0
74, 0, 0, 0.01622500829398632
75, 0, 0, 36.48465347290039
76, 0, 0, 261.7270202636719
77, 0, 0, 712.8509521484375
78, 0, 0, 1710.373901367188
79, 0, 0, 3177.28271484375
80, 0, 0, 4502.4296875
81, 0, 0, 5261.75
82, 0, 0, 4992.17236328125
83, 0, 0, 4497.72412109375
84, 0, 0, 3936.179443359375
85, 0, 0, 3501.085693359375
86, 0, 0, 3167.01025390625
87, 0, 0, 2933.154052734375
88, 0, 0, 2744.32470703125
89, 0, 0, 2604.09619140625
90, 0, 0, 2479.77294921875
91, 0, 0, 2372.472900390625
92, 0, 0, 2286.58203125
93, 0, 0, 2215.916748046875
94, 0, 0, 2135.724365234375
95, 0, 0, 2071.07275390625
96, 0, 0, 2006.630981445312
97, 0, 0, 1958.4453125
98, 0, 0, 1908.867309570312
99, 0, 0, 1865.76611328125
100, 0, 0, 1826.067626953125
101, 0, 0, 1782.521362304688
102, 0, 0, 1749.790161132812
103, 0, 0, 1717.74365234375
104, 0, 0, 1688.1298828125
105, 0, 0, 1656.760009765625
106, 0, 0, 1643.921264648438
107, 0, 0, 1594.090087890625
108, 0, 0, 1586.293212890625
109, 0, 0, 1555.154418945312
110, 0, 0, 1537.047973632812
111, 0, 0, 1508.16650390625
112, 0, 0, 1494.03662109375
113, 0, 0, 1467.613647460938
114, 0, 0, 1453.754150390625
115, 0, 0, 1438.09033203125
116, 0, 0, 1416.866088867188
117, 0, 0, 1407.973022460938
118, 0, 0, 1385.254760742188
119, 0, 0, 1369.402587890625
120, 0, 0, 1354.115478515625
121, 0, 0, 1345.321655273438
122, 0, 0, 1320.775634765625
123, 0, 0, 1321.472900390625
124, 0, 0, 1308.48876953125
125, 0, 0, 1294.680053710938
126, 0, 0, 1287.350219726562
127, 0, 0, 1273.802734375
128, 0, 0, 1260.189697265625
129, 0, 0, 1244.2470703125
130, 0, 0, 1243.818115234375
131, 0, 0, 1235.385498046875
132, 0, 0, 1217.914306640625
133, 0, 0, 1206.866088867188
134, 0, 0, 1197.81689453125
135, 0, 0, 1188.60009765625
136, 0, 0, 1183.58837890625
137, 0, 0, 1170.674438476562
138, 0, 0, 1163.338989257812
139, 0, 0, 1161.919921875
140, 0, 0, 1147.23388671875
141, 0, 0, 1137.084716796875
142, 0, 0, 1131.604614257812
143, 0, 0, 1128.999633789062
144, 0, 0, 1117.814331054688
145, 0, 0, 1109.781005859375
146, 0, 0, 1100.185180664062
147, 0, 0, 1093.893920898438
148, 0, 0, 1090.125732421875
149, 0, 0, 1085.960327148438
150, 0, 0, 1076.192138671875
151, 0, 0, 1075.2158203125
152, 0, 0, 1065.957397460938
153, 0, 0, 1058.844360351562
154, 0, 0, 1062.805786132812
155, 0, 0, 1059.655639648438
156, 0, 0, 1045.986328125
157, 0, 0, 1031.766479492188
158, 0, 0, 1035.549438476562
159, 0, 0, 1027.7783203125
160, 0, 0, 1021.303344726562
161, 0, 0, 1018.490844726562
162, 0, 0, 1009.115295410156
163, 0, 0, 1014.780090332031
164, 0, 0, 1006.377868652344
165, 0, 0, 992.7582397460938
166, 0, 0, 996.5924682617188
167, 0, 0, 993.3173217773438
168, 0, 0, 977.8677368164062
169, 0, 0, 978.3548583984375
170, 0, 0, 979.4100341796875
171, 0, 0, 971.8953857421875
172, 0, 0, 962.8892822265625
173, 0, 0, 964.9043579101562
174, 0, 0, 955.5490112304688
175, 0, 0, 956.0128784179688
176, 0, 0, 944.6256103515625
177, 0, 0, 948.0891723632812
178, 0, 0, 940.7447509765625
179, 0, 0, 939.9925537109375
