# TOPAS Version: 3.3.p1
# Parameter File: Test.txt
# Results for scorer MLIC_Scorer
# Scored in component: MLIC
# X in 180 bins of 0.177778 cm
# Y in 1 bin  of 10 cm
# Z in 1 bin  of 10 cm
# EnergyDeposit ( MeV ) : Sum   
0, 0, 0, 0
1, 0, 0, 0
2, 0, 0, 0
3, 0, 0, 0
4, 0, 0, 0
5, 0, 0, 0
6, 0, 0, 0
7, 0, 0, 0
8, 0, 0, 0
9, 0, 0, 0
10, 0, 0, 0
11, 0, 0, 0
12, 0, 0, 0
13, 0, 0, 0
14, 0, 0, 0
15, 0, 0, 0
16, 0, 0, 0
17, 0, 0, 0
18, 0, 0, 0
19, 0, 0, 0
20, 0, 0, 0
21, 0, 0, 0
22, 0, 0, 0
23, 0, 0, 0
24, 0, 0, 0
25, 0, 0, 0
26, 0, 0, 0
27, 0, 0, 0
28, 0, 0, 0
29, 0, 0, 0
30, 0, 0, 0
31, 0, 0, 0
32, 0, 0, 0
33, 0, 0, 0
34, 0, 0, 0
35, 0, 0, 0
36, 0, 0, 0
37, 0, 0, 0
38, 0, 0, 0
39, 0, 0, 0
40, 0, 0, 0
41, 0, 0, 0
42, 0, 0, 0
43, 0, 0, 0
44, 0, 0, 0
45, 0, 0, 0
46, 0, 0, 0
47, 0, 0, 0
48, 0, 0, 0
49, 0, 0, 0
50, 0, 0, 0
51, 0, 0, 0
52, 0, 0, 0
53, 0, 0, 0
54, 0, 0, 0
55, 0, 0, 0
56, 0, 0, 0
57, 0, 0, 0
58, 0, 0, 0
59, 0, 0, 0
60, 0, 0, 0
61, 0, 0, 0
62, 0, 0, 0
63, 0, 0, 0
64, 0, 0, 0
65, 0, 0, 0
66, 0, 0, 0
67, 0, 0, 0
68, 0, 0, 0
69, 0, 0, 0
70, 0, 0, 0
71, 0, 0, 0
72, 0, 0, 0
73, 0, 0, 0
74, 0, 0, 0
75, 0, 0, 0
76, 0, 0, 0
77, 0, 0, 0
78, 0, 0, 0
79, 0, 0, 0
80, 0, 0, 0
81, 0, 0, 0
82, 0, 0, 0
83, 0, 0, 0
84, 0, 0, 0
85, 0, 0, 0
86, 0, 0, 0
87, 0, 0, 0
88, 0, 0, 0
89, 0, 0, 0
90, 0, 0, 0
91, 0, 0, 0
92, 0, 0, 0
93, 0, 0, 0
94, 0, 0, 0
95, 0, 0, 0
96, 0, 0, 0.6241054534912109
97, 0, 0, 11.6719913482666
98, 0, 0, 31.38121795654297
99, 0, 0, 167.3144683837891
100, 0, 0, 468.5053100585938
101, 0, 0, 1271.932495117188
102, 0, 0, 2371.6640625
103, 0, 0, 3969.81201171875
104, 0, 0, 4793.33642578125
105, 0, 0, 4918.6845703125
106, 0, 0, 4670.10693359375
107, 0, 0, 4160.94482421875
108, 0, 0, 3595.784912109375
109, 0, 0, 3245.587890625
110, 0, 0, 2996.64794921875
111, 0, 0, 2800.069091796875
112, 0, 0, 2628.9306640625
113, 0, 0, 2505.864990234375
114, 0, 0, 2382.83837890625
115, 0, 0, 2290.971923828125
116, 0, 0, 2205.813232421875
117, 0, 0, 2136.501708984375
118, 0, 0, 2067.39990234375
119, 0, 0, 2007.758911132812
120, 0, 0, 1954.809204101562
121, 0, 0, 1899.533325195312
122, 0, 0, 1854.88525390625
123, 0, 0, 1814.31396484375
124, 0, 0, 1768.200927734375
125, 0, 0, 1740.348022460938
126, 0, 0, 1704.733032226562
127, 0, 0, 1668.801635742188
128, 0, 0, 1640.160034179688
129, 0, 0, 1616.617309570312
130, 0, 0, 1583.9853515625
131, 0, 0, 1566.95751953125
132, 0, 0, 1537.79541015625
133, 0, 0, 1517.5751953125
134, 0, 0, 1492.236572265625
135, 0, 0, 1474.895629882812
136, 0, 0, 1457.82958984375
137, 0, 0, 1437.88916015625
138, 0, 0, 1425.452026367188
139, 0, 0, 1411.576293945312
140, 0, 0, 1392.892578125
141, 0, 0, 1377.812744140625
142, 0, 0, 1347.289306640625
143, 0, 0, 1341.489013671875
144, 0, 0, 1326.473510742188
145, 0, 0, 1312.077880859375
146, 0, 0, 1300.42822265625
147, 0, 0, 1284.989990234375
148, 0, 0, 1278.590454101562
149, 0, 0, 1265.414794921875
150, 0, 0, 1254.541259765625
151, 0, 0, 1232.647338867188
152, 0, 0, 1231.151489257812
153, 0, 0, 1219.923095703125
154, 0, 0, 1210.60498046875
155, 0, 0, 1203.068603515625
156, 0, 0, 1182.84326171875
157, 0, 0, 1178.678955078125
158, 0, 0, 1167.950805664062
159, 0, 0, 1165.06298828125
160, 0, 0, 1146.359375
161, 0, 0, 1140.7548828125
162, 0, 0, 1137.735961914062
163, 0, 0, 1131.71142578125
164, 0, 0, 1124.27490234375
165, 0, 0, 1114.495849609375
166, 0, 0, 1106.916015625
167, 0, 0, 1101.362548828125
168, 0, 0, 1098.109985351562
169, 0, 0, 1086.123046875
170, 0, 0, 1079.708618164062
171, 0, 0, 1077.466064453125
172, 0, 0, 1073.954833984375
173, 0, 0, 1060.37255859375
174, 0, 0, 1052.725708007812
175, 0, 0, 1046.482055664062
176, 0, 0, 1042.356201171875
177, 0, 0, 1048.832275390625
178, 0, 0, 1036.444702148438
179, 0, 0, 1025.13818359375
