# TOPAS Version: 3.3.p1
# Parameter File: Test.txt
# Results for scorer MLIC_Scorer
# Scored in component: MLIC
# X in 180 bins of 0.177778 cm
# Y in 1 bin  of 10 cm
# Z in 1 bin  of 10 cm
# EnergyDeposit ( MeV ) : Sum   
0, 0, 0, 0
1, 0, 0, 0
2, 0, 0, 0
3, 0, 0, 0
4, 0, 0, 0
5, 0, 0, 0
6, 0, 0, 0
7, 0, 0, 0
8, 0, 0, 0
9, 0, 0, 0
10, 0, 0, 0
11, 0, 0, 0
12, 0, 0, 0
13, 0, 0, 0
14, 0, 0, 0
15, 0, 0, 0
16, 0, 0, 0
17, 0, 0, 0
18, 0, 0, 0
19, 0, 0, 0
20, 0, 0, 0
21, 0, 0, 0
22, 0, 0, 0
23, 0, 0, 0
24, 0, 0, 0
25, 0, 0, 0
26, 0, 0, 0
27, 0, 0, 0
28, 0, 0, 0
29, 0, 0, 0
30, 0, 0, 0
31, 0, 0, 0
32, 0, 0, 0
33, 0, 0, 0
34, 0, 0, 0
35, 0, 0, 0
36, 0, 0, 0
37, 0, 0, 0
38, 0, 0, 0
39, 0, 0, 0
40, 0, 0, 0
41, 0, 0, 0
42, 0, 0, 0
43, 0, 0, 0
44, 0, 0, 0
45, 0, 0, 0
46, 0, 0, 0
47, 0, 0, 0
48, 0, 0, 0
49, 0, 0, 0
50, 0, 0, 0
51, 0, 0, 0
52, 0, 0, 0
53, 0, 0, 0
54, 0, 0, 0
55, 0, 0, 0
56, 0, 0, 0
57, 0, 0, 0
58, 0, 0, 0
59, 0, 0, 0
60, 0, 0, 0
61, 0, 0, 0
62, 0, 0, 0
63, 0, 0, 0
64, 0, 0, 0
65, 0, 0, 0
66, 0, 0, 0
67, 0, 0, 0
68, 0, 0, 0
69, 0, 0, 0
70, 0, 0, 0
71, 0, 0, 0
72, 0, 0, 0
73, 0, 0, 0
74, 0, 0, 0
75, 0, 0, 0
76, 0, 0, 0
77, 0, 0, 0
78, 0, 0, 0
79, 0, 0, 0
80, 0, 0, 0
81, 0, 0, 0
82, 0, 0, 0
83, 0, 0, 0
84, 0, 0, 0
85, 0, 0, 0
86, 0, 0, 0
87, 0, 0, 0
88, 0, 0, 0
89, 0, 0, 0
90, 0, 0, 0
91, 0, 0, 0
92, 0, 0, 0
93, 0, 0, 0
94, 0, 0, 0
95, 0, 0, 0
96, 0, 0, 0
97, 0, 0, 0
98, 0, 0, 0
99, 0, 0, 0
100, 0, 0, 0
101, 0, 0, 0
102, 0, 0, 0
103, 0, 0, 0
104, 0, 0, 0
105, 0, 0, 0
106, 0, 0, 0
107, 0, 0, 0
108, 0, 0, 0
109, 0, 0, 0
110, 0, 0, 0
111, 0, 0, 0
112, 0, 0, 0
113, 0, 0, 0
114, 0, 0, 3.527806282043457
115, 0, 0, 145.1146697998047
116, 0, 0, 463.1618957519531
117, 0, 0, 1297.892211914062
118, 0, 0, 2507.103271484375
119, 0, 0, 3712.087646484375
120, 0, 0, 4590.4619140625
121, 0, 0, 4772.97412109375
122, 0, 0, 4571.30810546875
123, 0, 0, 4244.66748046875
124, 0, 0, 3765.7998046875
125, 0, 0, 3298.495361328125
126, 0, 0, 3018.5908203125
127, 0, 0, 2812.826171875
128, 0, 0, 2645.9130859375
129, 0, 0, 2505.20849609375
130, 0, 0, 2400.435791015625
131, 0, 0, 2297.0712890625
132, 0, 0, 2218.868408203125
133, 0, 0, 2143.39990234375
134, 0, 0, 2066.064453125
135, 0, 0, 2012.076293945312
136, 0, 0, 1956.5888671875
137, 0, 0, 1904.207153320312
138, 0, 0, 1861.926147460938
139, 0, 0, 1818.532470703125
140, 0, 0, 1780.336547851562
141, 0, 0, 1739.803100585938
142, 0, 0, 1702.466674804688
143, 0, 0, 1672.180908203125
144, 0, 0, 1647.64404296875
145, 0, 0, 1610.539916992188
146, 0, 0, 1594.142333984375
147, 0, 0, 1559.934326171875
148, 0, 0, 1543.793212890625
149, 0, 0, 1512.4833984375
150, 0, 0, 1487.453247070312
151, 0, 0, 1480.939331054688
152, 0, 0, 1462.169799804688
153, 0, 0, 1439.170532226562
154, 0, 0, 1424.636474609375
155, 0, 0, 1407.212280273438
156, 0, 0, 1385.375244140625
157, 0, 0, 1376.398071289062
158, 0, 0, 1357.152709960938
159, 0, 0, 1339.419555664062
160, 0, 0, 1333.700561523438
161, 0, 0, 1314.586669921875
162, 0, 0, 1306.079223632812
163, 0, 0, 1287.55078125
164, 0, 0, 1285.125610351562
165, 0, 0, 1268.54248046875
166, 0, 0, 1249.124755859375
167, 0, 0, 1234.911865234375
168, 0, 0, 1229.967529296875
169, 0, 0, 1223.486083984375
170, 0, 0, 1208.39599609375
171, 0, 0, 1207.87109375
172, 0, 0, 1194.934814453125
173, 0, 0, 1180.984619140625
174, 0, 0, 1169.755493164062
175, 0, 0, 1153.951171875
176, 0, 0, 1155.441650390625
177, 0, 0, 1149.890991210938
178, 0, 0, 1135.937866210938
179, 0, 0, 1131.37255859375
