# TOPAS Version: 3.3.p1
# Parameter File: Test.txt
# Results for scorer MLIC_Scorer
# Scored in component: MLIC
# X in 180 bins of 0.177778 cm
# Y in 1 bin  of 10 cm
# Z in 1 bin  of 10 cm
# EnergyDeposit ( MeV ) : Sum   
0, 0, 0, 0
1, 0, 0, 0
2, 0, 0, 0
3, 0, 0, 0
4, 0, 0, 0
5, 0, 0, 0
6, 0, 0, 0
7, 0, 0, 0
8, 0, 0, 0
9, 0, 0, 0
10, 0, 0, 0
11, 0, 0, 0
12, 0, 0, 0
13, 0, 0, 0
14, 0, 0, 0
15, 0, 0, 0
16, 0, 0, 0
17, 0, 0, 0
18, 0, 0, 0
19, 0, 0, 0
20, 0, 0, 0
21, 0, 0, 0
22, 0, 0, 0
23, 0, 0, 0
24, 0, 0, 0
25, 0, 0, 0
26, 0, 0, 0
27, 0, 0, 0
28, 0, 0, 0
29, 0, 0, 0
30, 0, 0, 0
31, 0, 0, 0
32, 0, 0, 0
33, 0, 0, 0
34, 0, 0, 0
35, 0, 0, 0
36, 0, 0, 0
37, 0, 0, 0
38, 0, 0, 0
39, 0, 0, 0
40, 0, 0, 0
41, 0, 0, 0
42, 0, 0, 0
43, 0, 0, 0
44, 0, 0, 0
45, 0, 0, 0
46, 0, 0, 0
47, 0, 0, 0
48, 0, 0, 0
49, 0, 0, 0
50, 0, 0, 0
51, 0, 0, 0
52, 0, 0, 0
53, 0, 0, 0
54, 0, 0, 0
55, 0, 0, 0
56, 0, 0, 0
57, 0, 0, 0
58, 0, 0, 0
59, 0, 0, 0
60, 0, 0, 0
61, 0, 0, 0
62, 0, 0, 0
63, 0, 0, 0
64, 0, 0, 0
65, 0, 0, 0
66, 0, 0, 0
67, 0, 0, 0
68, 0, 0, 0
69, 0, 0, 0
70, 0, 0, 0
71, 0, 0, 0
72, 0, 0, 0
73, 0, 0, 0
74, 0, 0, 0
75, 0, 0, 0
76, 0, 0, 0
77, 0, 0, 0
78, 0, 0, 0
79, 0, 0, 0
80, 0, 0, 0
81, 0, 0, 0
82, 0, 0, 0
83, 0, 0, 0
84, 0, 0, 0
85, 0, 0, 0
86, 0, 0, 0
87, 0, 0, 0
88, 0, 0, 0
89, 0, 0, 0.0345977321267128
90, 0, 0, 0
91, 0, 0, 0
92, 0, 0, 0
93, 0, 0, 0
94, 0, 0, 0
95, 0, 0, 0
96, 0, 0, 0
97, 0, 0, 0
98, 0, 0, 0.03787502646446228
99, 0, 0, 0
100, 0, 0, 0
101, 0, 0, 0
102, 0, 0, 0
103, 0, 0, 0
104, 0, 0, 0
105, 0, 0, 0
106, 0, 0, 0
107, 0, 0, 0
108, 0, 0, 10.77096939086914
109, 0, 0, 93.78767395019531
110, 0, 0, 562.6435546875
111, 0, 0, 1340.010986328125
112, 0, 0, 2792.21875
113, 0, 0, 4249.4306640625
114, 0, 0, 4779.146484375
115, 0, 0, 4863.3994140625
116, 0, 0, 4542.5
117, 0, 0, 4016.334716796875
118, 0, 0, 3614.521240234375
119, 0, 0, 3219.5546875
120, 0, 0, 2956.36767578125
121, 0, 0, 2766.542724609375
122, 0, 0, 2610.132080078125
123, 0, 0, 2474.415771484375
124, 0, 0, 2366.8857421875
125, 0, 0, 2278.042724609375
126, 0, 0, 2194.125732421875
127, 0, 0, 2120.905517578125
128, 0, 0, 2058.250732421875
129, 0, 0, 1994.9873046875
130, 0, 0, 1940.146362304688
131, 0, 0, 1898.8232421875
132, 0, 0, 1850.093627929688
133, 0, 0, 1804.497924804688
134, 0, 0, 1767.0244140625
135, 0, 0, 1733.641235351562
136, 0, 0, 1704.791259765625
137, 0, 0, 1677.506103515625
138, 0, 0, 1641.00830078125
139, 0, 0, 1605.9326171875
140, 0, 0, 1586.117065429688
141, 0, 0, 1564.667724609375
142, 0, 0, 1524.130615234375
143, 0, 0, 1514.992797851562
144, 0, 0, 1491.24658203125
145, 0, 0, 1473.759033203125
146, 0, 0, 1455.427368164062
147, 0, 0, 1437.105590820312
148, 0, 0, 1421.771240234375
149, 0, 0, 1396.168701171875
150, 0, 0, 1379.841552734375
151, 0, 0, 1367.150390625
152, 0, 0, 1350.988891601562
153, 0, 0, 1337.123046875
154, 0, 0, 1325.245239257812
155, 0, 0, 1317.91162109375
156, 0, 0, 1298.095458984375
157, 0, 0, 1286.344604492188
158, 0, 0, 1266.070068359375
159, 0, 0, 1258.961303710938
160, 0, 0, 1247.795288085938
161, 0, 0, 1240.637573242188
162, 0, 0, 1242.372680664062
163, 0, 0, 1211.295654296875
164, 0, 0, 1204.73876953125
165, 0, 0, 1200.414184570312
166, 0, 0, 1183.818481445312
167, 0, 0, 1177.082763671875
168, 0, 0, 1175.170532226562
169, 0, 0, 1163.2373046875
170, 0, 0, 1153.936279296875
171, 0, 0, 1139.742553710938
172, 0, 0, 1136.808349609375
173, 0, 0, 1120.820434570312
174, 0, 0, 1128.93115234375
175, 0, 0, 1118.044555664062
176, 0, 0, 1106.160766601562
177, 0, 0, 1095.8115234375
178, 0, 0, 1095.878540039062
179, 0, 0, 1078.930297851562
