# TOPAS Version: 3.3.p1
# Parameter File: Test.txt
# Results for scorer MLIC_Scorer
# Scored in component: MLIC
# X in 180 bins of 0.177778 cm
# Y in 1 bin  of 10 cm
# Z in 1 bin  of 10 cm
# EnergyDeposit ( MeV ) : Sum   
0, 0, 0, 0
1, 0, 0, 0
2, 0, 0, 0
3, 0, 0, 0
4, 0, 0, 0
5, 0, 0, 0
6, 0, 0, 0
7, 0, 0, 0
8, 0, 0, 0
9, 0, 0, 0
10, 0, 0, 0
11, 0, 0, 0
12, 0, 0, 0
13, 0, 0, 0
14, 0, 0, 0
15, 0, 0, 0
16, 0, 0, 0
17, 0, 0, 0
18, 0, 0, 0
19, 0, 0, 0
20, 0, 0, 0
21, 0, 0, 0
22, 0, 0, 0
23, 0, 0, 0
24, 0, 0, 0
25, 0, 0, 0
26, 0, 0, 0
27, 0, 0, 0
28, 0, 0, 0
29, 0, 0, 0
30, 0, 0, 0
31, 0, 0, 0
32, 0, 0, 0
33, 0, 0, 0
34, 0, 0, 0
35, 0, 0, 0
36, 0, 0, 0
37, 0, 0, 0
38, 0, 0, 0
39, 0, 0, 0
40, 0, 0, 0
41, 0, 0, 0
42, 0, 0, 0
43, 0, 0, 0
44, 0, 0, 0
45, 0, 0, 0
46, 0, 0, 0
47, 0, 0, 0
48, 0, 0, 0
49, 0, 0, 0
50, 0, 0, 0
51, 0, 0, 0
52, 0, 0, 0
53, 0, 0, 0
54, 0, 0, 0
55, 0, 0, 0
56, 0, 0, 0
57, 0, 0, 0
58, 0, 0, 0
59, 0, 0, 0
60, 0, 0, 0
61, 0, 0, 0
62, 0, 0, 0
63, 0, 0, 0
64, 0, 0, 0
65, 0, 0, 35.43740844726562
66, 0, 0, 114.3770217895508
67, 0, 0, 195.4055938720703
68, 0, 0, 299.5419616699219
69, 0, 0, 390.9437255859375
70, 0, 0, 407.5774230957031
71, 0, 0, 366.2135009765625
72, 0, 0, 318.8089294433594
73, 0, 0, 276.9025573730469
74, 0, 0, 249.7993621826172
75, 0, 0, 233.5389862060547
76, 0, 0, 214.4623260498047
77, 0, 0, 203.255126953125
78, 0, 0, 193.6298217773438
79, 0, 0, 185.3771820068359
80, 0, 0, 177.9183959960938
81, 0, 0, 171.6452026367188
82, 0, 0, 166.0313720703125
83, 0, 0, 161.0177764892578
84, 0, 0, 154.9178314208984
85, 0, 0, 152.8424835205078
86, 0, 0, 145.699462890625
87, 0, 0, 143.5510559082031
88, 0, 0, 141.1753845214844
89, 0, 0, 138.4645843505859
90, 0, 0, 136.7003631591797
91, 0, 0, 131.4315185546875
92, 0, 0, 129.2617645263672
93, 0, 0, 129.1771850585938
94, 0, 0, 123.5453186035156
95, 0, 0, 123.3737487792969
96, 0, 0, 120.9273529052734
97, 0, 0, 120.40185546875
98, 0, 0, 118.0479736328125
99, 0, 0, 116.5501022338867
100, 0, 0, 116.1929244995117
101, 0, 0, 112.6249847412109
102, 0, 0, 112.2158355712891
103, 0, 0, 110.8935089111328
104, 0, 0, 109.8773727416992
105, 0, 0, 107.7460021972656
106, 0, 0, 107.1630096435547
107, 0, 0, 106.8061828613281
108, 0, 0, 103.0464401245117
109, 0, 0, 103.5617446899414
110, 0, 0, 102.69921875
111, 0, 0, 100.8661575317383
112, 0, 0, 100.5808258056641
113, 0, 0, 100.2305755615234
114, 0, 0, 99.16815185546875
115, 0, 0, 96.64155578613281
116, 0, 0, 97.25204467773438
117, 0, 0, 95.99576568603516
118, 0, 0, 95.11631011962891
119, 0, 0, 93.65927124023438
120, 0, 0, 95.12722015380859
121, 0, 0, 92.74638366699219
122, 0, 0, 90.8984375
123, 0, 0, 92.82966613769531
124, 0, 0, 89.73503875732422
125, 0, 0, 89.59169769287109
126, 0, 0, 90.19882965087891
127, 0, 0, 89.01308441162109
128, 0, 0, 88.31311798095703
129, 0, 0, 88.34906005859375
130, 0, 0, 86.68502044677734
131, 0, 0, 85.82917785644531
132, 0, 0, 85.49066925048828
133, 0, 0, 83.77059936523438
134, 0, 0, 83.75161743164062
135, 0, 0, 84.02174377441406
136, 0, 0, 85.45654296875
137, 0, 0, 84.31341552734375
138, 0, 0, 84.17117309570312
139, 0, 0, 82.67890167236328
140, 0, 0, 83.45117950439453
141, 0, 0, 80.27559661865234
142, 0, 0, 81.17024230957031
143, 0, 0, 79.95059204101562
144, 0, 0, 81.46674346923828
145, 0, 0, 80.33362579345703
146, 0, 0, 78.83384704589844
147, 0, 0, 77.5982666015625
148, 0, 0, 80.48997497558594
149, 0, 0, 77.13410186767578
150, 0, 0, 79.78840637207031
151, 0, 0, 76.42984771728516
152, 0, 0, 76.68586730957031
153, 0, 0, 77.39978790283203
154, 0, 0, 75.47924041748047
155, 0, 0, 75.70940399169922
156, 0, 0, 76.41324615478516
157, 0, 0, 75.86098480224609
158, 0, 0, 75.31462860107422
159, 0, 0, 74.32290649414062
160, 0, 0, 73.612548828125
161, 0, 0, 72.49085235595703
162, 0, 0, 74.55022430419922
163, 0, 0, 75.47267150878906
164, 0, 0, 73.26270294189453
165, 0, 0, 72.68832397460938
166, 0, 0, 72.30632781982422
167, 0, 0, 71.29217529296875
168, 0, 0, 72.79295349121094
169, 0, 0, 72.05342864990234
170, 0, 0, 71.38858032226562
171, 0, 0, 70.64445495605469
172, 0, 0, 71.31875610351562
173, 0, 0, 70.21501922607422
174, 0, 0, 70.23091125488281
175, 0, 0, 68.56474304199219
176, 0, 0, 67.6729736328125
177, 0, 0, 68.1480712890625
178, 0, 0, 70.83078002929688
179, 0, 0, 68.82948303222656
