# TOPAS Version: 3.3.p1
# Parameter File: Test.txt
# Results for scorer MLIC_Scorer
# Scored in component: MLIC
# X in 180 bins of 0.183333 cm
# Y in 1 bin  of 10 cm
# Z in 1 bin  of 10 cm
# EnergyDeposit ( MeV ) : Sum   
0, 0, 0, 0
1, 0, 0, 0
2, 0, 0, 0
3, 0, 0, 0
4, 0, 0, 0
5, 0, 0, 0
6, 0, 0, 0
7, 0, 0, 0
8, 0, 0, 0
9, 0, 0, 0
10, 0, 0, 0
11, 0, 0, 0
12, 0, 0, 0
13, 0, 0, 0
14, 0, 0, 0
15, 0, 0, 0
16, 0, 0, 0
17, 0, 0, 0
18, 0, 0, 0
19, 0, 0, 0
20, 0, 0, 0
21, 0, 0, 0
22, 0, 0, 0
23, 0, 0, 0
24, 0, 0, 0
25, 0, 0, 0
26, 0, 0, 0
27, 0, 0, 0
28, 0, 0, 0
29, 0, 0, 0
30, 0, 0, 0
31, 0, 0, 0
32, 0, 0, 0
33, 0, 0, 0
34, 0, 0, 0
35, 0, 0, 0
36, 0, 0, 0.0004814230487681925
37, 0, 0, 0
38, 0, 0, 3.318835496902466
39, 0, 0, 41.10862350463867
40, 0, 0, 167.1549530029297
41, 0, 0, 719.5615844726562
42, 0, 0, 1685.61083984375
43, 0, 0, 3202.06201171875
44, 0, 0, 4668.30322265625
45, 0, 0, 5073.83447265625
46, 0, 0, 5111.69482421875
47, 0, 0, 4525.4970703125
48, 0, 0, 3922.286865234375
49, 0, 0, 3474.807373046875
50, 0, 0, 3147.964111328125
51, 0, 0, 2930.011474609375
52, 0, 0, 2743.397216796875
53, 0, 0, 2600.551025390625
54, 0, 0, 2477.691162109375
55, 0, 0, 2372.0966796875
56, 0, 0, 2281.274658203125
57, 0, 0, 2197.17529296875
58, 0, 0, 2137.894775390625
59, 0, 0, 2070.15625
60, 0, 0, 2011.603515625
61, 0, 0, 1960.990234375
62, 0, 0, 1911.871826171875
63, 0, 0, 1866.512817382812
64, 0, 0, 1819.98974609375
65, 0, 0, 1782.834106445312
66, 0, 0, 1756.45458984375
67, 0, 0, 1709.166015625
68, 0, 0, 1691.85791015625
69, 0, 0, 1662.789428710938
70, 0, 0, 1618.975341796875
71, 0, 0, 1598.411865234375
72, 0, 0, 1578.394409179688
73, 0, 0, 1555.98291015625
74, 0, 0, 1533.321411132812
75, 0, 0, 1512.796997070312
76, 0, 0, 1497.522338867188
77, 0, 0, 1469.981323242188
78, 0, 0, 1458.369750976562
79, 0, 0, 1437.2783203125
80, 0, 0, 1422.283569335938
81, 0, 0, 1400.021240234375
82, 0, 0, 1389.35009765625
83, 0, 0, 1375.214233398438
84, 0, 0, 1351.537353515625
85, 0, 0, 1345.315063476562
86, 0, 0, 1326.348754882812
87, 0, 0, 1309.21142578125
88, 0, 0, 1307.8095703125
89, 0, 0, 1294.364379882812
90, 0, 0, 1284.47314453125
91, 0, 0, 1271.899047851562
92, 0, 0, 1255.367553710938
93, 0, 0, 1242.900024414062
94, 0, 0, 1236.017578125
95, 0, 0, 1220.946044921875
96, 0, 0, 1215.78271484375
97, 0, 0, 1200.568481445312
98, 0, 0, 1197.3203125
99, 0, 0, 1193.5
100, 0, 0, 1179.462768554688
101, 0, 0, 1160.663696289062
102, 0, 0, 1168.214111328125
103, 0, 0, 1156.606689453125
104, 0, 0, 1143.306762695312
105, 0, 0, 1143.334228515625
106, 0, 0, 1138.81396484375
107, 0, 0, 1125.60107421875
108, 0, 0, 1115.723876953125
109, 0, 0, 1102.799560546875
110, 0, 0, 1110.790161132812
111, 0, 0, 1098.552612304688
112, 0, 0, 1088.664794921875
113, 0, 0, 1083.958374023438
114, 0, 0, 1070.539184570312
115, 0, 0, 1075.184448242188
116, 0, 0, 1061.56103515625
117, 0, 0, 1065.299072265625
118, 0, 0, 1049.421264648438
119, 0, 0, 1051.951538085938
120, 0, 0, 1042.682739257812
121, 0, 0, 1044.419555664062
122, 0, 0, 1032.285278320312
123, 0, 0, 1027.354858398438
124, 0, 0, 1030.3232421875
125, 0, 0, 1019.342041015625
126, 0, 0, 1009.357543945312
127, 0, 0, 1003.202331542969
128, 0, 0, 1003.564514160156
129, 0, 0, 1002.537109375
130, 0, 0, 997.0348510742188
131, 0, 0, 984.214111328125
132, 0, 0, 984.47802734375
133, 0, 0, 983.3052978515625
134, 0, 0, 981.9950561523438
135, 0, 0, 972.7833862304688
136, 0, 0, 970.0323486328125
137, 0, 0, 962.689453125
138, 0, 0, 965.8883056640625
139, 0, 0, 962.3209228515625
140, 0, 0, 956.971435546875
141, 0, 0, 948.3063354492188
142, 0, 0, 942.1438598632812
143, 0, 0, 948.227783203125
144, 0, 0, 942.374755859375
145, 0, 0, 940.017822265625
146, 0, 0, 932.6346435546875
147, 0, 0, 932.1163940429688
148, 0, 0, 919.868896484375
149, 0, 0, 919.6239624023438
150, 0, 0, 916.2808837890625
151, 0, 0, 906.6206665039062
152, 0, 0, 906.7432861328125
153, 0, 0, 909.5159912109375
154, 0, 0, 912.003173828125
155, 0, 0, 896.4640502929688
156, 0, 0, 893.5277099609375
157, 0, 0, 894.1395263671875
158, 0, 0, 895.1766967773438
159, 0, 0, 892.9863891601562
160, 0, 0, 884.2239379882812
161, 0, 0, 880.0145874023438
162, 0, 0, 887.224365234375
163, 0, 0, 872.2279052734375
164, 0, 0, 869.0465698242188
165, 0, 0, 872.328125
166, 0, 0, 868.4548950195312
167, 0, 0, 863.7779541015625
168, 0, 0, 869.5994873046875
169, 0, 0, 858.8941040039062
170, 0, 0, 850.795654296875
171, 0, 0, 852.236572265625
172, 0, 0, 856.1286010742188
173, 0, 0, 845.6370849609375
174, 0, 0, 845.5410766601562
175, 0, 0, 837.6996459960938
176, 0, 0, 845.656005859375
177, 0, 0, 840.0711669921875
178, 0, 0, 841.8470458984375
179, 0, 0, 835.90966796875
