# TOPAS Version: 3.3.p1
# Parameter File: Test.txt
# Results for scorer MLIC_Scorer
# Scored in component: MLIC
# X in 165 bins of 0.2 cm
# Y in 1 bin  of 10 cm
# Z in 1 bin  of 10 cm
# EnergyDeposit ( MeV ) : Sum   
0, 0, 0, 860.4855346679688
1, 0, 0, 858.8989868164062
2, 0, 0, 867.8218994140625
3, 0, 0, 865.9373168945312
4, 0, 0, 861.703369140625
5, 0, 0, 873.4588012695312
6, 0, 0, 875.9578247070312
7, 0, 0, 868.8763427734375
8, 0, 0, 881.333251953125
9, 0, 0, 887.4713745117188
10, 0, 0, 883.3989868164062
11, 0, 0, 892.3250732421875
12, 0, 0, 888.6245727539062
13, 0, 0, 889.2448120117188
14, 0, 0, 898.897216796875
15, 0, 0, 897.7577514648438
16, 0, 0, 897.7606811523438
17, 0, 0, 916.98974609375
18, 0, 0, 899.4249267578125
19, 0, 0, 911.7068481445312
20, 0, 0, 912.2118530273438
21, 0, 0, 911.2434692382812
22, 0, 0, 921.0748901367188
23, 0, 0, 922.5040283203125
24, 0, 0, 919.9804077148438
25, 0, 0, 927.2390747070312
26, 0, 0, 927.2924194335938
27, 0, 0, 926.4467163085938
28, 0, 0, 931.7479858398438
29, 0, 0, 932.2539672851562
30, 0, 0, 944.87548828125
31, 0, 0, 952.1576538085938
32, 0, 0, 949.7107543945312
33, 0, 0, 949.0556030273438
34, 0, 0, 949.7079467773438
35, 0, 0, 961.6484985351562
36, 0, 0, 960.9575805664062
37, 0, 0, 959.3269653320312
38, 0, 0, 963.89599609375
39, 0, 0, 967.1569213867188
40, 0, 0, 977.5534057617188
41, 0, 0, 969.6331176757812
42, 0, 0, 983.009033203125
43, 0, 0, 980.8970947265625
44, 0, 0, 989.4746704101562
45, 0, 0, 996.7517700195312
46, 0, 0, 992.667724609375
47, 0, 0, 995.1119384765625
48, 0, 0, 1004.560241699219
49, 0, 0, 1003.053039550781
50, 0, 0, 1005.624206542969
51, 0, 0, 1018.114135742188
52, 0, 0, 1021.687255859375
53, 0, 0, 1021.521301269531
54, 0, 0, 1034.365966796875
55, 0, 0, 1034.799560546875
56, 0, 0, 1031.63671875
57, 0, 0, 1050.713134765625
58, 0, 0, 1054.195434570312
59, 0, 0, 1050.265991210938
60, 0, 0, 1053.032470703125
61, 0, 0, 1060.358642578125
62, 0, 0, 1066.758178710938
63, 0, 0, 1070.393920898438
64, 0, 0, 1080.207397460938
65, 0, 0, 1086.713256835938
66, 0, 0, 1091.758056640625
67, 0, 0, 1105.857421875
68, 0, 0, 1100.779052734375
69, 0, 0, 1105.181274414062
70, 0, 0, 1110.708374023438
71, 0, 0, 1117.302856445312
72, 0, 0, 1125.161010742188
73, 0, 0, 1132.562255859375
74, 0, 0, 1135.089721679688
75, 0, 0, 1145.226196289062
76, 0, 0, 1145.414184570312
77, 0, 0, 1156.450439453125
78, 0, 0, 1162.936401367188
79, 0, 0, 1175.755615234375
80, 0, 0, 1181.975830078125
81, 0, 0, 1186.539794921875
82, 0, 0, 1193.170288085938
83, 0, 0, 1204.82861328125
84, 0, 0, 1216.366455078125
85, 0, 0, 1217.045288085938
86, 0, 0, 1236.197509765625
87, 0, 0, 1233.2587890625
88, 0, 0, 1243.314697265625
89, 0, 0, 1250.085571289062
90, 0, 0, 1266.237670898438
91, 0, 0, 1270.976440429688
92, 0, 0, 1283.590576171875
93, 0, 0, 1292.162841796875
94, 0, 0, 1304.606567382812
95, 0, 0, 1310.617553710938
96, 0, 0, 1326.6435546875
97, 0, 0, 1338.4453125
98, 0, 0, 1347.223876953125
99, 0, 0, 1357.011596679688
100, 0, 0, 1381.462280273438
101, 0, 0, 1384.86474609375
102, 0, 0, 1402.40966796875
103, 0, 0, 1425.002197265625
104, 0, 0, 1438.000732421875
105, 0, 0, 1442.299194335938
106, 0, 0, 1465.589477539062
107, 0, 0, 1484.274780273438
108, 0, 0, 1502.002807617188
109, 0, 0, 1519.027954101562
110, 0, 0, 1544.206298828125
111, 0, 0, 1551.400390625
112, 0, 0, 1571.643432617188
113, 0, 0, 1598.132934570312
114, 0, 0, 1611.960815429688
115, 0, 0, 1647.403930664062
116, 0, 0, 1661.762329101562
117, 0, 0, 1694.029174804688
118, 0, 0, 1723.164794921875
119, 0, 0, 1753.505493164062
120, 0, 0, 1776.502075195312
121, 0, 0, 1811.786743164062
122, 0, 0, 1842.664916992188
123, 0, 0, 1885.133056640625
124, 0, 0, 1920.40185546875
125, 0, 0, 1968.76513671875
126, 0, 0, 2009.441284179688
127, 0, 0, 2066.390869140625
128, 0, 0, 2122.535888671875
129, 0, 0, 2184.325927734375
130, 0, 0, 2255.80419921875
131, 0, 0, 2332.992919921875
132, 0, 0, 2423.67333984375
133, 0, 0, 2518.642578125
134, 0, 0, 2632.27001953125
135, 0, 0, 2769.509765625
136, 0, 0, 2927.20849609375
137, 0, 0, 3123.193115234375
138, 0, 0, 3388.30419921875
139, 0, 0, 3755.478759765625
140, 0, 0, 4195.01513671875
141, 0, 0, 4869.08935546875
142, 0, 0, 5338.9462890625
143, 0, 0, 5473.81787109375
144, 0, 0, 4607.0546875
145, 0, 0, 3082.095947265625
146, 0, 0, 1445.369995117188
147, 0, 0, 487.8264770507812
148, 0, 0, 138.8348388671875
149, 0, 0, 29.84215545654297
150, 0, 0, 0.05026839673519135
151, 0, 0, 0
152, 0, 0, 0
153, 0, 0, 0
154, 0, 0, 0
155, 0, 0, 0
156, 0, 0, 0
157, 0, 0, 0.004519449081271887
158, 0, 0, 0
159, 0, 0, 0
160, 0, 0, 0
161, 0, 0, 0
162, 0, 0, 0
163, 0, 0, 0
164, 0, 0, 0
