# TOPAS Version: 3.3.p1
# Parameter File: Test.txt
# Results for scorer MLIC_Scorer
# Scored in component: MLIC
# X in 180 bins of 0.177778 cm
# Y in 1 bin  of 10 cm
# Z in 1 bin  of 10 cm
# EnergyDeposit ( MeV ) : Sum   
0, 0, 0, 0.01606001518666744
1, 0, 0, 0
2, 0, 0, 0
3, 0, 0, 0
4, 0, 0, 0
5, 0, 0, 0
6, 0, 0, 0
7, 0, 0, 0
8, 0, 0, 0
9, 0, 0, 0
10, 0, 0, 10.23623657226562
11, 0, 0, 53.28797912597656
12, 0, 0, 197.6283264160156
13, 0, 0, 853.5001220703125
14, 0, 0, 1932.061767578125
15, 0, 0, 3187.669921875
16, 0, 0, 4516
17, 0, 0, 5177.986328125
18, 0, 0, 4824.94580078125
19, 0, 0, 4295.962890625
20, 0, 0, 3836.555419921875
21, 0, 0, 3419.322998046875
22, 0, 0, 3091.213134765625
23, 0, 0, 2862.5244140625
24, 0, 0, 2695.887451171875
25, 0, 0, 2551.809814453125
26, 0, 0, 2427.9228515625
27, 0, 0, 2325.6005859375
28, 0, 0, 2245.564453125
29, 0, 0, 2167.085693359375
30, 0, 0, 2094.644287109375
31, 0, 0, 2035.17041015625
32, 0, 0, 1975.819458007812
33, 0, 0, 1919.5517578125
34, 0, 0, 1878.397705078125
35, 0, 0, 1830.608032226562
36, 0, 0, 1792.249755859375
37, 0, 0, 1751.682495117188
38, 0, 0, 1721.20068359375
39, 0, 0, 1689.822509765625
40, 0, 0, 1651.088500976562
41, 0, 0, 1632.68798828125
42, 0, 0, 1600.40478515625
43, 0, 0, 1572.342407226562
44, 0, 0, 1546.999389648438
45, 0, 0, 1523.970336914062
46, 0, 0, 1507.462890625
47, 0, 0, 1483.362426757812
48, 0, 0, 1462.780639648438
49, 0, 0, 1445.015991210938
50, 0, 0, 1425.864379882812
51, 0, 0, 1408.266967773438
52, 0, 0, 1391.601806640625
53, 0, 0, 1376.721313476562
54, 0, 0, 1366.513916015625
55, 0, 0, 1353.263793945312
56, 0, 0, 1335.6669921875
57, 0, 0, 1313.4306640625
58, 0, 0, 1295.797241210938
59, 0, 0, 1295.381469726562
60, 0, 0, 1276.759155273438
61, 0, 0, 1266.951293945312
62, 0, 0, 1254.177856445312
63, 0, 0, 1244.581665039062
64, 0, 0, 1235.168823242188
65, 0, 0, 1226.236328125
66, 0, 0, 1216.154663085938
67, 0, 0, 1193.28125
68, 0, 0, 1198.703735351562
69, 0, 0, 1189.409301757812
70, 0, 0, 1173.859252929688
71, 0, 0, 1172.874389648438
72, 0, 0, 1159.668701171875
73, 0, 0, 1153.74658203125
74, 0, 0, 1145.558349609375
75, 0, 0, 1137.694580078125
76, 0, 0, 1128.368530273438
77, 0, 0, 1123.076049804688
78, 0, 0, 1108.900146484375
79, 0, 0, 1105.776123046875
80, 0, 0, 1102.765380859375
81, 0, 0, 1083.963745117188
82, 0, 0, 1081.764770507812
83, 0, 0, 1077.130493164062
84, 0, 0, 1065.611938476562
85, 0, 0, 1065.728271484375
86, 0, 0, 1059.641967773438
87, 0, 0, 1044.452392578125
88, 0, 0, 1050.579223632812
89, 0, 0, 1041.017578125
90, 0, 0, 1036.369140625
91, 0, 0, 1031.505249023438
92, 0, 0, 1029.588012695312
93, 0, 0, 1016.16650390625
94, 0, 0, 1011.859802246094
95, 0, 0, 1007.635803222656
96, 0, 0, 1010.6484375
97, 0, 0, 1001.0791015625
98, 0, 0, 990.5496215820312
99, 0, 0, 985.8143920898438
100, 0, 0, 989.6029052734375
101, 0, 0, 982.3844604492188
102, 0, 0, 974.4246215820312
103, 0, 0, 975.03125
104, 0, 0, 963.5238037109375
105, 0, 0, 960.3422241210938
106, 0, 0, 963.5242309570312
107, 0, 0, 950.0581665039062
108, 0, 0, 953.0742797851562
109, 0, 0, 946.8381958007812
110, 0, 0, 949.5399169921875
111, 0, 0, 937.0624389648438
112, 0, 0, 931.3201293945312
113, 0, 0, 924.7003784179688
114, 0, 0, 923.5978393554688
115, 0, 0, 918.5053100585938
116, 0, 0, 910.1563720703125
117, 0, 0, 922.7448120117188
118, 0, 0, 911.0969848632812
119, 0, 0, 915.7446899414062
120, 0, 0, 905.0956420898438
121, 0, 0, 903.5494384765625
122, 0, 0, 897.81689453125
123, 0, 0, 894.055908203125
124, 0, 0, 890.2396240234375
125, 0, 0, 892.4256591796875
126, 0, 0, 883.84033203125
127, 0, 0, 886.34326171875
128, 0, 0, 881.0220336914062
129, 0, 0, 872.269287109375
130, 0, 0, 875.96875
131, 0, 0, 866.9557495117188
132, 0, 0, 872.0460815429688
133, 0, 0, 862.5665893554688
134, 0, 0, 865.4537963867188
135, 0, 0, 856.1056518554688
136, 0, 0, 850.1807250976562
137, 0, 0, 849.69677734375
138, 0, 0, 847.1297607421875
139, 0, 0, 851.5319213867188
140, 0, 0, 856.1500244140625
141, 0, 0, 843.0919799804688
142, 0, 0, 842.9058837890625
143, 0, 0, 834.8848876953125
144, 0, 0, 837.5924682617188
145, 0, 0, 831.6983032226562
146, 0, 0, 827.1934204101562
147, 0, 0, 825.5875854492188
148, 0, 0, 828.8367919921875
149, 0, 0, 828.8919067382812
150, 0, 0, 823.6047973632812
151, 0, 0, 819.0885009765625
152, 0, 0, 814.8692016601562
153, 0, 0, 814.3922729492188
154, 0, 0, 815.8358764648438
155, 0, 0, 809.5159301757812
156, 0, 0, 810.267333984375
157, 0, 0, 804.5062866210938
158, 0, 0, 801.4138793945312
159, 0, 0, 798.781982421875
160, 0, 0, 802.0758056640625
161, 0, 0, 798.9937133789062
162, 0, 0, 790.733154296875
163, 0, 0, 792.1287231445312
164, 0, 0, 794.1861572265625
165, 0, 0, 792.0283203125
166, 0, 0, 784.0547485351562
167, 0, 0, 792.5435791015625
168, 0, 0, 780.4491577148438
169, 0, 0, 783.226806640625
170, 0, 0, 784.1107788085938
171, 0, 0, 779.9800415039062
172, 0, 0, 772.4556884765625
173, 0, 0, 773.7235107421875
174, 0, 0, 774.8128051757812
175, 0, 0, 773.0887451171875
176, 0, 0, 772.8330688476562
177, 0, 0, 773.1653442382812
178, 0, 0, 763.4666137695312
179, 0, 0, 769.593505859375
