# TOPAS Version: 3.3.p1
# Parameter File: Test.txt
# Results for scorer MLIC_Scorer
# Scored in component: MLIC
# X in 180 bins of 0.177778 cm
# Y in 1 bin  of 10 cm
# Z in 1 bin  of 10 cm
# EnergyDeposit ( MeV ) : Sum   
0, 0, 0, 0
1, 0, 0, 0
2, 0, 0, 0
3, 0, 0, 0
4, 0, 0, 10.62690544128418
5, 0, 0, 30.33712768554688
6, 0, 0, 115.1619644165039
7, 0, 0, 330.1940002441406
8, 0, 0, 977.462158203125
9, 0, 0, 2048.338623046875
10, 0, 0, 3342.606201171875
11, 0, 0, 4514.72900390625
12, 0, 0, 5130.783203125
13, 0, 0, 4843.94189453125
14, 0, 0, 4221.1142578125
15, 0, 0, 3730.147705078125
16, 0, 0, 3352.309326171875
17, 0, 0, 3079.970947265625
18, 0, 0, 2856.04443359375
19, 0, 0, 2677.1533203125
20, 0, 0, 2536.23828125
21, 0, 0, 2413.962158203125
22, 0, 0, 2315.8037109375
23, 0, 0, 2232.66748046875
24, 0, 0, 2150.5986328125
25, 0, 0, 2077.27197265625
26, 0, 0, 2027.122680664062
27, 0, 0, 1962.5244140625
28, 0, 0, 1913.623779296875
29, 0, 0, 1866.821044921875
30, 0, 0, 1822.405029296875
31, 0, 0, 1792.074340820312
32, 0, 0, 1743.286376953125
33, 0, 0, 1710.950073242188
34, 0, 0, 1676.216430664062
35, 0, 0, 1655.068969726562
36, 0, 0, 1618.81103515625
37, 0, 0, 1597.239135742188
38, 0, 0, 1566.82275390625
39, 0, 0, 1542.444213867188
40, 0, 0, 1527.492431640625
41, 0, 0, 1498.7607421875
42, 0, 0, 1481.658569335938
43, 0, 0, 1463.271362304688
44, 0, 0, 1450.098510742188
45, 0, 0, 1422.252563476562
46, 0, 0, 1409.412109375
47, 0, 0, 1389.447143554688
48, 0, 0, 1371.997314453125
49, 0, 0, 1363.340454101562
50, 0, 0, 1348.878784179688
51, 0, 0, 1328.2607421875
52, 0, 0, 1319.588134765625
53, 0, 0, 1298.744750976562
54, 0, 0, 1292.407348632812
55, 0, 0, 1279.025390625
56, 0, 0, 1267.29052734375
57, 0, 0, 1253.138916015625
58, 0, 0, 1240.449462890625
59, 0, 0, 1233.668579101562
60, 0, 0, 1221.752807617188
61, 0, 0, 1208.247192382812
62, 0, 0, 1201.900390625
63, 0, 0, 1187.603515625
64, 0, 0, 1174.833740234375
65, 0, 0, 1171.959106445312
66, 0, 0, 1167.214599609375
67, 0, 0, 1154.534301757812
68, 0, 0, 1153.689331054688
69, 0, 0, 1149.992553710938
70, 0, 0, 1123.260498046875
71, 0, 0, 1127.077026367188
72, 0, 0, 1114.803100585938
73, 0, 0, 1106.544799804688
74, 0, 0, 1109.060913085938
75, 0, 0, 1099.797119140625
76, 0, 0, 1084.87255859375
77, 0, 0, 1080.967651367188
78, 0, 0, 1077.670043945312
79, 0, 0, 1066.03955078125
80, 0, 0, 1058.757446289062
81, 0, 0, 1065.625732421875
82, 0, 0, 1046.297241210938
83, 0, 0, 1047.162841796875
84, 0, 0, 1043.015991210938
85, 0, 0, 1026.281494140625
86, 0, 0, 1030.98193359375
87, 0, 0, 1025.594848632812
88, 0, 0, 1021.202392578125
89, 0, 0, 1011.635070800781
90, 0, 0, 1005.517883300781
91, 0, 0, 996.9773559570312
92, 0, 0, 993.1119384765625
93, 0, 0, 991.6172485351562
94, 0, 0, 989.5061645507812
95, 0, 0, 979.4563598632812
96, 0, 0, 978.1865844726562
97, 0, 0, 970.6838989257812
98, 0, 0, 973.8219604492188
99, 0, 0, 970.1119995117188
100, 0, 0, 967.828857421875
101, 0, 0, 952.8948974609375
102, 0, 0, 955.5994873046875
103, 0, 0, 941.5634155273438
104, 0, 0, 945.834228515625
105, 0, 0, 943.2138061523438
106, 0, 0, 940.26123046875
107, 0, 0, 940.0306396484375
108, 0, 0, 923.3678588867188
109, 0, 0, 926.78662109375
110, 0, 0, 931.8113403320312
111, 0, 0, 920.0416870117188
112, 0, 0, 907.4784545898438
113, 0, 0, 913.5367431640625
114, 0, 0, 912.9049072265625
115, 0, 0, 902.3910522460938
116, 0, 0, 909.3056030273438
117, 0, 0, 890.1305541992188
118, 0, 0, 896.84814453125
119, 0, 0, 892.74609375
120, 0, 0, 889.021240234375
121, 0, 0, 880.1605834960938
122, 0, 0, 885.4606323242188
123, 0, 0, 878.3712768554688
124, 0, 0, 870.459716796875
125, 0, 0, 873.3167724609375
126, 0, 0, 871.5997924804688
127, 0, 0, 865.0675048828125
128, 0, 0, 865.3682250976562
129, 0, 0, 863.0057373046875
130, 0, 0, 853.3086547851562
131, 0, 0, 862.8719482421875
132, 0, 0, 854.77880859375
133, 0, 0, 849.516357421875
134, 0, 0, 855.068603515625
135, 0, 0, 852.2635498046875
136, 0, 0, 844.9443359375
137, 0, 0, 844.9088134765625
138, 0, 0, 835.0548095703125
139, 0, 0, 837.8872680664062
140, 0, 0, 833.3878173828125
141, 0, 0, 830.3609619140625
142, 0, 0, 827.9495849609375
143, 0, 0, 818.235595703125
144, 0, 0, 828.5706787109375
145, 0, 0, 818.1404418945312
146, 0, 0, 818.09521484375
147, 0, 0, 808.8803100585938
148, 0, 0, 812.4430541992188
149, 0, 0, 807.3853759765625
150, 0, 0, 810.9303588867188
151, 0, 0, 810.4796142578125
152, 0, 0, 796.251220703125
153, 0, 0, 802.6732177734375
154, 0, 0, 786.0052490234375
155, 0, 0, 806.6141967773438
156, 0, 0, 800.7701416015625
157, 0, 0, 794.1925048828125
158, 0, 0, 790.6721801757812
159, 0, 0, 788.9634399414062
160, 0, 0, 789.4942016601562
161, 0, 0, 790.9927368164062
162, 0, 0, 792.8511962890625
163, 0, 0, 779.591552734375
164, 0, 0, 776.2659912109375
165, 0, 0, 784.2489624023438
166, 0, 0, 780.014892578125
167, 0, 0, 776.3441162109375
168, 0, 0, 782.0531616210938
169, 0, 0, 768.9867553710938
170, 0, 0, 771.4988403320312
171, 0, 0, 764.7559204101562
172, 0, 0, 768.3177490234375
173, 0, 0, 766.3822631835938
174, 0, 0, 765.5244750976562
175, 0, 0, 756.5032958984375
176, 0, 0, 765.1700439453125
177, 0, 0, 761.24658203125
178, 0, 0, 759.8905639648438
179, 0, 0, 757.4248657226562
