# TOPAS Version: 3.3.p1
# Parameter File: Test.txt
# Results for scorer MLIC_Scorer
# Scored in component: MLIC
# X in 180 bins of 0.177778 cm
# Y in 1 bin  of 10 cm
# Z in 1 bin  of 10 cm
# EnergyDeposit ( MeV ) : Sum   
0, 0, 0, 0
1, 0, 0, 0
2, 0, 0, 0
3, 0, 0, 0
4, 0, 0, 0
5, 0, 0, 0
6, 0, 0, 0
7, 0, 0, 0
8, 0, 0, 0
9, 0, 0, 0
10, 0, 0, 0
11, 0, 0, 0
12, 0, 0, 0
13, 0, 0, 0
14, 0, 0, 0
15, 0, 0, 0
16, 0, 0, 0
17, 0, 0, 0
18, 0, 0, 0
19, 0, 0, 0
20, 0, 0, 0
21, 0, 0, 0
22, 0, 0, 0
23, 0, 0, 0
24, 0, 0, 0
25, 0, 0, 0
26, 0, 0, 0
27, 0, 0, 0
28, 0, 0, 0
29, 0, 0, 0
30, 0, 0, 0
31, 0, 0, 0
32, 0, 0, 0
33, 0, 0, 0
34, 0, 0, 0
35, 0, 0, 0
36, 0, 0, 0
37, 0, 0, 0
38, 0, 0, 0
39, 0, 0, 0
40, 0, 0, 0
41, 0, 0, 0
42, 0, 0, 0
43, 0, 0, 0
44, 0, 0, 0
45, 0, 0, 0
46, 0, 0, 0
47, 0, 0, 0
48, 0, 0, 0
49, 0, 0, 0
50, 0, 0, 0
51, 0, 0, 0
52, 0, 0, 0
53, 0, 0, 0
54, 0, 0, 0
55, 0, 0, 0
56, 0, 0, 0
57, 0, 0, 0
58, 0, 0, 0
59, 0, 0, 0
60, 0, 0, 0
61, 0, 0, 0
62, 0, 0, 0
63, 0, 0, 0
64, 0, 0, 0
65, 0, 0, 0
66, 0, 0, 0
67, 0, 0, 0
68, 0, 0, 0
69, 0, 0, 0
70, 0, 0, 0
71, 0, 0, 0
72, 0, 0, 0
73, 0, 0, 0
74, 0, 0, 0
75, 0, 0, 0
76, 0, 0, 0
77, 0, 0, 0
78, 0, 0, 0
79, 0, 0, 0
80, 0, 0, 0
81, 0, 0, 0
82, 0, 0, 0
83, 0, 0, 0
84, 0, 0, 0
85, 0, 0, 0
86, 0, 0, 0
87, 0, 0, 0
88, 0, 0, 0
89, 0, 0, 0
90, 0, 0, 0
91, 0, 0, 0
92, 0, 0, 0
93, 0, 0, 0
94, 0, 0, 0
95, 0, 0, 0
96, 0, 0, 0
97, 0, 0, 0
98, 0, 0, 0
99, 0, 0, 0
100, 0, 0, 0
101, 0, 0, 0
102, 0, 0, 0
103, 0, 0, 0
104, 0, 0, 0
105, 0, 0, 0
106, 0, 0, 0
107, 0, 0, 0
108, 0, 0, 0
109, 0, 0, 0
110, 0, 0, 0
111, 0, 0, 0
112, 0, 0, 0
113, 0, 0, 0
114, 0, 0, 0
115, 0, 0, 0
116, 0, 0, 0
117, 0, 0, 0
118, 0, 0, 0
119, 0, 0, 0
120, 0, 0, 0
121, 0, 0, 0
122, 0, 0, 0
123, 0, 0, 0
124, 0, 0, 0
125, 0, 0, 0
126, 0, 0, 0
127, 0, 0, 0
128, 0, 0, 0
129, 0, 0, 0
130, 0, 0, 0
131, 0, 0, 0
132, 0, 0, 0
133, 0, 0, 0
134, 0, 0, 0
135, 0, 0, 4.990385055541992
136, 0, 0, 75.32294464111328
137, 0, 0, 210.6375579833984
138, 0, 0, 764.535888671875
139, 0, 0, 1822.9072265625
140, 0, 0, 3272.96337890625
141, 0, 0, 4638.74560546875
142, 0, 0, 5174.1494140625
143, 0, 0, 4885.33935546875
144, 0, 0, 4357.79638671875
145, 0, 0, 3782.5966796875
146, 0, 0, 3394.9765625
147, 0, 0, 3090.6826171875
148, 0, 0, 2859.228759765625
149, 0, 0, 2683.25
150, 0, 0, 2548.181396484375
151, 0, 0, 2424.25
152, 0, 0, 2327.037841796875
153, 0, 0, 2249.330322265625
154, 0, 0, 2166.609375
155, 0, 0, 2094.7216796875
156, 0, 0, 2024.566772460938
157, 0, 0, 1967.824584960938
158, 0, 0, 1916.585815429688
159, 0, 0, 1878.619995117188
160, 0, 0, 1837.939331054688
161, 0, 0, 1783.280029296875
162, 0, 0, 1747.66064453125
163, 0, 0, 1716.669921875
164, 0, 0, 1686.7294921875
165, 0, 0, 1661.916748046875
166, 0, 0, 1621.334350585938
167, 0, 0, 1596.691772460938
168, 0, 0, 1570.584350585938
169, 0, 0, 1552.243408203125
170, 0, 0, 1528.850952148438
171, 0, 0, 1506.212280273438
172, 0, 0, 1480.62744140625
173, 0, 0, 1458.552978515625
174, 0, 0, 1440.908081054688
175, 0, 0, 1426.710083007812
176, 0, 0, 1412.0791015625
177, 0, 0, 1398.942260742188
178, 0, 0, 1376.906860351562
179, 0, 0, 1365.414184570312
