# TOPAS Version: 3.3.p1
# Parameter File: Test.txt
# Results for scorer MLIC_Scorer
# Scored in component: MLIC
# X in 180 bins of 0.177778 cm
# Y in 1 bin  of 10 cm
# Z in 1 bin  of 10 cm
# EnergyDeposit ( MeV ) : Sum   
0, 0, 0, 0
1, 0, 0, 0
2, 0, 0, 0
3, 0, 0, 0.003007655730471015
4, 0, 0, 0
5, 0, 0, 0.001356240478344262
6, 0, 0, 0
7, 0, 0, 0
8, 0, 0, 0
9, 0, 0, 0
10, 0, 0, 0.01471566036343575
11, 0, 0, 0
12, 0, 0, 0
13, 0, 0, 0
14, 0, 0, 0
15, 0, 0, 0
16, 0, 0, 0.03951185569167137
17, 0, 0, 0
18, 0, 0, 0
19, 0, 0, 0.01225685141980648
20, 0, 0, 0
21, 0, 0, 0
22, 0, 0, 0
23, 0, 0, 0
24, 0, 0, 0
25, 0, 0, 0.05355600640177727
26, 0, 0, 0
27, 0, 0, 0
28, 0, 0, 0
29, 0, 0, 0
30, 0, 0, 0.003754035569727421
31, 0, 0, 0.02888029627501965
32, 0, 0, 0
33, 0, 0, 0
34, 0, 0, 0
35, 0, 0, 0
36, 0, 0, 8.630553245544434
37, 0, 0, 7.196396350860596
38, 0, 0, 150.1502838134766
39, 0, 0, 547.48583984375
40, 0, 0, 1627.769653320312
41, 0, 0, 3038.80810546875
42, 0, 0, 4574.9736328125
43, 0, 0, 5057.06640625
44, 0, 0, 4960.20947265625
45, 0, 0, 4404.87060546875
46, 0, 0, 3918.051513671875
47, 0, 0, 3433.14892578125
48, 0, 0, 3124.31689453125
49, 0, 0, 2895.32861328125
50, 0, 0, 2711.69970703125
51, 0, 0, 2573.87451171875
52, 0, 0, 2448.65087890625
53, 0, 0, 2338.005126953125
54, 0, 0, 2250.5068359375
55, 0, 0, 2173.32861328125
56, 0, 0, 2099.471923828125
57, 0, 0, 2041.1064453125
58, 0, 0, 1979.223510742188
59, 0, 0, 1935.874389648438
60, 0, 0, 1883.815063476562
61, 0, 0, 1840.466186523438
62, 0, 0, 1791.656005859375
63, 0, 0, 1757.436157226562
64, 0, 0, 1722.90087890625
65, 0, 0, 1701.688598632812
66, 0, 0, 1657.313110351562
67, 0, 0, 1629.43701171875
68, 0, 0, 1599.911743164062
69, 0, 0, 1578.583374023438
70, 0, 0, 1556.813598632812
71, 0, 0, 1524.414916992188
72, 0, 0, 1510.8330078125
73, 0, 0, 1489.299194335938
74, 0, 0, 1468.26171875
75, 0, 0, 1452.254516601562
76, 0, 0, 1428.763916015625
77, 0, 0, 1412.2607421875
78, 0, 0, 1396.410888671875
79, 0, 0, 1383.907104492188
80, 0, 0, 1363.229125976562
81, 0, 0, 1348.935302734375
82, 0, 0, 1339.9599609375
83, 0, 0, 1320.824462890625
84, 0, 0, 1312.86865234375
85, 0, 0, 1299.2080078125
86, 0, 0, 1281.410034179688
87, 0, 0, 1267.263916015625
88, 0, 0, 1260.582763671875
89, 0, 0, 1245.501586914062
90, 0, 0, 1234.751831054688
91, 0, 0, 1232.349243164062
92, 0, 0, 1214.603637695312
93, 0, 0, 1207.658325195312
94, 0, 0, 1189.2919921875
95, 0, 0, 1181.875732421875
96, 0, 0, 1179.427978515625
97, 0, 0, 1166.403930664062
98, 0, 0, 1168.148803710938
99, 0, 0, 1151.494750976562
100, 0, 0, 1136.538940429688
101, 0, 0, 1138.065185546875
102, 0, 0, 1125.071166992188
103, 0, 0, 1117.682006835938
104, 0, 0, 1110.798828125
105, 0, 0, 1101.3369140625
106, 0, 0, 1108.23974609375
107, 0, 0, 1094.0830078125
108, 0, 0, 1081.20751953125
109, 0, 0, 1079.469848632812
110, 0, 0, 1074.052490234375
111, 0, 0, 1064.93994140625
112, 0, 0, 1052.90234375
113, 0, 0, 1054.918823242188
114, 0, 0, 1047.239013671875
115, 0, 0, 1037.216674804688
116, 0, 0, 1041.432739257812
117, 0, 0, 1030.539672851562
118, 0, 0, 1021.916564941406
119, 0, 0, 1027.016479492188
120, 0, 0, 1020.524108886719
121, 0, 0, 1007.648620605469
122, 0, 0, 997.8897705078125
123, 0, 0, 1002.617492675781
124, 0, 0, 995.4107666015625
125, 0, 0, 986.523193359375
126, 0, 0, 984.2578125
127, 0, 0, 986.2461547851562
128, 0, 0, 976.805908203125
129, 0, 0, 972.4828491210938
130, 0, 0, 962.564208984375
131, 0, 0, 962.5868530273438
132, 0, 0, 953.4577026367188
133, 0, 0, 956.3770141601562
134, 0, 0, 948.39111328125
135, 0, 0, 948.89111328125
136, 0, 0, 940.7959594726562
137, 0, 0, 936.9139404296875
138, 0, 0, 942.7504272460938
139, 0, 0, 928.9827880859375
140, 0, 0, 933.408935546875
141, 0, 0, 920.1873168945312
142, 0, 0, 922.433349609375
143, 0, 0, 923.779541015625
144, 0, 0, 914.669677734375
145, 0, 0, 912.8270263671875
146, 0, 0, 903.4403686523438
147, 0, 0, 904.5617065429688
148, 0, 0, 888.9779052734375
149, 0, 0, 889.9183959960938
150, 0, 0, 883.1263427734375
151, 0, 0, 887.8329467773438
152, 0, 0, 893.5089111328125
153, 0, 0, 875.6204223632812
154, 0, 0, 880.6884765625
155, 0, 0, 869.312744140625
156, 0, 0, 875.4564819335938
157, 0, 0, 868.2566528320312
158, 0, 0, 863.79150390625
159, 0, 0, 858.8372192382812
160, 0, 0, 863.9086303710938
161, 0, 0, 866.7981567382812
162, 0, 0, 862.2741088867188
163, 0, 0, 852.9620361328125
164, 0, 0, 857.2238159179688
165, 0, 0, 848.350830078125
166, 0, 0, 847.0787963867188
167, 0, 0, 852.0257568359375
168, 0, 0, 847.7000122070312
169, 0, 0, 845.056640625
170, 0, 0, 833.959228515625
171, 0, 0, 829.8336791992188
172, 0, 0, 834.1314086914062
173, 0, 0, 832.78564453125
174, 0, 0, 823.3867797851562
175, 0, 0, 820.8585205078125
176, 0, 0, 819.115478515625
177, 0, 0, 819.872314453125
178, 0, 0, 816.1639404296875
179, 0, 0, 812.7815551757812
