# TOPAS Version: 3.3.p1
# Parameter File: Test.txt
# Results for scorer MLIC_Scorer
# Scored in component: MLIC
# X in 180 bins of 0.177778 cm
# Y in 1 bin  of 10 cm
# Z in 1 bin  of 10 cm
# EnergyDeposit ( MeV ) : Sum   
0, 0, 0, 0
1, 0, 0, 0
2, 0, 0, 0
3, 0, 0, 0
4, 0, 0, 0
5, 0, 0, 0
6, 0, 0, 0
7, 0, 0, 0
8, 0, 0, 0
9, 0, 0, 0
10, 0, 0, 0
11, 0, 0, 0
12, 0, 0, 0.01988080702722073
13, 0, 0, 0
14, 0, 0, 0.0014849619474262
15, 0, 0, 0.001349444151856005
16, 0, 0, 0
17, 0, 0, 58.02642822265625
18, 0, 0, 264.252197265625
19, 0, 0, 702.7587890625
20, 0, 0, 1638.794067382812
21, 0, 0, 3037.154052734375
22, 0, 0, 4173.3427734375
23, 0, 0, 4824.97021484375
24, 0, 0, 4941.1435546875
25, 0, 0, 4516.6005859375
26, 0, 0, 3989.719970703125
27, 0, 0, 3490.92041015625
28, 0, 0, 3145.14990234375
29, 0, 0, 2906.611083984375
30, 0, 0, 2733.589599609375
31, 0, 0, 2590.81982421875
32, 0, 0, 2466.925048828125
33, 0, 0, 2353.063232421875
34, 0, 0, 2259.087158203125
35, 0, 0, 2181.956298828125
36, 0, 0, 2103.13134765625
37, 0, 0, 2039.795532226562
38, 0, 0, 1985.768432617188
39, 0, 0, 1929.967651367188
40, 0, 0, 1887.356567382812
41, 0, 0, 1839.343505859375
42, 0, 0, 1797.565795898438
43, 0, 0, 1761.261352539062
44, 0, 0, 1724.234985351562
45, 0, 0, 1698.697387695312
46, 0, 0, 1663.671264648438
47, 0, 0, 1631.537475585938
48, 0, 0, 1612.746459960938
49, 0, 0, 1584.800048828125
50, 0, 0, 1551.138671875
51, 0, 0, 1535.1572265625
52, 0, 0, 1508.311157226562
53, 0, 0, 1485.361328125
54, 0, 0, 1464.7001953125
55, 0, 0, 1448.115844726562
56, 0, 0, 1431.812866210938
57, 0, 0, 1410.26318359375
58, 0, 0, 1403.385498046875
59, 0, 0, 1380.729125976562
60, 0, 0, 1359.097045898438
61, 0, 0, 1344.617065429688
62, 0, 0, 1334.927368164062
63, 0, 0, 1318.257690429688
64, 0, 0, 1307.507446289062
65, 0, 0, 1303.620727539062
66, 0, 0, 1282.238037109375
67, 0, 0, 1273.60546875
68, 0, 0, 1260.096435546875
69, 0, 0, 1238.437255859375
70, 0, 0, 1229.118408203125
71, 0, 0, 1233.4619140625
72, 0, 0, 1213.249389648438
73, 0, 0, 1200.91162109375
74, 0, 0, 1200.449829101562
75, 0, 0, 1190.3955078125
76, 0, 0, 1179.237548828125
77, 0, 0, 1166.142578125
78, 0, 0, 1159.713989257812
79, 0, 0, 1158.233154296875
80, 0, 0, 1138.482788085938
81, 0, 0, 1137.403686523438
82, 0, 0, 1126.488159179688
83, 0, 0, 1114.992431640625
84, 0, 0, 1106.619506835938
85, 0, 0, 1104.505004882812
86, 0, 0, 1096.228393554688
87, 0, 0, 1103.497436523438
88, 0, 0, 1091.021362304688
89, 0, 0, 1076.075317382812
90, 0, 0, 1073.171630859375
91, 0, 0, 1060.964599609375
92, 0, 0, 1063.171875
93, 0, 0, 1058.312866210938
94, 0, 0, 1056.85791015625
95, 0, 0, 1040.207397460938
96, 0, 0, 1038.211791992188
97, 0, 0, 1034.33642578125
98, 0, 0, 1029.224365234375
99, 0, 0, 1023.125854492188
100, 0, 0, 1011.670349121094
101, 0, 0, 1005.882690429688
102, 0, 0, 1007.09619140625
103, 0, 0, 1000.734741210938
104, 0, 0, 996.3406982421875
105, 0, 0, 986.9932861328125
106, 0, 0, 980.6993408203125
107, 0, 0, 983.0225830078125
108, 0, 0, 980.6188354492188
109, 0, 0, 978.5135498046875
110, 0, 0, 962.3654174804688
111, 0, 0, 963.248291015625
112, 0, 0, 965.9732055664062
113, 0, 0, 956.2888793945312
114, 0, 0, 948.035888671875
115, 0, 0, 944.1498413085938
116, 0, 0, 944.0250244140625
117, 0, 0, 939.8129272460938
118, 0, 0, 936.9000244140625
119, 0, 0, 922.2711181640625
120, 0, 0, 930.046875
121, 0, 0, 919.6564331054688
122, 0, 0, 920.0405883789062
123, 0, 0, 920.83349609375
124, 0, 0, 907.211669921875
125, 0, 0, 915.7689208984375
126, 0, 0, 903.331787109375
127, 0, 0, 909.2675170898438
128, 0, 0, 897.6713256835938
129, 0, 0, 890.7276611328125
130, 0, 0, 894.8885498046875
131, 0, 0, 888.7722778320312
132, 0, 0, 884.684326171875
133, 0, 0, 878.3229370117188
134, 0, 0, 878.2592163085938
135, 0, 0, 883.8675537109375
136, 0, 0, 878.403564453125
137, 0, 0, 865.1135864257812
138, 0, 0, 868.3736572265625
139, 0, 0, 868.8240966796875
140, 0, 0, 866.0330200195312
141, 0, 0, 855.8475952148438
142, 0, 0, 854.2958374023438
143, 0, 0, 858.8646240234375
144, 0, 0, 853.9356689453125
145, 0, 0, 856.9953002929688
146, 0, 0, 844.50927734375
147, 0, 0, 842.3150024414062
148, 0, 0, 842.3974609375
149, 0, 0, 843.6024169921875
150, 0, 0, 833.7723388671875
151, 0, 0, 838.9825439453125
152, 0, 0, 823.962890625
153, 0, 0, 832.3025512695312
154, 0, 0, 830.8108520507812
155, 0, 0, 821.9998779296875
156, 0, 0, 827.9517211914062
157, 0, 0, 817.2340087890625
158, 0, 0, 810.637451171875
159, 0, 0, 810.3335571289062
160, 0, 0, 809.1587524414062
161, 0, 0, 813.6475830078125
162, 0, 0, 809.8963012695312
163, 0, 0, 800.2935180664062
164, 0, 0, 807.533203125
165, 0, 0, 800.30126953125
166, 0, 0, 798.9572143554688
167, 0, 0, 801.0536499023438
168, 0, 0, 798.6087036132812
169, 0, 0, 792.935791015625
170, 0, 0, 796.6644287109375
171, 0, 0, 784.6556396484375
172, 0, 0, 784.514404296875
173, 0, 0, 781.2523803710938
174, 0, 0, 776.6333618164062
175, 0, 0, 780.2594604492188
176, 0, 0, 776.08056640625
177, 0, 0, 768.16064453125
178, 0, 0, 771.2378540039062
179, 0, 0, 770.5435180664062
