# TOPAS Version: 3.3.p1
# Parameter File: Test.txt
# Results for scorer MLIC_Scorer
# Scored in component: MLIC
# X in 180 bins of 0.177778 cm
# Y in 1 bin  of 10 cm
# Z in 1 bin  of 10 cm
# EnergyDeposit ( MeV ) : Sum   
0, 0, 0, 0
1, 0, 0, 0
2, 0, 0, 0
3, 0, 0, 0
4, 0, 0, 0
5, 0, 0, 0
6, 0, 0, 0
7, 0, 0, 0
8, 0, 0, 0
9, 0, 0, 0
10, 0, 0, 0
11, 0, 0, 0
12, 0, 0, 0
13, 0, 0, 0
14, 0, 0, 0
15, 0, 0, 0
16, 0, 0, 0
17, 0, 0, 0
18, 0, 0, 0
19, 0, 0, 0
20, 0, 0, 0
21, 0, 0, 0
22, 0, 0, 0
23, 0, 0, 0
24, 0, 0, 0
25, 0, 0, 0
26, 0, 0, 0
27, 0, 0, 0
28, 0, 0, 0
29, 0, 0, 0
30, 0, 0, 0
31, 0, 0, 0
32, 0, 0, 0
33, 0, 0, 0
34, 0, 0, 0
35, 0, 0, 0
36, 0, 0, 0
37, 0, 0, 0
38, 0, 0, 0
39, 0, 0, 0
40, 0, 0, 0
41, 0, 0, 0
42, 0, 0, 0
43, 0, 0, 0
44, 0, 0, 0
45, 0, 0, 0
46, 0, 0, 0
47, 0, 0, 0
48, 0, 0, 0
49, 0, 0, 0
50, 0, 0, 0
51, 0, 0, 0
52, 0, 0, 0
53, 0, 0, 0
54, 0, 0, 0
55, 0, 0, 0
56, 0, 0, 0
57, 0, 0, 0
58, 0, 0, 0
59, 0, 0, 0
60, 0, 0, 0
61, 0, 0, 0
62, 0, 0, 0
63, 0, 0, 0
64, 0, 0, 0
65, 0, 0, 0
66, 0, 0, 0
67, 0, 0, 0
68, 0, 0, 0
69, 0, 0, 0
70, 0, 0, 0
71, 0, 0, 0
72, 0, 0, 0
73, 0, 0, 0
74, 0, 0, 0
75, 0, 0, 0
76, 0, 0, 0
77, 0, 0, 0
78, 0, 0, 0
79, 0, 0, 0
80, 0, 0, 0
81, 0, 0, 0
82, 0, 0, 0
83, 0, 0, 0
84, 0, 0, 0
85, 0, 0, 0
86, 0, 0, 0
87, 0, 0, 0
88, 0, 0, 0
89, 0, 0, 0
90, 0, 0, 0
91, 0, 0, 0
92, 0, 0, 0
93, 0, 0, 0
94, 0, 0, 0
95, 0, 0, 0
96, 0, 0, 0
97, 0, 0, 0
98, 0, 0, 0
99, 0, 0, 0
100, 0, 0, 0
101, 0, 0, 0
102, 0, 0, 0
103, 0, 0, 0
104, 0, 0, 0
105, 0, 0, 0
106, 0, 0, 0
107, 0, 0, 0
108, 0, 0, 0
109, 0, 0, 0
110, 0, 0, 0
111, 0, 0, 0
112, 0, 0, 0
113, 0, 0, 0
114, 0, 0, 0
115, 0, 0, 0
116, 0, 0, 0
117, 0, 0, 0
118, 0, 0, 0.05590978264808655
119, 0, 0, 0
120, 0, 0, 0
121, 0, 0, 0
122, 0, 0, 0
123, 0, 0, 0.008625993505120277
124, 0, 0, 0
125, 0, 0, 13.08985614776611
126, 0, 0, 110.0290908813477
127, 0, 0, 249.4991302490234
128, 0, 0, 813.681640625
129, 0, 0, 1871.8994140625
130, 0, 0, 3181.5703125
131, 0, 0, 4293.68408203125
132, 0, 0, 5057.7392578125
133, 0, 0, 4862.08642578125
134, 0, 0, 4382.81396484375
135, 0, 0, 3866.302978515625
136, 0, 0, 3437.193359375
137, 0, 0, 3102.012451171875
138, 0, 0, 2878.80322265625
139, 0, 0, 2696.005859375
140, 0, 0, 2552.470703125
141, 0, 0, 2437.2822265625
142, 0, 0, 2325.8642578125
143, 0, 0, 2241.2275390625
144, 0, 0, 2167.49169921875
145, 0, 0, 2093.891357421875
146, 0, 0, 2029.523681640625
147, 0, 0, 1978.58056640625
148, 0, 0, 1913.466064453125
149, 0, 0, 1884.38525390625
150, 0, 0, 1830.7890625
151, 0, 0, 1790.4052734375
152, 0, 0, 1751.829345703125
153, 0, 0, 1720.317749023438
154, 0, 0, 1685.268432617188
155, 0, 0, 1658.017211914062
156, 0, 0, 1626.295288085938
157, 0, 0, 1593.249755859375
158, 0, 0, 1577.741333007812
159, 0, 0, 1551.485717773438
160, 0, 0, 1526.325927734375
161, 0, 0, 1502.992919921875
162, 0, 0, 1482.599365234375
163, 0, 0, 1460.762329101562
164, 0, 0, 1448.877197265625
165, 0, 0, 1427.505737304688
166, 0, 0, 1410.714599609375
167, 0, 0, 1391.938720703125
168, 0, 0, 1379.910888671875
169, 0, 0, 1361.443115234375
170, 0, 0, 1341.467407226562
171, 0, 0, 1332.710083007812
172, 0, 0, 1319.580322265625
173, 0, 0, 1305.974609375
174, 0, 0, 1293.671997070312
175, 0, 0, 1279.863403320312
176, 0, 0, 1269.33935546875
177, 0, 0, 1259.585327148438
178, 0, 0, 1241.58642578125
179, 0, 0, 1235.445434570312
