# TOPAS Version: 3.3.p1
# Parameter File: Test.txt
# Results for scorer MLIC_Scorer
# Scored in component: MLIC
# X in 180 bins of 0.183333 cm
# Y in 1 bin  of 10 cm
# Z in 1 bin  of 10 cm
# EnergyDeposit ( MeV ) : Sum   
0, 0, 0, 0
1, 0, 0, 0
2, 0, 0, 0
3, 0, 0, 0
4, 0, 0, 0
5, 0, 0, 0
6, 0, 0, 0
7, 0, 0, 0
8, 0, 0, 0
9, 0, 0, 0
10, 0, 0, 0
11, 0, 0, 0
12, 0, 0, 0
13, 0, 0, 0
14, 0, 0, 0
15, 0, 0, 0
16, 0, 0, 0
17, 0, 0, 0
18, 0, 0, 0
19, 0, 0, 0
20, 0, 0, 0
21, 0, 0, 0
22, 0, 0, 0
23, 0, 0, 0
24, 0, 0, 0
25, 0, 0, 0
26, 0, 0, 0
27, 0, 0, 0
28, 0, 0, 0
29, 0, 0, 0
30, 0, 0, 0
31, 0, 0, 0
32, 0, 0, 0
33, 0, 0, 0
34, 0, 0, 0
35, 0, 0, 0
36, 0, 0, 0
37, 0, 0, 0
38, 0, 0, 0
39, 0, 0, 0
40, 0, 0, 0
41, 0, 0, 0
42, 0, 0, 0
43, 0, 0, 0
44, 0, 0, 0
45, 0, 0, 0
46, 0, 0, 0
47, 0, 0, 0
48, 0, 0, 0
49, 0, 0, 0
50, 0, 0, 0
51, 0, 0, 0
52, 0, 0, 0
53, 0, 0, 0
54, 0, 0, 0
55, 0, 0, 0
56, 0, 0, 0
57, 0, 0, 0
58, 0, 0, 0
59, 0, 0, 0
60, 0, 0, 0
61, 0, 0, 0
62, 0, 0, 0
63, 0, 0, 0
64, 0, 0, 0
65, 0, 0, 0
66, 0, 0, 0
67, 0, 0, 0
68, 0, 0, 0
69, 0, 0, 0
70, 0, 0, 0
71, 0, 0, 0
72, 0, 0, 0
73, 0, 0, 0
74, 0, 0, 0
75, 0, 0, 0
76, 0, 0, 0
77, 0, 0, 0
78, 0, 0, 0
79, 0, 0, 0
80, 0, 0, 0
81, 0, 0, 0
82, 0, 0, 0
83, 0, 0, 0
84, 0, 0, 0
85, 0, 0, 0
86, 0, 0, 0
87, 0, 0, 0
88, 0, 0, 0
89, 0, 0, 0
90, 0, 0, 0
91, 0, 0, 0
92, 0, 0, 0.02384907193481922
93, 0, 0, 0
94, 0, 0, 0
95, 0, 0, 0
96, 0, 0, 0
97, 0, 0, 0
98, 0, 0, 0
99, 0, 0, 0
100, 0, 0, 0
101, 0, 0, 0
102, 0, 0, 0
103, 0, 0, 0
104, 0, 0, 0
105, 0, 0, 0
106, 0, 0, 0
107, 0, 0, 0
108, 0, 0, 0
109, 0, 0, 0
110, 0, 0, 0
111, 0, 0, 0
112, 0, 0, 0
113, 0, 0, 11.02388000488281
114, 0, 0, 19.25994491577148
115, 0, 0, 103.7770385742188
116, 0, 0, 568.0859375
117, 0, 0, 1477.298095703125
118, 0, 0, 2831.576416015625
119, 0, 0, 4234.9345703125
120, 0, 0, 4943.70703125
121, 0, 0, 5144.08935546875
122, 0, 0, 4652.91943359375
123, 0, 0, 4026.828857421875
124, 0, 0, 3563.232177734375
125, 0, 0, 3264.89404296875
126, 0, 0, 2999.077392578125
127, 0, 0, 2805.510986328125
128, 0, 0, 2640.841064453125
129, 0, 0, 2515.8017578125
130, 0, 0, 2409.63427734375
131, 0, 0, 2306.6396484375
132, 0, 0, 2225.47216796875
133, 0, 0, 2145.105224609375
134, 0, 0, 2085.055908203125
135, 0, 0, 2027.396484375
136, 0, 0, 1990.160888671875
137, 0, 0, 1928.007568359375
138, 0, 0, 1879.032470703125
139, 0, 0, 1840.109252929688
140, 0, 0, 1797.391967773438
141, 0, 0, 1764.647338867188
142, 0, 0, 1734.735961914062
143, 0, 0, 1693.915771484375
144, 0, 0, 1661.5927734375
145, 0, 0, 1636.704956054688
146, 0, 0, 1613.081909179688
147, 0, 0, 1582.47998046875
148, 0, 0, 1564.176391601562
149, 0, 0, 1546.876831054688
150, 0, 0, 1520.641479492188
151, 0, 0, 1500.879272460938
152, 0, 0, 1475.375732421875
153, 0, 0, 1455.7099609375
154, 0, 0, 1431.075805664062
155, 0, 0, 1423.3056640625
156, 0, 0, 1413.916748046875
157, 0, 0, 1388.772338867188
158, 0, 0, 1378.798217773438
159, 0, 0, 1360.576782226562
160, 0, 0, 1354.140625
161, 0, 0, 1334.984619140625
162, 0, 0, 1327.733276367188
163, 0, 0, 1310.969360351562
164, 0, 0, 1293.192993164062
165, 0, 0, 1284.712280273438
166, 0, 0, 1274.741455078125
167, 0, 0, 1261.169677734375
168, 0, 0, 1245.494750976562
169, 0, 0, 1245.627319335938
170, 0, 0, 1229.76611328125
171, 0, 0, 1220.12353515625
172, 0, 0, 1197.964599609375
173, 0, 0, 1205.069580078125
174, 0, 0, 1187.626586914062
175, 0, 0, 1188.203491210938
176, 0, 0, 1176.513061523438
177, 0, 0, 1169.211547851562
178, 0, 0, 1146.848266601562
179, 0, 0, 1150.806396484375
