# TOPAS Version: 3.3.p1
# Parameter File: Test.txt
# Results for scorer MLIC_Scorer
# Scored in component: MLIC
# X in 180 bins of 0.183333 cm
# Y in 1 bin  of 10 cm
# Z in 1 bin  of 10 cm
# EnergyDeposit ( MeV ) : Sum   
0, 0, 0, 0
1, 0, 0, 0
2, 0, 0, 0
3, 0, 0, 0
4, 0, 0, 0
5, 0, 0, 0
6, 0, 0, 0
7, 0, 0, 0
8, 0, 0, 0
9, 0, 0, 0
10, 0, 0, 0
11, 0, 0, 0
12, 0, 0, 0
13, 0, 0, 0
14, 0, 0, 0
15, 0, 0, 0
16, 0, 0, 0
17, 0, 0, 0
18, 0, 0, 0
19, 0, 0, 0
20, 0, 0, 0
21, 0, 0, 0
22, 0, 0, 0
23, 0, 0, 0
24, 0, 0, 0
25, 0, 0, 0
26, 0, 0, 0
27, 0, 0, 0
28, 0, 0, 0
29, 0, 0, 0
30, 0, 0, 0
31, 0, 0, 0
32, 0, 0, 0
33, 0, 0, 0
34, 0, 0, 0
35, 0, 0, 0
36, 0, 0, 0
37, 0, 0, 0
38, 0, 0, 0
39, 0, 0, 0
40, 0, 0, 0
41, 0, 0, 0
42, 0, 0, 0.03175406530499458
43, 0, 0, 0
44, 0, 0, 0
45, 0, 0, 0
46, 0, 0, 0
47, 0, 0, 0
48, 0, 0, 8.046679496765137
49, 0, 0, 25.68063163757324
50, 0, 0, 176.6608428955078
51, 0, 0, 814.4522705078125
52, 0, 0, 2056.8955078125
53, 0, 0, 3609.665283203125
54, 0, 0, 4769.53564453125
55, 0, 0, 5251.380859375
56, 0, 0, 4855.3896484375
57, 0, 0, 4407.083984375
58, 0, 0, 3820.876220703125
59, 0, 0, 3401.13232421875
60, 0, 0, 3107.15478515625
61, 0, 0, 2887.40966796875
62, 0, 0, 2714.7353515625
63, 0, 0, 2571.775634765625
64, 0, 0, 2455.91845703125
65, 0, 0, 2364.816650390625
66, 0, 0, 2268.0517578125
67, 0, 0, 2187.25048828125
68, 0, 0, 2126.927978515625
69, 0, 0, 2068.0107421875
70, 0, 0, 2013.752685546875
71, 0, 0, 1954.350708007812
72, 0, 0, 1907.58251953125
73, 0, 0, 1861.95556640625
74, 0, 0, 1816.995361328125
75, 0, 0, 1786.790893554688
76, 0, 0, 1745.760009765625
77, 0, 0, 1719.658935546875
78, 0, 0, 1688.669921875
79, 0, 0, 1653.428588867188
80, 0, 0, 1628.90966796875
81, 0, 0, 1593.30029296875
82, 0, 0, 1584.64990234375
83, 0, 0, 1545.143432617188
84, 0, 0, 1534.916748046875
85, 0, 0, 1503.78173828125
86, 0, 0, 1493.847778320312
87, 0, 0, 1470.804565429688
88, 0, 0, 1451.901123046875
89, 0, 0, 1445.945068359375
90, 0, 0, 1419.6572265625
91, 0, 0, 1402.118530273438
92, 0, 0, 1386.82666015625
93, 0, 0, 1373.460693359375
94, 0, 0, 1358.249267578125
95, 0, 0, 1347.19287109375
96, 0, 0, 1323.317993164062
97, 0, 0, 1316.631958007812
98, 0, 0, 1299.856811523438
99, 0, 0, 1292.400024414062
100, 0, 0, 1290.204467773438
101, 0, 0, 1269.26513671875
102, 0, 0, 1261.485961914062
103, 0, 0, 1237.441162109375
104, 0, 0, 1239.091918945312
105, 0, 0, 1227.857543945312
106, 0, 0, 1217.16552734375
107, 0, 0, 1210.9052734375
108, 0, 0, 1194.874877929688
109, 0, 0, 1186.776489257812
110, 0, 0, 1178.649780273438
111, 0, 0, 1177.587768554688
112, 0, 0, 1164.438110351562
113, 0, 0, 1155.911010742188
114, 0, 0, 1150.417358398438
115, 0, 0, 1129.6162109375
116, 0, 0, 1136.331298828125
117, 0, 0, 1132.300170898438
118, 0, 0, 1119.380249023438
119, 0, 0, 1115.922485351562
120, 0, 0, 1100.223022460938
121, 0, 0, 1087.450927734375
122, 0, 0, 1081.810302734375
123, 0, 0, 1076.475219726562
124, 0, 0, 1077.927368164062
125, 0, 0, 1072.01318359375
126, 0, 0, 1063.5263671875
127, 0, 0, 1059.754272460938
128, 0, 0, 1054.10498046875
129, 0, 0, 1053.183227539062
130, 0, 0, 1035.941650390625
131, 0, 0, 1035.191528320312
132, 0, 0, 1030.22509765625
133, 0, 0, 1021.733032226562
134, 0, 0, 1011.306579589844
135, 0, 0, 1017.390502929688
136, 0, 0, 1017.835693359375
137, 0, 0, 1010.851928710938
138, 0, 0, 1002.673461914062
139, 0, 0, 998.909912109375
140, 0, 0, 995.5768432617188
141, 0, 0, 988.3792114257812
142, 0, 0, 992.0465087890625
143, 0, 0, 974.9338989257812
144, 0, 0, 975.9891357421875
145, 0, 0, 968.0715942382812
146, 0, 0, 965.7609252929688
147, 0, 0, 961.4552001953125
148, 0, 0, 956.9252319335938
149, 0, 0, 953.2494506835938
150, 0, 0, 951.4840698242188
151, 0, 0, 944.4078369140625
152, 0, 0, 941.3447875976562
153, 0, 0, 943.61279296875
154, 0, 0, 933.8385009765625
155, 0, 0, 936.1068725585938
156, 0, 0, 929.1282958984375
157, 0, 0, 927.1246337890625
158, 0, 0, 916.66259765625
159, 0, 0, 925.4702758789062
160, 0, 0, 927.9644775390625
161, 0, 0, 908.341064453125
162, 0, 0, 906.526611328125
163, 0, 0, 905.6880493164062
164, 0, 0, 902.4846801757812
165, 0, 0, 895.5943603515625
166, 0, 0, 894.8162231445312
167, 0, 0, 888.7781982421875
168, 0, 0, 892.9147338867188
169, 0, 0, 894.2618408203125
170, 0, 0, 888.75244140625
171, 0, 0, 877.5498657226562
172, 0, 0, 875.0667114257812
173, 0, 0, 876.0671997070312
174, 0, 0, 875.9373779296875
175, 0, 0, 866.4946899414062
176, 0, 0, 863.0919799804688
177, 0, 0, 862.9459838867188
178, 0, 0, 862.3899536132812
179, 0, 0, 851.7365112304688
