# TOPAS Version: 3.3.p1
# Parameter File: Test.txt
# Results for scorer MLIC_Scorer
# Scored in component: MLIC
# X in 180 bins of 0.183333 cm
# Y in 1 bin  of 10 cm
# Z in 1 bin  of 10 cm
# EnergyDeposit ( MeV ) : Sum   
0, 0, 0, 0
1, 0, 0, 0
2, 0, 0, 0
3, 0, 0, 0
4, 0, 0, 0
5, 0, 0, 0
6, 0, 0, 0
7, 0, 0, 0
8, 0, 0, 0
9, 0, 0, 0
10, 0, 0, 0
11, 0, 0, 0
12, 0, 0, 0
13, 0, 0, 0
14, 0, 0, 0
15, 0, 0, 0
16, 0, 0, 0
17, 0, 0, 0
18, 0, 0, 0
19, 0, 0, 0
20, 0, 0, 0
21, 0, 0, 0
22, 0, 0, 0
23, 0, 0, 0
24, 0, 0, 0
25, 0, 0, 0
26, 0, 0, 0
27, 0, 0, 0
28, 0, 0, 0
29, 0, 0, 0
30, 0, 0, 0
31, 0, 0, 0
32, 0, 0, 0
33, 0, 0, 0
34, 0, 0, 0
35, 0, 0, 0
36, 0, 0, 0
37, 0, 0, 0
38, 0, 0, 0
39, 0, 0, 0
40, 0, 0, 0
41, 0, 0, 0
42, 0, 0, 0
43, 0, 0, 0
44, 0, 0, 0
45, 0, 0, 0
46, 0, 0, 0
47, 0, 0, 0
48, 0, 0, 0
49, 0, 0, 0
50, 0, 0, 0
51, 0, 0, 0
52, 0, 0, 0
53, 0, 0, 0
54, 0, 0, 0
55, 0, 0, 0
56, 0, 0, 0
57, 0, 0, 0
58, 0, 0, 0
59, 0, 0, 0
60, 0, 0, 0
61, 0, 0, 0
62, 0, 0, 0
63, 0, 0, 0
64, 0, 0, 0
65, 0, 0, 0
66, 0, 0, 0
67, 0, 0, 0
68, 0, 0, 0
69, 0, 0, 0
70, 0, 0, 0
71, 0, 0, 0
72, 0, 0, 0
73, 0, 0, 0
74, 0, 0, 0
75, 0, 0, 0
76, 0, 0, 0
77, 0, 0, 0
78, 0, 0, 0
79, 0, 0, 0
80, 0, 0, 0
81, 0, 0, 0
82, 0, 0, 0
83, 0, 0, 0
84, 0, 0, 0
85, 0, 0, 0
86, 0, 0, 0
87, 0, 0, 0
88, 0, 0, 0
89, 0, 0, 0
90, 0, 0, 0
91, 0, 0, 0
92, 0, 0, 0
93, 0, 0, 0
94, 0, 0, 0
95, 0, 0, 0
96, 0, 0, 0
97, 0, 0, 0
98, 0, 0, 0
99, 0, 0, 0
100, 0, 0, 0
101, 0, 0, 0
102, 0, 0, 0
103, 0, 0, 0
104, 0, 0, 0
105, 0, 0, 0
106, 0, 0, 0
107, 0, 0, 0
108, 0, 0, 0
109, 0, 0, 0
110, 0, 0, 0
111, 0, 0, 0
112, 0, 0, 0
113, 0, 0, 0
114, 0, 0, 0
115, 0, 0, 0
116, 0, 0, 0
117, 0, 0, 0
118, 0, 0, 0
119, 0, 0, 0
120, 0, 0, 0
121, 0, 0, 0
122, 0, 0, 27.45611190795898
123, 0, 0, 253.3492126464844
124, 0, 0, 859.8318481445312
125, 0, 0, 1919.907104492188
126, 0, 0, 3424.870361328125
127, 0, 0, 4531.09228515625
128, 0, 0, 5094.0361328125
129, 0, 0, 5009.845703125
130, 0, 0, 4453.4052734375
131, 0, 0, 3875.50341796875
132, 0, 0, 3446.550048828125
133, 0, 0, 3126.289794921875
134, 0, 0, 2909.284912109375
135, 0, 0, 2732.77783203125
136, 0, 0, 2596.828369140625
137, 0, 0, 2477.804931640625
138, 0, 0, 2367.463134765625
139, 0, 0, 2277.047119140625
140, 0, 0, 2200.662353515625
141, 0, 0, 2132.00537109375
142, 0, 0, 2062.272216796875
143, 0, 0, 2011.858276367188
144, 0, 0, 1954.156616210938
145, 0, 0, 1909.69921875
146, 0, 0, 1861.683471679688
147, 0, 0, 1826.805419921875
148, 0, 0, 1777.848510742188
149, 0, 0, 1746.774291992188
150, 0, 0, 1719.252197265625
151, 0, 0, 1688.946411132812
152, 0, 0, 1664.892211914062
153, 0, 0, 1637.462890625
154, 0, 0, 1595.018798828125
155, 0, 0, 1582.906372070312
156, 0, 0, 1549.685913085938
157, 0, 0, 1526.120361328125
158, 0, 0, 1507.281616210938
159, 0, 0, 1490.811401367188
160, 0, 0, 1464.519409179688
161, 0, 0, 1451.328369140625
162, 0, 0, 1435.017211914062
163, 0, 0, 1419.493530273438
164, 0, 0, 1407.34228515625
165, 0, 0, 1390.618041992188
166, 0, 0, 1371.175170898438
167, 0, 0, 1358.983032226562
168, 0, 0, 1343.388549804688
169, 0, 0, 1325.341064453125
170, 0, 0, 1323.341186523438
171, 0, 0, 1305.823974609375
172, 0, 0, 1295.21875
173, 0, 0, 1283.260986328125
174, 0, 0, 1268.012939453125
175, 0, 0, 1260.24072265625
176, 0, 0, 1251.169189453125
177, 0, 0, 1236.302612304688
178, 0, 0, 1228.026123046875
179, 0, 0, 1208.426391601562
