# TOPAS Version: 3.3.p1
# Parameter File: Test.txt
# Results for scorer MLIC_Scorer
# Scored in component: MLIC
# X in 165 bins of 0.2 cm
# Y in 1 bin  of 10 cm
# Z in 1 bin  of 10 cm
# EnergyDeposit ( MeV ) : Sum   
0, 0, 0, 0
1, 0, 0, 0
2, 0, 0, 0
3, 0, 0, 0
4, 0, 0, 0
5, 0, 0, 0
6, 0, 0, 0
7, 0, 0, 0
8, 0, 0, 0
9, 0, 0, 0
10, 0, 0, 0
11, 0, 0, 0
12, 0, 0, 0
13, 0, 0, 0
14, 0, 0, 0
15, 0, 0, 0
16, 0, 0, 0
17, 0, 0, 0
18, 0, 0, 0
19, 0, 0, 0
20, 0, 0, 0
21, 0, 0, 0
22, 0, 0, 0
23, 0, 0, 0
24, 0, 0, 0
25, 0, 0, 0
26, 0, 0, 0
27, 0, 0, 0
28, 0, 0, 0
29, 0, 0, 0.0006161964847706258
30, 0, 0, 0
31, 0, 0, 0
32, 0, 0, 0
33, 0, 0, 0
34, 0, 0, 0
35, 0, 0, 0
36, 0, 0, 0
37, 0, 0, 0
38, 0, 0, 0
39, 0, 0, 0
40, 0, 0, 0
41, 0, 0, 0
42, 0, 0, 0
43, 0, 0, 0
44, 0, 0, 0
45, 0, 0, 0
46, 0, 0, 0
47, 0, 0, 0
48, 0, 0, 6.77436637878418
49, 0, 0, 37.68074798583984
50, 0, 0, 103.0115203857422
51, 0, 0, 489.6609191894531
52, 0, 0, 1345.44677734375
53, 0, 0, 2691.05419921875
54, 0, 0, 4293.11328125
55, 0, 0, 5414.89453125
56, 0, 0, 5353.14599609375
57, 0, 0, 5021.8154296875
58, 0, 0, 4357.2353515625
59, 0, 0, 3785.26806640625
60, 0, 0, 3425.1767578125
61, 0, 0, 3155.318603515625
62, 0, 0, 2955.035888671875
63, 0, 0, 2785.30322265625
64, 0, 0, 2646.39404296875
65, 0, 0, 2530.08154296875
66, 0, 0, 2441.023193359375
67, 0, 0, 2350.09521484375
68, 0, 0, 2264.48828125
69, 0, 0, 2206.18212890625
70, 0, 0, 2143.0478515625
71, 0, 0, 2077.468994140625
72, 0, 0, 2024.322021484375
73, 0, 0, 1978.067993164062
74, 0, 0, 1936.14111328125
75, 0, 0, 1898.827026367188
76, 0, 0, 1846.5849609375
77, 0, 0, 1817.801879882812
78, 0, 0, 1791.0908203125
79, 0, 0, 1753.578735351562
80, 0, 0, 1722.889038085938
81, 0, 0, 1698.010009765625
82, 0, 0, 1665.937744140625
83, 0, 0, 1646.243896484375
84, 0, 0, 1626.145385742188
85, 0, 0, 1596.438598632812
86, 0, 0, 1578.039306640625
87, 0, 0, 1551.088256835938
88, 0, 0, 1534.703002929688
89, 0, 0, 1522.496948242188
90, 0, 0, 1499.945434570312
91, 0, 0, 1491.9482421875
92, 0, 0, 1467.657348632812
93, 0, 0, 1452.537475585938
94, 0, 0, 1436.608642578125
95, 0, 0, 1416.039184570312
96, 0, 0, 1415.59423828125
97, 0, 0, 1387.715454101562
98, 0, 0, 1382.589477539062
99, 0, 0, 1361.54541015625
100, 0, 0, 1350.685302734375
101, 0, 0, 1343.379760742188
102, 0, 0, 1326.123168945312
103, 0, 0, 1318.968017578125
104, 0, 0, 1305.656005859375
105, 0, 0, 1294.561645507812
106, 0, 0, 1281.136108398438
107, 0, 0, 1273.71728515625
108, 0, 0, 1261.321411132812
109, 0, 0, 1252.732177734375
110, 0, 0, 1241.794799804688
111, 0, 0, 1239.738159179688
112, 0, 0, 1229.461669921875
113, 0, 0, 1225.866577148438
114, 0, 0, 1210.052734375
115, 0, 0, 1209.067993164062
116, 0, 0, 1189.695922851562
117, 0, 0, 1182.019775390625
118, 0, 0, 1181.046997070312
119, 0, 0, 1175.611206054688
120, 0, 0, 1167.160522460938
121, 0, 0, 1159.665893554688
122, 0, 0, 1160.91455078125
123, 0, 0, 1144.616943359375
124, 0, 0, 1134.642456054688
125, 0, 0, 1130.948364257812
126, 0, 0, 1130.646850585938
127, 0, 0, 1117.1552734375
128, 0, 0, 1112.1533203125
129, 0, 0, 1111.904541015625
130, 0, 0, 1099.17822265625
131, 0, 0, 1093.744873046875
132, 0, 0, 1085.7294921875
133, 0, 0, 1087.61279296875
134, 0, 0, 1082.8251953125
135, 0, 0, 1075.468017578125
136, 0, 0, 1076.2724609375
137, 0, 0, 1060.644897460938
138, 0, 0, 1054.56640625
139, 0, 0, 1063.901733398438
140, 0, 0, 1054.180053710938
141, 0, 0, 1045.531494140625
142, 0, 0, 1039.061279296875
143, 0, 0, 1031.65625
144, 0, 0, 1022.763366699219
145, 0, 0, 1024.896240234375
146, 0, 0, 1020.982299804688
147, 0, 0, 1013.076721191406
148, 0, 0, 1013.912719726562
149, 0, 0, 1005.194519042969
150, 0, 0, 1011.071044921875
151, 0, 0, 1001.361511230469
152, 0, 0, 997.1351318359375
153, 0, 0, 1003.361938476562
154, 0, 0, 981.1477661132812
155, 0, 0, 978.5993041992188
156, 0, 0, 982.451171875
157, 0, 0, 981.431640625
158, 0, 0, 971.431640625
159, 0, 0, 968.8775634765625
160, 0, 0, 964.876953125
161, 0, 0, 965.0281372070312
162, 0, 0, 956.9486694335938
163, 0, 0, 963.765625
164, 0, 0, 955.1062622070312
