# TOPAS Version: 3.3.p1
# Parameter File: Test.txt
# Results for scorer MLIC_Scorer
# Scored in component: MLIC
# X in 180 bins of 0.183333 cm
# Y in 1 bin  of 10 cm
# Z in 1 bin  of 10 cm
# EnergyDeposit ( MeV ) : Sum   
0, 0, 0, 0
1, 0, 0, 0
2, 0, 0, 0
3, 0, 0, 0
4, 0, 0, 0
5, 0, 0, 0
6, 0, 0, 0
7, 0, 0, 0
8, 0, 0, 0
9, 0, 0, 0
10, 0, 0, 0
11, 0, 0, 0
12, 0, 0, 0
13, 0, 0, 0.05121932178735733
14, 0, 0, 0.0008619109285064042
15, 0, 0, 0
16, 0, 0, 0
17, 0, 0, 0
18, 0, 0, 0
19, 0, 0, 0
20, 0, 0, 0
21, 0, 0, 0
22, 0, 0, 0
23, 0, 0, 0
24, 0, 0, 0
25, 0, 0, 0
26, 0, 0, 0.002026552567258477
27, 0, 0, 0
28, 0, 0, 0
29, 0, 0, 0
30, 0, 0, 0.001194466836750507
31, 0, 0, 0.008632197044789791
32, 0, 0, 0
33, 0, 0, 0.002089738147333264
34, 0, 0, 0.0009317491203546524
35, 0, 0, 0.002490572165697813
36, 0, 0, 0
37, 0, 0, 0.01727874763309956
38, 0, 0, 0
39, 0, 0, 0.005056594964116812
40, 0, 0, 0
41, 0, 0, 0
42, 0, 0, 0
43, 0, 0, 14.54692554473877
44, 0, 0, 115.7760543823242
45, 0, 0, 428.3650207519531
46, 0, 0, 1211.400268554688
47, 0, 0, 2560.898681640625
48, 0, 0, 4102.73876953125
49, 0, 0, 5119.62841796875
50, 0, 0, 5331.23779296875
51, 0, 0, 4749.4990234375
52, 0, 0, 4068.917724609375
53, 0, 0, 3643.708740234375
54, 0, 0, 3261.087890625
55, 0, 0, 3008.107666015625
56, 0, 0, 2814.154296875
57, 0, 0, 2655.635009765625
58, 0, 0, 2523.9814453125
59, 0, 0, 2416.130126953125
60, 0, 0, 2318.194091796875
61, 0, 0, 2229.855712890625
62, 0, 0, 2158.74365234375
63, 0, 0, 2100.923828125
64, 0, 0, 2029.437622070312
65, 0, 0, 1979.99560546875
66, 0, 0, 1926.949584960938
67, 0, 0, 1888.793701171875
68, 0, 0, 1835.873657226562
69, 0, 0, 1803.416259765625
70, 0, 0, 1765.935180664062
71, 0, 0, 1730.819946289062
72, 0, 0, 1698.501342773438
73, 0, 0, 1668.331665039062
74, 0, 0, 1638.876831054688
75, 0, 0, 1619.9794921875
76, 0, 0, 1584.01416015625
77, 0, 0, 1563.779174804688
78, 0, 0, 1540.159545898438
79, 0, 0, 1521.740478515625
80, 0, 0, 1506.875610351562
81, 0, 0, 1482.386596679688
82, 0, 0, 1468.895629882812
83, 0, 0, 1443.411010742188
84, 0, 0, 1421.305541992188
85, 0, 0, 1416.690307617188
86, 0, 0, 1394.905517578125
87, 0, 0, 1378.605712890625
88, 0, 0, 1361.07177734375
89, 0, 0, 1351.220581054688
90, 0, 0, 1324.660400390625
91, 0, 0, 1328.379150390625
92, 0, 0, 1316.757080078125
93, 0, 0, 1303.3837890625
94, 0, 0, 1286.567504882812
95, 0, 0, 1267.306640625
96, 0, 0, 1259.3212890625
97, 0, 0, 1250.229248046875
98, 0, 0, 1245.29833984375
99, 0, 0, 1229.582763671875
100, 0, 0, 1218.929321289062
101, 0, 0, 1217.042236328125
102, 0, 0, 1206.334106445312
103, 0, 0, 1197.409057617188
104, 0, 0, 1179.198120117188
105, 0, 0, 1178.988891601562
106, 0, 0, 1164.572631835938
107, 0, 0, 1159.658081054688
108, 0, 0, 1155.2255859375
109, 0, 0, 1141.225952148438
110, 0, 0, 1144.003173828125
111, 0, 0, 1128.936889648438
112, 0, 0, 1121.765502929688
113, 0, 0, 1112.389770507812
114, 0, 0, 1101.30908203125
115, 0, 0, 1102.476928710938
116, 0, 0, 1092.521362304688
117, 0, 0, 1091.126220703125
118, 0, 0, 1079.271362304688
119, 0, 0, 1073.80224609375
120, 0, 0, 1072.655151367188
121, 0, 0, 1061.978881835938
122, 0, 0, 1056.945678710938
123, 0, 0, 1050.442138671875
124, 0, 0, 1050.07666015625
125, 0, 0, 1036.945434570312
126, 0, 0, 1030.91064453125
127, 0, 0, 1030.526123046875
128, 0, 0, 1026.130493164062
129, 0, 0, 1024.223999023438
130, 0, 0, 1006.328674316406
131, 0, 0, 1007.679870605469
132, 0, 0, 995.628662109375
133, 0, 0, 1002.140258789062
134, 0, 0, 996.9357299804688
135, 0, 0, 990.3853759765625
136, 0, 0, 990.1784057617188
137, 0, 0, 979.5799560546875
138, 0, 0, 980.1399536132812
139, 0, 0, 983.3788452148438
140, 0, 0, 975.319091796875
141, 0, 0, 964.180908203125
142, 0, 0, 963.5640869140625
143, 0, 0, 952.08837890625
144, 0, 0, 947.2578735351562
145, 0, 0, 944.6232299804688
146, 0, 0, 940.428466796875
147, 0, 0, 943.7994384765625
148, 0, 0, 940.033935546875
149, 0, 0, 936.560791015625
150, 0, 0, 936.4737548828125
151, 0, 0, 934.7504272460938
152, 0, 0, 922.9966430664062
153, 0, 0, 930.9166870117188
154, 0, 0, 917.3075561523438
155, 0, 0, 913.2745971679688
156, 0, 0, 915.6284790039062
157, 0, 0, 901.5106201171875
158, 0, 0, 900.4408569335938
159, 0, 0, 901.4320068359375
160, 0, 0, 892.3121337890625
161, 0, 0, 890.7593994140625
162, 0, 0, 895.0242919921875
163, 0, 0, 884.9967041015625
164, 0, 0, 882.593017578125
165, 0, 0, 885.674560546875
166, 0, 0, 880.5731201171875
167, 0, 0, 870.7591552734375
168, 0, 0, 873.1049194335938
169, 0, 0, 869.4249267578125
170, 0, 0, 865.1604614257812
171, 0, 0, 869.29833984375
172, 0, 0, 868.0521850585938
173, 0, 0, 855.8684692382812
174, 0, 0, 860.3236083984375
175, 0, 0, 852.3932495117188
176, 0, 0, 853.6392211914062
177, 0, 0, 851.0350952148438
178, 0, 0, 855.9120483398438
179, 0, 0, 841.3397827148438
