# TOPAS Version: 3.3.p1
# Parameter File: Test.txt
# Results for scorer MLIC_Scorer
# Scored in component: MLIC
# X in 180 bins of 0.177778 cm
# Y in 1 bin  of 10 cm
# Z in 1 bin  of 10 cm
# EnergyDeposit ( MeV ) : Sum   
0, 0, 0, 0
1, 0, 0, 0
2, 0, 0, 0
3, 0, 0, 0
4, 0, 0, 0
5, 0, 0, 0
6, 0, 0, 0
7, 0, 0, 0
8, 0, 0, 0
9, 0, 0, 0
10, 0, 0, 0
11, 0, 0, 0
12, 0, 0, 0
13, 0, 0, 0
14, 0, 0, 0
15, 0, 0, 0
16, 0, 0, 0
17, 0, 0, 0
18, 0, 0, 0
19, 0, 0, 0
20, 0, 0, 0
21, 0, 0, 0
22, 0, 0, 0
23, 0, 0, 0.008132761344313622
24, 0, 0, 0
25, 0, 0, 0
26, 0, 0, 0
27, 0, 0, 0
28, 0, 0, 0
29, 0, 0, 0
30, 0, 0, 0
31, 0, 0, 0
32, 0, 0, 0
33, 0, 0, 0
34, 0, 0, 0
35, 0, 0, 0
36, 0, 0, 0
37, 0, 0, 0
38, 0, 0, 0
39, 0, 0, 0
40, 0, 0, 0
41, 0, 0, 0
42, 0, 0, 0
43, 0, 0, 0
44, 0, 0, 0
45, 0, 0, 6.813821792602539
46, 0, 0, 66.66527557373047
47, 0, 0, 299.9393920898438
48, 0, 0, 930.7607421875
49, 0, 0, 1804.640502929688
50, 0, 0, 3268.91845703125
51, 0, 0, 4370.08544921875
52, 0, 0, 4850.60400390625
53, 0, 0, 4904.7958984375
54, 0, 0, 4382.46240234375
55, 0, 0, 3858.237060546875
56, 0, 0, 3429.8408203125
57, 0, 0, 3112.78125
58, 0, 0, 2884.614990234375
59, 0, 0, 2705.23046875
60, 0, 0, 2552.6044921875
61, 0, 0, 2443.381591796875
62, 0, 0, 2334.9677734375
63, 0, 0, 2248.12060546875
64, 0, 0, 2166.751708984375
65, 0, 0, 2103.14208984375
66, 0, 0, 2028.472900390625
67, 0, 0, 1975.828857421875
68, 0, 0, 1922.261108398438
69, 0, 0, 1875.787109375
70, 0, 0, 1838.061645507812
71, 0, 0, 1792.111328125
72, 0, 0, 1752.817260742188
73, 0, 0, 1723.428955078125
74, 0, 0, 1687.438720703125
75, 0, 0, 1654.336059570312
76, 0, 0, 1627.103881835938
77, 0, 0, 1596.107543945312
78, 0, 0, 1585.411010742188
79, 0, 0, 1557.952758789062
80, 0, 0, 1529.802856445312
81, 0, 0, 1507.411499023438
82, 0, 0, 1486.330078125
83, 0, 0, 1462.5771484375
84, 0, 0, 1450.111572265625
85, 0, 0, 1424.349609375
86, 0, 0, 1414.162963867188
87, 0, 0, 1398.873168945312
88, 0, 0, 1376.377807617188
89, 0, 0, 1359.908325195312
90, 0, 0, 1351.950805664062
91, 0, 0, 1329.053833007812
92, 0, 0, 1319.804565429688
93, 0, 0, 1306.863647460938
94, 0, 0, 1288.899047851562
95, 0, 0, 1280.917358398438
96, 0, 0, 1277.615356445312
97, 0, 0, 1260.0361328125
98, 0, 0, 1243.738037109375
99, 0, 0, 1240.09814453125
100, 0, 0, 1221.48486328125
101, 0, 0, 1213.072143554688
102, 0, 0, 1193.342407226562
103, 0, 0, 1194.721313476562
104, 0, 0, 1187.015625
105, 0, 0, 1172.550659179688
106, 0, 0, 1154.830932617188
107, 0, 0, 1157.010986328125
108, 0, 0, 1148.33740234375
109, 0, 0, 1137.944946289062
110, 0, 0, 1133.830078125
111, 0, 0, 1121.339111328125
112, 0, 0, 1113.7412109375
113, 0, 0, 1121.265380859375
114, 0, 0, 1112.111938476562
115, 0, 0, 1090.4267578125
116, 0, 0, 1083.987670898438
117, 0, 0, 1086.109985351562
118, 0, 0, 1074.628295898438
119, 0, 0, 1061.233764648438
120, 0, 0, 1062.211059570312
121, 0, 0, 1059.197875976562
122, 0, 0, 1051.281127929688
123, 0, 0, 1047.148681640625
124, 0, 0, 1049.226928710938
125, 0, 0, 1031.090576171875
126, 0, 0, 1029.383666992188
127, 0, 0, 1016.271789550781
128, 0, 0, 1015.147766113281
129, 0, 0, 1024.077880859375
130, 0, 0, 1014.69384765625
131, 0, 0, 997.03466796875
132, 0, 0, 1001.276794433594
133, 0, 0, 996.4255981445312
134, 0, 0, 985.4635620117188
135, 0, 0, 982.806396484375
136, 0, 0, 980.9752807617188
137, 0, 0, 976.6119995117188
138, 0, 0, 968.0844116210938
139, 0, 0, 968.8871459960938
140, 0, 0, 965.8163452148438
141, 0, 0, 961.0291748046875
142, 0, 0, 952.657470703125
143, 0, 0, 949.493408203125
144, 0, 0, 945.7571411132812
145, 0, 0, 945.176513671875
146, 0, 0, 941.96337890625
147, 0, 0, 936.4983520507812
148, 0, 0, 925.2811279296875
149, 0, 0, 932.0051879882812
150, 0, 0, 917.42041015625
151, 0, 0, 925.5994262695312
152, 0, 0, 913.60546875
153, 0, 0, 914.7162475585938
154, 0, 0, 912.858642578125
155, 0, 0, 910.4127197265625
156, 0, 0, 896.5501098632812
157, 0, 0, 901.08251953125
158, 0, 0, 898.8897094726562
159, 0, 0, 892.7719116210938
160, 0, 0, 891.9384155273438
161, 0, 0, 884.4940795898438
162, 0, 0, 882.9260864257812
163, 0, 0, 881.5933837890625
164, 0, 0, 877.1207275390625
165, 0, 0, 875.3280639648438
166, 0, 0, 877.6028442382812
167, 0, 0, 865.6583862304688
168, 0, 0, 869.416259765625
169, 0, 0, 858.2987670898438
170, 0, 0, 862.5728149414062
171, 0, 0, 859.0877075195312
172, 0, 0, 851.9576416015625
173, 0, 0, 851.9251708984375
174, 0, 0, 849.3739624023438
175, 0, 0, 844.490966796875
176, 0, 0, 843.5809326171875
177, 0, 0, 842.09619140625
178, 0, 0, 850.8612670898438
179, 0, 0, 839.6053466796875
