# TOPAS Version: 3.3.p1
# Parameter File: Test.txt
# Results for scorer MLIC_Scorer
# Scored in component: MLIC
# X in 180 bins of 0.177778 cm
# Y in 1 bin  of 10 cm
# Z in 1 bin  of 10 cm
# EnergyDeposit ( MeV ) : Sum   
0, 0, 0, 0
1, 0, 0, 0
2, 0, 0, 0
3, 0, 0, 0
4, 0, 0, 0
5, 0, 0, 0
6, 0, 0, 0
7, 0, 0, 0
8, 0, 0, 0
9, 0, 0, 0
10, 0, 0, 0
11, 0, 0, 0
12, 0, 0, 0
13, 0, 0, 0
14, 0, 0, 0
15, 0, 0, 0
16, 0, 0, 0
17, 0, 0, 0
18, 0, 0, 0
19, 0, 0, 0
20, 0, 0, 0
21, 0, 0, 0
22, 0, 0, 0
23, 0, 0, 0
24, 0, 0, 0
25, 0, 0, 0
26, 0, 0, 0
27, 0, 0, 0
28, 0, 0, 0
29, 0, 0, 0
30, 0, 0, 0
31, 0, 0, 0
32, 0, 0, 0
33, 0, 0, 0
34, 0, 0, 0
35, 0, 0, 0
36, 0, 0, 0
37, 0, 0, 0
38, 0, 0, 0
39, 0, 0, 0
40, 0, 0, 0
41, 0, 0, 0
42, 0, 0, 0
43, 0, 0, 0
44, 0, 0, 0
45, 0, 0, 0
46, 0, 0, 0
47, 0, 0, 0
48, 0, 0, 0
49, 0, 0, 0
50, 0, 0, 0
51, 0, 0, 0
52, 0, 0, 0
53, 0, 0, 0
54, 0, 0, 0
55, 0, 0, 0
56, 0, 0, 0
57, 0, 0, 0
58, 0, 0, 0
59, 0, 0, 0
60, 0, 0, 0
61, 0, 0, 0
62, 0, 0, 0
63, 0, 0, 0
64, 0, 0, 0
65, 0, 0, 0
66, 0, 0, 0
67, 0, 0, 0
68, 0, 0, 0
69, 0, 0, 0
70, 0, 0, 0
71, 0, 0, 0
72, 0, 0, 0
73, 0, 0, 0
74, 0, 0, 0
75, 0, 0, 0
76, 0, 0, 0
77, 0, 0, 0
78, 0, 0, 0
79, 0, 0, 0
80, 0, 0, 0
81, 0, 0, 0
82, 0, 0, 0
83, 0, 0, 0
84, 0, 0, 0
85, 0, 0, 0
86, 0, 0, 0
87, 0, 0, 0
88, 0, 0, 0
89, 0, 0, 0
90, 0, 0, 0
91, 0, 0, 0
92, 0, 0, 0
93, 0, 0, 0
94, 0, 0, 0
95, 0, 0, 0
96, 0, 0, 0
97, 0, 0, 0
98, 0, 0, 0
99, 0, 0, 0
100, 0, 0, 0
101, 0, 0, 0
102, 0, 0, 0
103, 0, 0, 0
104, 0, 0, 0
105, 0, 0, 0
106, 0, 0, 0
107, 0, 0, 0
108, 0, 0, 0.0223995428532362
109, 0, 0, 0
110, 0, 0, 0
111, 0, 0, 0
112, 0, 0, 0
113, 0, 0, 0.0296738538891077
114, 0, 0, 0
115, 0, 0, 8.790038108825684
116, 0, 0, 49.42072296142578
117, 0, 0, 249.9250793457031
118, 0, 0, 688.1275024414062
119, 0, 0, 1889.307495117188
120, 0, 0, 3082.55078125
121, 0, 0, 4374.9052734375
122, 0, 0, 4886.91748046875
123, 0, 0, 4894.8544921875
124, 0, 0, 4470.369140625
125, 0, 0, 3874.18603515625
126, 0, 0, 3465.026611328125
127, 0, 0, 3135.436767578125
128, 0, 0, 2898.454345703125
129, 0, 0, 2712.08544921875
130, 0, 0, 2570.041259765625
131, 0, 0, 2447.85888671875
132, 0, 0, 2339.02197265625
133, 0, 0, 2258.11328125
134, 0, 0, 2165.535888671875
135, 0, 0, 2103.72412109375
136, 0, 0, 2031.55810546875
137, 0, 0, 1981.9052734375
138, 0, 0, 1925.680053710938
139, 0, 0, 1885.111206054688
140, 0, 0, 1833.334838867188
141, 0, 0, 1793.130981445312
142, 0, 0, 1760.072143554688
143, 0, 0, 1725.900146484375
144, 0, 0, 1690.42626953125
145, 0, 0, 1657.099243164062
146, 0, 0, 1625.290771484375
147, 0, 0, 1598.613647460938
148, 0, 0, 1574.323974609375
149, 0, 0, 1554.239990234375
150, 0, 0, 1532.57763671875
151, 0, 0, 1504.920166015625
152, 0, 0, 1480.625610351562
153, 0, 0, 1463.2490234375
154, 0, 0, 1455.207641601562
155, 0, 0, 1429.733520507812
156, 0, 0, 1410.6484375
157, 0, 0, 1403.799194335938
158, 0, 0, 1383.555053710938
159, 0, 0, 1364.74267578125
160, 0, 0, 1353.480590820312
161, 0, 0, 1326.172119140625
162, 0, 0, 1315.988647460938
163, 0, 0, 1306.86279296875
164, 0, 0, 1294.625244140625
165, 0, 0, 1289.110107421875
166, 0, 0, 1269.5517578125
167, 0, 0, 1261.859130859375
168, 0, 0, 1249.049072265625
169, 0, 0, 1234.437377929688
170, 0, 0, 1224.832397460938
171, 0, 0, 1212.944091796875
172, 0, 0, 1203.373779296875
173, 0, 0, 1193.3740234375
174, 0, 0, 1184.949829101562
175, 0, 0, 1181.684448242188
176, 0, 0, 1168.194580078125
177, 0, 0, 1161.281372070312
178, 0, 0, 1148.0771484375
179, 0, 0, 1145.967895507812
