# TOPAS Version: 3.3.p1
# Parameter File: Test.txt
# Results for scorer MLIC_Scorer
# Scored in component: MLIC
# X in 180 bins of 0.183333 cm
# Y in 1 bin  of 10 cm
# Z in 1 bin  of 10 cm
# EnergyDeposit ( MeV ) : Sum   
0, 0, 0, 0
1, 0, 0, 0
2, 0, 0, 0
3, 0, 0, 0
4, 0, 0, 0
5, 0, 0, 0
6, 0, 0, 0
7, 0, 0, 0
8, 0, 0, 0
9, 0, 0, 0
10, 0, 0, 0
11, 0, 0, 0
12, 0, 0, 0
13, 0, 0, 0
14, 0, 0, 0
15, 0, 0, 0
16, 0, 0, 0
17, 0, 0, 0
18, 0, 0, 0
19, 0, 0, 0
20, 0, 0, 0
21, 0, 0, 0
22, 0, 0, 0
23, 0, 0, 0
24, 0, 0, 0
25, 0, 0, 0
26, 0, 0, 0
27, 0, 0, 0
28, 0, 0, 0
29, 0, 0, 0
30, 0, 0, 0
31, 0, 0, 0
32, 0, 0, 0
33, 0, 0, 0
34, 0, 0, 0
35, 0, 0, 0
36, 0, 0, 0
37, 0, 0, 0
38, 0, 0, 0
39, 0, 0, 0
40, 0, 0, 0
41, 0, 0, 0
42, 0, 0, 0
43, 0, 0, 0
44, 0, 0, 0
45, 0, 0, 0
46, 0, 0, 0
47, 0, 0, 0
48, 0, 0, 0
49, 0, 0, 0
50, 0, 0, 0
51, 0, 0, 0
52, 0, 0, 0
53, 0, 0, 0
54, 0, 0, 0
55, 0, 0, 0
56, 0, 0, 0
57, 0, 0, 0
58, 0, 0, 0
59, 0, 0, 0
60, 0, 0, 0
61, 0, 0, 0
62, 0, 0, 0
63, 0, 0, 0
64, 0, 0, 0
65, 0, 0, 0
66, 0, 0, 0
67, 0, 0, 0
68, 0, 0, 0
69, 0, 0, 0
70, 0, 0, 0
71, 0, 0, 0
72, 0, 0, 0
73, 0, 0, 0
74, 0, 0, 0
75, 0, 0, 0
76, 0, 0, 0
77, 0, 0, 0.00921138096600771
78, 0, 0, 0
79, 0, 0, 0
80, 0, 0, 0
81, 0, 0, 0
82, 0, 0, 0
83, 0, 0, 0
84, 0, 0, 0
85, 0, 0, 0
86, 0, 0, 0
87, 0, 0, 0
88, 0, 0, 0
89, 0, 0, 0
90, 0, 0, 0
91, 0, 0, 0
92, 0, 0, 0
93, 0, 0, 0
94, 0, 0, 0
95, 0, 0, 0
96, 0, 0, 0
97, 0, 0, 0
98, 0, 0, 28.83210372924805
99, 0, 0, 204.2459106445312
100, 0, 0, 748.1658935546875
101, 0, 0, 1981.68017578125
102, 0, 0, 3409.087646484375
103, 0, 0, 4649.724609375
104, 0, 0, 5196.990234375
105, 0, 0, 4971.4990234375
106, 0, 0, 4442.86669921875
107, 0, 0, 3879.619140625
108, 0, 0, 3433.302734375
109, 0, 0, 3137.578857421875
110, 0, 0, 2909.9521484375
111, 0, 0, 2730.68603515625
112, 0, 0, 2591.51806640625
113, 0, 0, 2472.281982421875
114, 0, 0, 2358.95703125
115, 0, 0, 2275.38232421875
116, 0, 0, 2199.5078125
117, 0, 0, 2131.728271484375
118, 0, 0, 2056.03125
119, 0, 0, 2003.441040039062
120, 0, 0, 1954.301147460938
121, 0, 0, 1916.409423828125
122, 0, 0, 1870.704345703125
123, 0, 0, 1814.453247070312
124, 0, 0, 1779.156860351562
125, 0, 0, 1743.046630859375
126, 0, 0, 1716.341796875
127, 0, 0, 1691.346557617188
128, 0, 0, 1656.17578125
129, 0, 0, 1627.70166015625
130, 0, 0, 1608.08349609375
131, 0, 0, 1577.4248046875
132, 0, 0, 1551.611694335938
133, 0, 0, 1526.291015625
134, 0, 0, 1512.107666015625
135, 0, 0, 1487.8740234375
136, 0, 0, 1471.503540039062
137, 0, 0, 1453.067504882812
138, 0, 0, 1436.824951171875
139, 0, 0, 1412.96484375
140, 0, 0, 1413.1474609375
141, 0, 0, 1389.258544921875
142, 0, 0, 1369.039672851562
143, 0, 0, 1357.249267578125
144, 0, 0, 1344.9052734375
145, 0, 0, 1327.000732421875
146, 0, 0, 1316.660400390625
147, 0, 0, 1304.105346679688
148, 0, 0, 1287.993408203125
149, 0, 0, 1284.0361328125
150, 0, 0, 1266.56201171875
151, 0, 0, 1258.661376953125
152, 0, 0, 1249.68408203125
153, 0, 0, 1242.853515625
154, 0, 0, 1228.4814453125
155, 0, 0, 1213.111450195312
156, 0, 0, 1207.93994140625
157, 0, 0, 1196.700561523438
158, 0, 0, 1187.911254882812
159, 0, 0, 1177.158813476562
160, 0, 0, 1164.97900390625
161, 0, 0, 1157.313720703125
162, 0, 0, 1153.952758789062
163, 0, 0, 1144.285400390625
164, 0, 0, 1145.825805664062
165, 0, 0, 1128.629028320312
166, 0, 0, 1120.871948242188
167, 0, 0, 1115.562744140625
168, 0, 0, 1107.835693359375
169, 0, 0, 1105.216430664062
170, 0, 0, 1096.311401367188
171, 0, 0, 1096.174072265625
172, 0, 0, 1079.963012695312
173, 0, 0, 1085.850952148438
174, 0, 0, 1071.24853515625
175, 0, 0, 1063.104736328125
176, 0, 0, 1055.31884765625
177, 0, 0, 1051.50439453125
178, 0, 0, 1044.586669921875
179, 0, 0, 1045.8525390625
