# TOPAS Version: 3.3.p1
# Parameter File: Test.txt
# Results for scorer MLIC_Scorer
# Scored in component: MLIC
# X in 180 bins of 0.177778 cm
# Y in 1 bin  of 10 cm
# Z in 1 bin  of 10 cm
# EnergyDeposit ( MeV ) : Sum   
0, 0, 0, 0
1, 0, 0, 0
2, 0, 0, 0
3, 0, 0, 0
4, 0, 0, 0
5, 0, 0, 0
6, 0, 0, 0
7, 0, 0, 0
8, 0, 0, 0
9, 0, 0, 0
10, 0, 0, 0.004120961297303438
11, 0, 0, 0
12, 0, 0, 0
13, 0, 0, 0
14, 0, 0, 0
15, 0, 0, 0
16, 0, 0, 0
17, 0, 0, 0
18, 0, 0, 0
19, 0, 0, 0
20, 0, 0, 0
21, 0, 0, 0
22, 0, 0, 0
23, 0, 0, 0
24, 0, 0, 19.89056777954102
25, 0, 0, 95.34297180175781
26, 0, 0, 370.8873291015625
27, 0, 0, 1110.073486328125
28, 0, 0, 2395.465576171875
29, 0, 0, 3904.52099609375
30, 0, 0, 4771.35205078125
31, 0, 0, 4960.873046875
32, 0, 0, 4689.24560546875
33, 0, 0, 4140.65380859375
34, 0, 0, 3658.720703125
35, 0, 0, 3276.9150390625
36, 0, 0, 3009.346923828125
37, 0, 0, 2798.54833984375
38, 0, 0, 2632.49365234375
39, 0, 0, 2499.66064453125
40, 0, 0, 2397.36083984375
41, 0, 0, 2296.914794921875
42, 0, 0, 2209.2177734375
43, 0, 0, 2128.165771484375
44, 0, 0, 2071.060791015625
45, 0, 0, 2002.3828125
46, 0, 0, 1952.639892578125
47, 0, 0, 1902.261474609375
48, 0, 0, 1856.506958007812
49, 0, 0, 1824.222290039062
50, 0, 0, 1784.1669921875
51, 0, 0, 1750.5146484375
52, 0, 0, 1707.25146484375
53, 0, 0, 1682.034301757812
54, 0, 0, 1648.357666015625
55, 0, 0, 1616.853515625
56, 0, 0, 1590.55126953125
57, 0, 0, 1567.927124023438
58, 0, 0, 1540.821533203125
59, 0, 0, 1518.462036132812
60, 0, 0, 1499.089721679688
61, 0, 0, 1478.1376953125
62, 0, 0, 1462.92578125
63, 0, 0, 1437.793334960938
64, 0, 0, 1419.017456054688
65, 0, 0, 1401.2294921875
66, 0, 0, 1393.305419921875
67, 0, 0, 1374.384155273438
68, 0, 0, 1350.406372070312
69, 0, 0, 1341.6953125
70, 0, 0, 1330.229370117188
71, 0, 0, 1314.483276367188
72, 0, 0, 1306.828125
73, 0, 0, 1281.914794921875
74, 0, 0, 1278.681396484375
75, 0, 0, 1269.413208007812
76, 0, 0, 1251.024047851562
77, 0, 0, 1240.391357421875
78, 0, 0, 1223.538818359375
79, 0, 0, 1220.416748046875
80, 0, 0, 1211.14501953125
81, 0, 0, 1202.932983398438
82, 0, 0, 1189.409301757812
83, 0, 0, 1180.79833984375
84, 0, 0, 1173.225463867188
85, 0, 0, 1162.046264648438
86, 0, 0, 1151.854736328125
87, 0, 0, 1145.210205078125
88, 0, 0, 1134.3623046875
89, 0, 0, 1132.183471679688
90, 0, 0, 1123.928588867188
91, 0, 0, 1111.309204101562
92, 0, 0, 1118.999145507812
93, 0, 0, 1098.771606445312
94, 0, 0, 1094.03173828125
95, 0, 0, 1095.100952148438
96, 0, 0, 1084.16796875
97, 0, 0, 1093.28759765625
98, 0, 0, 1066.135986328125
99, 0, 0, 1062.976440429688
100, 0, 0, 1054.82421875
101, 0, 0, 1047.230102539062
102, 0, 0, 1053.445556640625
103, 0, 0, 1041.709716796875
104, 0, 0, 1032.88525390625
105, 0, 0, 1032.936157226562
106, 0, 0, 1018.486877441406
107, 0, 0, 1018.644836425781
108, 0, 0, 1010.716064453125
109, 0, 0, 1006.931091308594
110, 0, 0, 1002.702758789062
111, 0, 0, 993.8021240234375
112, 0, 0, 990.894775390625
113, 0, 0, 985.447998046875
114, 0, 0, 986.2582397460938
115, 0, 0, 975.2235717773438
116, 0, 0, 973.4849243164062
117, 0, 0, 975.5946655273438
118, 0, 0, 961.5302734375
119, 0, 0, 962.3850708007812
120, 0, 0, 957.842529296875
121, 0, 0, 948.8634643554688
122, 0, 0, 949.9437866210938
123, 0, 0, 944.1131591796875
124, 0, 0, 942.3070678710938
125, 0, 0, 931.2992553710938
126, 0, 0, 928.8086547851562
127, 0, 0, 930.5310668945312
128, 0, 0, 925.9475708007812
129, 0, 0, 922.4447631835938
130, 0, 0, 921.5896606445312
131, 0, 0, 918.894775390625
132, 0, 0, 906.5535888671875
133, 0, 0, 909.5798950195312
134, 0, 0, 900.6932373046875
135, 0, 0, 894.3206787109375
136, 0, 0, 892.0325927734375
137, 0, 0, 899.7138061523438
138, 0, 0, 897.9969482421875
139, 0, 0, 886.6160278320312
140, 0, 0, 875.92578125
141, 0, 0, 880.0695190429688
142, 0, 0, 879.7927856445312
143, 0, 0, 870.9405517578125
144, 0, 0, 874.9270629882812
145, 0, 0, 870.60791015625
146, 0, 0, 862.7400512695312
147, 0, 0, 864.7344360351562
148, 0, 0, 856.4703369140625
149, 0, 0, 858.3987426757812
150, 0, 0, 860.1798706054688
151, 0, 0, 844.7894897460938
152, 0, 0, 844.483642578125
153, 0, 0, 848.2135620117188
154, 0, 0, 842.4716186523438
155, 0, 0, 847.3921508789062
156, 0, 0, 834.3572998046875
157, 0, 0, 846.0669555664062
158, 0, 0, 836.32958984375
159, 0, 0, 839.3410034179688
160, 0, 0, 834.2196655273438
161, 0, 0, 836.1282958984375
162, 0, 0, 827.4692993164062
163, 0, 0, 820.7957153320312
164, 0, 0, 815.8275146484375
165, 0, 0, 818.6947021484375
166, 0, 0, 815.4010620117188
167, 0, 0, 804.2913208007812
168, 0, 0, 804.25390625
169, 0, 0, 805.9139404296875
170, 0, 0, 805.2025146484375
171, 0, 0, 809.2743530273438
172, 0, 0, 806.4310302734375
173, 0, 0, 808.158935546875
174, 0, 0, 794.8754272460938
175, 0, 0, 794.268798828125
176, 0, 0, 790.069580078125
177, 0, 0, 792.273681640625
178, 0, 0, 791.9727783203125
179, 0, 0, 789.4104614257812
