# TOPAS Version: 3.3.p1
# Parameter File: Test.txt
# Results for scorer MLIC_Scorer
# Scored in component: MLIC
# X in 180 bins of 0.177778 cm
# Y in 1 bin  of 10 cm
# Z in 1 bin  of 10 cm
# EnergyDeposit ( MeV ) : Sum   
0, 0, 0, 0
1, 0, 0, 0
2, 0, 0, 0
3, 0, 0, 0
4, 0, 0, 0
5, 0, 0, 0
6, 0, 0, 0
7, 0, 0, 0
8, 0, 0, 0
9, 0, 0, 0
10, 0, 0, 0
11, 0, 0, 0
12, 0, 0, 0
13, 0, 0, 0
14, 0, 0, 0
15, 0, 0, 0
16, 0, 0, 0
17, 0, 0, 0
18, 0, 0, 0
19, 0, 0, 0
20, 0, 0, 0
21, 0, 0, 0
22, 0, 0, 0
23, 0, 0, 0
24, 0, 0, 0
25, 0, 0, 0
26, 0, 0, 0
27, 0, 0, 0
28, 0, 0, 0
29, 0, 0, 0
30, 0, 0, 0
31, 0, 0, 0
32, 0, 0, 0
33, 0, 0, 0
34, 0, 0, 0
35, 0, 0, 0
36, 0, 0, 0
37, 0, 0, 0
38, 0, 0, 0
39, 0, 0, 0
40, 0, 0, 0
41, 0, 0, 0
42, 0, 0, 0
43, 0, 0, 0
44, 0, 0, 0
45, 0, 0, 0
46, 0, 0, 0
47, 0, 0, 0
48, 0, 0, 0
49, 0, 0, 0
50, 0, 0, 0
51, 0, 0, 0
52, 0, 0, 0
53, 0, 0, 0
54, 0, 0, 0
55, 0, 0, 0
56, 0, 0, 0
57, 0, 0, 0
58, 0, 0, 0
59, 0, 0, 0
60, 0, 0, 0
61, 0, 0, 0
62, 0, 0, 0
63, 0, 0, 0
64, 0, 0, 0
65, 0, 0, 0
66, 0, 0, 0
67, 0, 0, 0
68, 0, 0, 0
69, 0, 0, 0
70, 0, 0, 0
71, 0, 0, 0
72, 0, 0, 0
73, 0, 0, 0
74, 0, 0, 0
75, 0, 0, 0
76, 0, 0, 0
77, 0, 0, 0
78, 0, 0, 0.001018810900859535
79, 0, 0, 0.007062180433422327
80, 0, 0, 0.02922033332288265
81, 0, 0, 0
82, 0, 0, 0
83, 0, 0, 0
84, 0, 0, 0
85, 0, 0, 0
86, 0, 0, 0
87, 0, 0, 0
88, 0, 0, 0
89, 0, 0, 0
90, 0, 0, 0
91, 0, 0, 0
92, 0, 0, 0.00805913470685482
93, 0, 0, 0
94, 0, 0, 0
95, 0, 0, 0
96, 0, 0, 0
97, 0, 0, 0.002437571529299021
98, 0, 0, 0
99, 0, 0, 0
100, 0, 0, 0.004678693599998951
101, 0, 0, 0
102, 0, 0, 0
103, 0, 0, 0.04461420699954033
104, 0, 0, 0
105, 0, 0, 0.006506933365017176
106, 0, 0, 0
107, 0, 0, 0
108, 0, 0, 0
109, 0, 0, 0
110, 0, 0, 0
111, 0, 0, 0
112, 0, 0, 0
113, 0, 0, 0
114, 0, 0, 0
115, 0, 0, 0
116, 0, 0, 0
117, 0, 0, 0.0003652366285677999
118, 0, 0, 0
119, 0, 0, 0
120, 0, 0, 0
121, 0, 0, 0
122, 0, 0, 0
123, 0, 0, 0
124, 0, 0, 0
125, 0, 0, 0
126, 0, 0, 0
127, 0, 0, 0
128, 0, 0, 0
129, 0, 0, 0
130, 0, 0, 0
131, 0, 0, 0
132, 0, 0, 0
133, 0, 0, 0
134, 0, 0, 0
135, 0, 0, 0
136, 0, 0, 0
137, 0, 0, 8.406483539147303e-05
138, 0, 0, 0
139, 0, 0, 0
140, 0, 0, 4.060178279876709
141, 0, 0, 58.81888961791992
142, 0, 0, 288.945556640625
143, 0, 0, 745.3526000976562
144, 0, 0, 1709.897338867188
145, 0, 0, 3119.578125
146, 0, 0, 4650.7783203125
147, 0, 0, 4951.20654296875
148, 0, 0, 4965.57080078125
149, 0, 0, 4492.4716796875
150, 0, 0, 3809.375
151, 0, 0, 3392.85693359375
152, 0, 0, 3107.31591796875
153, 0, 0, 2871.138916015625
154, 0, 0, 2697.59130859375
155, 0, 0, 2551.892578125
156, 0, 0, 2436.9296875
157, 0, 0, 2335.261962890625
158, 0, 0, 2243.488525390625
159, 0, 0, 2157.102783203125
160, 0, 0, 2100.498291015625
161, 0, 0, 2032.371337890625
162, 0, 0, 1967.341674804688
163, 0, 0, 1931.674194335938
164, 0, 0, 1880.63330078125
165, 0, 0, 1829.812744140625
166, 0, 0, 1789.570922851562
167, 0, 0, 1756.8466796875
168, 0, 0, 1714.35107421875
169, 0, 0, 1695.630126953125
170, 0, 0, 1650.882446289062
171, 0, 0, 1626.216430664062
172, 0, 0, 1606.734497070312
173, 0, 0, 1576.961669921875
174, 0, 0, 1553.751220703125
175, 0, 0, 1525.93408203125
176, 0, 0, 1505.200805664062
177, 0, 0, 1476.244873046875
178, 0, 0, 1467.678588867188
179, 0, 0, 1449.326416015625
