# TOPAS Version: 3.3.p1
# Parameter File: Test.txt
# Results for scorer MLIC_Scorer
# Scored in component: MLIC
# X in 180 bins of 0.177778 cm
# Y in 1 bin  of 10 cm
# Z in 1 bin  of 10 cm
# EnergyDeposit ( MeV ) : Sum   
0, 0, 0, 0
1, 0, 0, 0
2, 0, 0, 0
3, 0, 0, 0
4, 0, 0, 0
5, 0, 0, 0
6, 0, 0, 0
7, 0, 0, 0
8, 0, 0, 0
9, 0, 0, 0
10, 0, 0, 0
11, 0, 0, 0
12, 0, 0, 0
13, 0, 0, 0
14, 0, 0, 0
15, 0, 0, 0
16, 0, 0, 0
17, 0, 0, 0
18, 0, 0, 0
19, 0, 0, 0
20, 0, 0, 0
21, 0, 0, 0
22, 0, 0, 0
23, 0, 0, 0
24, 0, 0, 0
25, 0, 0, 0
26, 0, 0, 0
27, 0, 0, 0
28, 0, 0, 0
29, 0, 0, 0
30, 0, 0, 0
31, 0, 0, 0
32, 0, 0, 0
33, 0, 0, 0
34, 0, 0, 0
35, 0, 0, 0
36, 0, 0, 0
37, 0, 0, 0
38, 0, 0, 0
39, 0, 0, 0
40, 0, 0, 0
41, 0, 0, 0
42, 0, 0, 0
43, 0, 0, 0
44, 0, 0, 0
45, 0, 0, 0
46, 0, 0, 0
47, 0, 0, 0
48, 0, 0, 0
49, 0, 0, 0
50, 0, 0, 0
51, 0, 0, 0
52, 0, 0, 0
53, 0, 0, 0
54, 0, 0, 0
55, 0, 0, 0
56, 0, 0, 0
57, 0, 0, 0
58, 0, 0, 0
59, 0, 0, 0
60, 0, 0, 0
61, 0, 0, 0
62, 0, 0, 0
63, 0, 0, 0
64, 0, 0, 0
65, 0, 0, 0
66, 0, 0, 0
67, 0, 0, 0
68, 0, 0, 8.16102123260498
69, 0, 0, 24.02586364746094
70, 0, 0, 67.77653503417969
71, 0, 0, 187.7725372314453
72, 0, 0, 253.0079040527344
73, 0, 0, 392.14013671875
74, 0, 0, 382.1467895507812
75, 0, 0, 367.4839172363281
76, 0, 0, 305.90283203125
77, 0, 0, 275.8032531738281
78, 0, 0, 242.4866027832031
79, 0, 0, 225.4300689697266
80, 0, 0, 209.1510620117188
81, 0, 0, 199.418701171875
82, 0, 0, 188.3593902587891
83, 0, 0, 179.3798065185547
84, 0, 0, 171.0683746337891
85, 0, 0, 165.2436981201172
86, 0, 0, 159.5255279541016
87, 0, 0, 153.2674865722656
88, 0, 0, 149.9037628173828
89, 0, 0, 145.9100189208984
90, 0, 0, 141.5642700195312
91, 0, 0, 141.0267028808594
92, 0, 0, 135.5735931396484
93, 0, 0, 134.1362457275391
94, 0, 0, 129.0218963623047
95, 0, 0, 129.4727020263672
96, 0, 0, 124.9439086914062
97, 0, 0, 124.3855209350586
98, 0, 0, 119.9940338134766
99, 0, 0, 119.0084686279297
100, 0, 0, 117.4907302856445
101, 0, 0, 113.070442199707
102, 0, 0, 116.070930480957
103, 0, 0, 113.3229446411133
104, 0, 0, 111.9409408569336
105, 0, 0, 109.4818954467773
106, 0, 0, 106.8435821533203
107, 0, 0, 106.7371215820312
108, 0, 0, 105.6653594970703
109, 0, 0, 104.5321884155273
110, 0, 0, 102.1892166137695
111, 0, 0, 103.2508773803711
112, 0, 0, 101.5390472412109
113, 0, 0, 100.5419006347656
114, 0, 0, 98.9736328125
115, 0, 0, 98.41910552978516
116, 0, 0, 97.61671447753906
117, 0, 0, 93.71539306640625
118, 0, 0, 94.2554931640625
119, 0, 0, 94.80525970458984
120, 0, 0, 92.67478179931641
121, 0, 0, 91.52715301513672
122, 0, 0, 90.88838195800781
123, 0, 0, 90.33073425292969
124, 0, 0, 92.53554534912109
125, 0, 0, 89.82147979736328
126, 0, 0, 87.46276092529297
127, 0, 0, 88.552001953125
128, 0, 0, 87.10002899169922
129, 0, 0, 86.61534881591797
130, 0, 0, 85.23287963867188
131, 0, 0, 84.54437255859375
132, 0, 0, 83.65630340576172
133, 0, 0, 84.76979827880859
134, 0, 0, 84.234619140625
135, 0, 0, 84.27519989013672
136, 0, 0, 83.87965393066406
137, 0, 0, 81.71974182128906
138, 0, 0, 81.66011810302734
139, 0, 0, 80.36562347412109
140, 0, 0, 81.96064758300781
141, 0, 0, 82.31522369384766
142, 0, 0, 78.73354339599609
143, 0, 0, 79.84603881835938
144, 0, 0, 77.62322998046875
145, 0, 0, 80.63339996337891
146, 0, 0, 77.68148040771484
147, 0, 0, 76.27536010742188
148, 0, 0, 76.44802093505859
149, 0, 0, 75.96450042724609
150, 0, 0, 75.03059387207031
151, 0, 0, 76.18216705322266
152, 0, 0, 75.31786346435547
153, 0, 0, 75.65573120117188
154, 0, 0, 76.09883880615234
155, 0, 0, 74.72309112548828
156, 0, 0, 74.77082061767578
157, 0, 0, 73.70738983154297
158, 0, 0, 73.00894927978516
159, 0, 0, 72.13726043701172
160, 0, 0, 72.13282775878906
161, 0, 0, 72.81829071044922
162, 0, 0, 71.15865325927734
163, 0, 0, 73.29289245605469
164, 0, 0, 72.39141845703125
165, 0, 0, 71.87474822998047
166, 0, 0, 69.82816314697266
167, 0, 0, 69.03214263916016
168, 0, 0, 70.64389801025391
169, 0, 0, 68.89954376220703
170, 0, 0, 67.93587493896484
171, 0, 0, 67.70937347412109
172, 0, 0, 68.25663757324219
173, 0, 0, 69.54334259033203
174, 0, 0, 68.10785675048828
175, 0, 0, 69.82584381103516
176, 0, 0, 68.48451232910156
177, 0, 0, 66.95993804931641
178, 0, 0, 69.52890777587891
179, 0, 0, 71.56601715087891
