# TOPAS Version: 3.3.p1
# Parameter File: Test.txt
# Results for scorer MLIC_Scorer
# Scored in component: MLIC
# X in 180 bins of 0.177778 cm
# Y in 1 bin  of 10 cm
# Z in 1 bin  of 10 cm
# EnergyDeposit ( MeV ) : Sum   
0, 0, 0, 0
1, 0, 0, 0
2, 0, 0, 0
3, 0, 0, 0
4, 0, 0, 0
5, 0, 0, 0
6, 0, 0, 0
7, 0, 0, 0
8, 0, 0, 0
9, 0, 0, 0
10, 0, 0, 0
11, 0, 0, 0
12, 0, 0, 0
13, 0, 0, 0
14, 0, 0, 0
15, 0, 0, 0
16, 0, 0, 0
17, 0, 0, 0
18, 0, 0, 0
19, 0, 0, 0
20, 0, 0, 0
21, 0, 0, 0
22, 0, 0, 0
23, 0, 0, 0
24, 0, 0, 0
25, 0, 0, 0
26, 0, 0, 0
27, 0, 0, 0
28, 0, 0, 0
29, 0, 0, 0
30, 0, 0, 0
31, 0, 0, 0
32, 0, 0, 0
33, 0, 0, 0
34, 0, 0, 0
35, 0, 0, 0
36, 0, 0, 0
37, 0, 0, 0
38, 0, 0, 0
39, 0, 0, 0
40, 0, 0, 0
41, 0, 0, 0
42, 0, 0, 0
43, 0, 0, 0
44, 0, 0, 0
45, 0, 0, 0
46, 0, 0, 0
47, 0, 0, 0
48, 0, 0, 0
49, 0, 0, 0
50, 0, 0, 0
51, 0, 0, 0
52, 0, 0, 0
53, 0, 0, 0
54, 0, 0, 0
55, 0, 0, 0
56, 0, 0, 0
57, 0, 0, 0
58, 0, 0, 0
59, 0, 0, 0
60, 0, 0, 0
61, 0, 0, 0
62, 0, 0, 0
63, 0, 0, 0
64, 0, 0, 0
65, 0, 0, 0
66, 0, 0, 0
67, 0, 0, 0
68, 0, 0, 0
69, 0, 0, 0
70, 0, 0, 0
71, 0, 0, 0
72, 0, 0, 0
73, 0, 0, 0
74, 0, 0, 0
75, 0, 0, 0
76, 0, 0, 0
77, 0, 0, 0
78, 0, 0, 0
79, 0, 0, 0
80, 0, 0, 0
81, 0, 0, 0
82, 0, 0, 0
83, 0, 0, 0
84, 0, 0, 0
85, 0, 0, 0
86, 0, 0, 0
87, 0, 0, 0
88, 0, 0, 0
89, 0, 0, 0
90, 0, 0, 0
91, 0, 0, 0
92, 0, 0, 0
93, 0, 0, 0
94, 0, 0, 0
95, 0, 0, 0
96, 0, 0, 0
97, 0, 0, 0
98, 0, 0, 0
99, 0, 0, 0.02460510283708572
100, 0, 0, 0
101, 0, 0, 0
102, 0, 0, 0
103, 0, 0, 0
104, 0, 0, 0
105, 0, 0, 0
106, 0, 0, 0
107, 0, 0, 0
108, 0, 0, 33.5660400390625
109, 0, 0, 97.70197296142578
110, 0, 0, 361.0762634277344
111, 0, 0, 1219.286987304688
112, 0, 0, 2698.685791015625
113, 0, 0, 4107.3271484375
114, 0, 0, 4951.24853515625
115, 0, 0, 4956.71630859375
116, 0, 0, 4645.89697265625
117, 0, 0, 4045.272216796875
118, 0, 0, 3604.403076171875
119, 0, 0, 3214.56884765625
120, 0, 0, 2953.654541015625
121, 0, 0, 2766.8603515625
122, 0, 0, 2616.681884765625
123, 0, 0, 2486.51806640625
124, 0, 0, 2372.245849609375
125, 0, 0, 2274.0849609375
126, 0, 0, 2198.602294921875
127, 0, 0, 2129.1689453125
128, 0, 0, 2058.297119140625
129, 0, 0, 1992.244506835938
130, 0, 0, 1948.81298828125
131, 0, 0, 1891.921508789062
132, 0, 0, 1844.966430664062
133, 0, 0, 1806.02490234375
134, 0, 0, 1772.701293945312
135, 0, 0, 1736.353637695312
136, 0, 0, 1696.381469726562
137, 0, 0, 1677.16943359375
138, 0, 0, 1646.042358398438
139, 0, 0, 1602.863403320312
140, 0, 0, 1576.625244140625
141, 0, 0, 1563.106201171875
142, 0, 0, 1534.125610351562
143, 0, 0, 1518.313354492188
144, 0, 0, 1493.193359375
145, 0, 0, 1480.867431640625
146, 0, 0, 1455.728393554688
147, 0, 0, 1427.7451171875
148, 0, 0, 1425.173706054688
149, 0, 0, 1399.551391601562
150, 0, 0, 1380.934448242188
151, 0, 0, 1369.195434570312
152, 0, 0, 1350.004028320312
153, 0, 0, 1335.7587890625
154, 0, 0, 1317.047485351562
155, 0, 0, 1310.490356445312
156, 0, 0, 1295.468017578125
157, 0, 0, 1298.064575195312
158, 0, 0, 1285.18212890625
159, 0, 0, 1260.05419921875
160, 0, 0, 1251.02294921875
161, 0, 0, 1235.868530273438
162, 0, 0, 1231.128784179688
163, 0, 0, 1218.473876953125
164, 0, 0, 1207.43017578125
165, 0, 0, 1198.256469726562
166, 0, 0, 1190.938598632812
167, 0, 0, 1178.37255859375
168, 0, 0, 1170.74169921875
169, 0, 0, 1158.413208007812
170, 0, 0, 1160.7490234375
171, 0, 0, 1143.732421875
172, 0, 0, 1137.239501953125
173, 0, 0, 1128.84033203125
174, 0, 0, 1126.287719726562
175, 0, 0, 1109.30224609375
176, 0, 0, 1112.742309570312
177, 0, 0, 1102.533569335938
178, 0, 0, 1088.83837890625
179, 0, 0, 1084.146728515625
