# TOPAS Version: 3.3.p1
# Parameter File: Test.txt
# Results for scorer MLIC_Scorer
# Scored in component: MLIC
# X in 180 bins of 0.177778 cm
# Y in 1 bin  of 10 cm
# Z in 1 bin  of 10 cm
# EnergyDeposit ( MeV ) : Sum   
0, 0, 0, 0
1, 0, 0, 0
2, 0, 0, 0
3, 0, 0, 0
4, 0, 0, 0
5, 0, 0, 0
6, 0, 0, 0
7, 0, 0, 0
8, 0, 0, 0
9, 0, 0, 0
10, 0, 0, 0
11, 0, 0, 0
12, 0, 0, 0
13, 0, 0, 0
14, 0, 0, 0
15, 0, 0, 0
16, 0, 0, 0
17, 0, 0, 0
18, 0, 0, 0
19, 0, 0, 0.008173542097210884
20, 0, 0, 0
21, 0, 0, 0
22, 0, 0, 0.004426303319633007
23, 0, 0, 0
24, 0, 0, 0
25, 0, 0, 0
26, 0, 0, 0.0005247813533060253
27, 0, 0, 0
28, 0, 0, 0
29, 0, 0, 0
30, 0, 0, 0.07128878682851791
31, 0, 0, 0
32, 0, 0, 0
33, 0, 0, 0
34, 0, 0, 10.0240364074707
35, 0, 0, 42.00134658813477
36, 0, 0, 335.3237609863281
37, 0, 0, 1058.255249023438
38, 0, 0, 2071.50146484375
39, 0, 0, 3594.133056640625
40, 0, 0, 4756.9677734375
41, 0, 0, 5192.48486328125
42, 0, 0, 4816.2255859375
43, 0, 0, 4234.546875
44, 0, 0, 3690.9951171875
45, 0, 0, 3305.26220703125
46, 0, 0, 3021.664306640625
47, 0, 0, 2817.4580078125
48, 0, 0, 2653.704833984375
49, 0, 0, 2518.804931640625
50, 0, 0, 2397.427001953125
51, 0, 0, 2308.237060546875
52, 0, 0, 2217.15185546875
53, 0, 0, 2149.490478515625
54, 0, 0, 2073.842041015625
55, 0, 0, 2017.513549804688
56, 0, 0, 1963.043823242188
57, 0, 0, 1912.19140625
58, 0, 0, 1862.3154296875
59, 0, 0, 1819.425170898438
60, 0, 0, 1781.766357421875
61, 0, 0, 1739.49658203125
62, 0, 0, 1713.90234375
63, 0, 0, 1682.6865234375
64, 0, 0, 1642.995971679688
65, 0, 0, 1617.695678710938
66, 0, 0, 1603.222534179688
67, 0, 0, 1562.715087890625
68, 0, 0, 1543.87109375
69, 0, 0, 1517.860229492188
70, 0, 0, 1502.026123046875
71, 0, 0, 1480.048217773438
72, 0, 0, 1458.946411132812
73, 0, 0, 1437.681640625
74, 0, 0, 1425.72607421875
75, 0, 0, 1407.197509765625
76, 0, 0, 1392.094482421875
77, 0, 0, 1373.040649414062
78, 0, 0, 1359.37158203125
79, 0, 0, 1345.147216796875
80, 0, 0, 1331.561889648438
81, 0, 0, 1321.358520507812
82, 0, 0, 1301.290161132812
83, 0, 0, 1279.880981445312
84, 0, 0, 1285.292358398438
85, 0, 0, 1265.901611328125
86, 0, 0, 1257.675048828125
87, 0, 0, 1242.703491210938
88, 0, 0, 1233.03564453125
89, 0, 0, 1225.678588867188
90, 0, 0, 1208.928955078125
91, 0, 0, 1203.52978515625
92, 0, 0, 1190.945678710938
93, 0, 0, 1180.133544921875
94, 0, 0, 1172.383666992188
95, 0, 0, 1165.953735351562
96, 0, 0, 1165.853149414062
97, 0, 0, 1144.321166992188
98, 0, 0, 1147.476806640625
99, 0, 0, 1132.612548828125
100, 0, 0, 1131.39306640625
101, 0, 0, 1113.931396484375
102, 0, 0, 1107.754028320312
103, 0, 0, 1104.270141601562
104, 0, 0, 1098.006103515625
105, 0, 0, 1084.276489257812
106, 0, 0, 1078.688598632812
107, 0, 0, 1073.73291015625
108, 0, 0, 1066.65087890625
109, 0, 0, 1064.417236328125
110, 0, 0, 1055.043212890625
111, 0, 0, 1049.339721679688
112, 0, 0, 1045.026733398438
113, 0, 0, 1037.639526367188
114, 0, 0, 1032.71923828125
115, 0, 0, 1025.038330078125
116, 0, 0, 1026.311279296875
117, 0, 0, 1018.456176757812
118, 0, 0, 1016.571533203125
119, 0, 0, 1006.650939941406
120, 0, 0, 1002.64501953125
121, 0, 0, 999.2753295898438
122, 0, 0, 991.84912109375
123, 0, 0, 987.1351928710938
124, 0, 0, 986.384765625
125, 0, 0, 976.5042724609375
126, 0, 0, 978.2965698242188
127, 0, 0, 962.8663330078125
128, 0, 0, 966.8001708984375
129, 0, 0, 960.193115234375
130, 0, 0, 955.1268310546875
131, 0, 0, 950.9827880859375
132, 0, 0, 948.5658569335938
133, 0, 0, 947.6744995117188
134, 0, 0, 936.6759033203125
135, 0, 0, 941.1451416015625
136, 0, 0, 934.59228515625
137, 0, 0, 929.1746215820312
138, 0, 0, 926.4039916992188
139, 0, 0, 921.1661987304688
140, 0, 0, 919.33837890625
141, 0, 0, 911.4049682617188
142, 0, 0, 911.9437866210938
143, 0, 0, 905.6834716796875
144, 0, 0, 901.782470703125
145, 0, 0, 901.1288452148438
146, 0, 0, 898.3641967773438
147, 0, 0, 892.6638793945312
148, 0, 0, 891.6981811523438
149, 0, 0, 885.4385986328125
150, 0, 0, 889.5360107421875
151, 0, 0, 881.0858154296875
152, 0, 0, 880.1864624023438
153, 0, 0, 874.2482299804688
154, 0, 0, 877.2940673828125
155, 0, 0, 872.44140625
156, 0, 0, 861.9630737304688
157, 0, 0, 867.43798828125
158, 0, 0, 865.61572265625
159, 0, 0, 866.6178588867188
160, 0, 0, 856.6254272460938
161, 0, 0, 852.5682373046875
162, 0, 0, 850.7874755859375
163, 0, 0, 845.4096069335938
164, 0, 0, 854.913330078125
165, 0, 0, 839.118408203125
166, 0, 0, 840.314208984375
167, 0, 0, 839.8352661132812
168, 0, 0, 837.618408203125
169, 0, 0, 833.0989990234375
170, 0, 0, 834.5756225585938
171, 0, 0, 827.58056640625
172, 0, 0, 827.3132934570312
173, 0, 0, 822.9699096679688
174, 0, 0, 826.6727294921875
175, 0, 0, 809.0616455078125
176, 0, 0, 818.6090698242188
177, 0, 0, 808.8390502929688
178, 0, 0, 808.7462158203125
179, 0, 0, 811.08740234375
