# TOPAS Version: 3.3.p1
# Parameter File: Test.txt
# Results for scorer MLIC_Scorer
# Scored in component: MLIC
# X in 180 bins of 0.177778 cm
# Y in 1 bin  of 10 cm
# Z in 1 bin  of 10 cm
# EnergyDeposit ( MeV ) : Sum   
0, 0, 0, 0
1, 0, 0, 0
2, 0, 0, 0
3, 0, 0, 0
4, 0, 0, 0
5, 0, 0, 0
6, 0, 0, 0
7, 0, 0, 0
8, 0, 0, 0
9, 0, 0, 0
10, 0, 0, 0
11, 0, 0, 0
12, 0, 0, 0
13, 0, 0, 0
14, 0, 0, 0
15, 0, 0, 0
16, 0, 0, 0
17, 0, 0, 0
18, 0, 0, 0
19, 0, 0, 0
20, 0, 0, 0
21, 0, 0, 0
22, 0, 0, 0
23, 0, 0, 0
24, 0, 0, 0
25, 0, 0, 0
26, 0, 0, 0
27, 0, 0, 0
28, 0, 0, 0
29, 0, 0, 0
30, 0, 0, 0
31, 0, 0, 0
32, 0, 0, 0
33, 0, 0, 0
34, 0, 0, 0
35, 0, 0, 0
36, 0, 0, 0
37, 0, 0, 0
38, 0, 0, 0
39, 0, 0, 0
40, 0, 0, 0
41, 0, 0, 0
42, 0, 0, 0
43, 0, 0, 0
44, 0, 0, 0
45, 0, 0, 0
46, 0, 0, 0
47, 0, 0, 0
48, 0, 0, 0
49, 0, 0, 0
50, 0, 0, 0
51, 0, 0, 0
52, 0, 0, 0
53, 0, 0, 0
54, 0, 0, 0
55, 0, 0, 0
56, 0, 0, 0
57, 0, 0, 0
58, 0, 0, 0
59, 0, 0, 0
60, 0, 0, 0
61, 0, 0, 0
62, 0, 0, 0
63, 0, 0, 0
64, 0, 0, 0
65, 0, 0, 0
66, 0, 0, 0
67, 0, 0, 0
68, 0, 0, 0
69, 0, 0, 0
70, 0, 0, 0
71, 0, 0, 0
72, 0, 0, 0
73, 0, 0, 0
74, 0, 0, 0
75, 0, 0, 0
76, 0, 0, 0
77, 0, 0, 0
78, 0, 0, 0
79, 0, 0, 0
80, 0, 0, 0
81, 0, 0, 0
82, 0, 0, 0
83, 0, 0, 0
84, 0, 0, 0
85, 0, 0, 0
86, 0, 0, 0
87, 0, 0, 0.002106894971802831
88, 0, 0, 0
89, 0, 0, 0
90, 0, 0, 0
91, 0, 0, 0
92, 0, 0, 0
93, 0, 0, 0
94, 0, 0, 34.70821380615234
95, 0, 0, 89.40758514404297
96, 0, 0, 370.7596740722656
97, 0, 0, 1094.61962890625
98, 0, 0, 2189.774169921875
99, 0, 0, 3417.187744140625
100, 0, 0, 4765.46630859375
101, 0, 0, 5283.48828125
102, 0, 0, 4769.2548828125
103, 0, 0, 4215.060546875
104, 0, 0, 3676.69873046875
105, 0, 0, 3303.9853515625
106, 0, 0, 3022.601806640625
107, 0, 0, 2813.871826171875
108, 0, 0, 2651.589111328125
109, 0, 0, 2517.2021484375
110, 0, 0, 2400.722412109375
111, 0, 0, 2308.410400390625
112, 0, 0, 2218.76025390625
113, 0, 0, 2140.8671875
114, 0, 0, 2068.0341796875
115, 0, 0, 2013.509521484375
116, 0, 0, 1963.654907226562
117, 0, 0, 1902.361328125
118, 0, 0, 1859.6826171875
119, 0, 0, 1817.660888671875
120, 0, 0, 1779.666259765625
121, 0, 0, 1744.582275390625
122, 0, 0, 1705.0517578125
123, 0, 0, 1677.707397460938
124, 0, 0, 1646.854736328125
125, 0, 0, 1624.899047851562
126, 0, 0, 1585.768920898438
127, 0, 0, 1563.5048828125
128, 0, 0, 1540.077392578125
129, 0, 0, 1523.158325195312
130, 0, 0, 1501.629516601562
131, 0, 0, 1475.409545898438
132, 0, 0, 1463.62451171875
133, 0, 0, 1443.976440429688
134, 0, 0, 1428.396362304688
135, 0, 0, 1398.113159179688
136, 0, 0, 1394.2138671875
137, 0, 0, 1382.071533203125
138, 0, 0, 1353.255126953125
139, 0, 0, 1347.81591796875
140, 0, 0, 1329.8564453125
141, 0, 0, 1320.694213867188
142, 0, 0, 1307.079467773438
143, 0, 0, 1291.445068359375
144, 0, 0, 1275.205810546875
145, 0, 0, 1269.041015625
146, 0, 0, 1251.874389648438
147, 0, 0, 1249.560424804688
148, 0, 0, 1231.396850585938
149, 0, 0, 1223.172241210938
150, 0, 0, 1204.665161132812
151, 0, 0, 1205.428833007812
152, 0, 0, 1191.743896484375
153, 0, 0, 1178.940551757812
154, 0, 0, 1175.984985351562
155, 0, 0, 1156.014282226562
156, 0, 0, 1153.901000976562
157, 0, 0, 1143.682006835938
158, 0, 0, 1145.875610351562
159, 0, 0, 1123.912109375
160, 0, 0, 1125.450073242188
161, 0, 0, 1116.559448242188
162, 0, 0, 1103.6337890625
163, 0, 0, 1098.714721679688
164, 0, 0, 1087.68212890625
165, 0, 0, 1084.50830078125
166, 0, 0, 1080.723754882812
167, 0, 0, 1078.37353515625
168, 0, 0, 1066.3603515625
169, 0, 0, 1065.157470703125
170, 0, 0, 1056.3994140625
171, 0, 0, 1052.456909179688
172, 0, 0, 1038.853881835938
173, 0, 0, 1038.905029296875
174, 0, 0, 1031.425048828125
175, 0, 0, 1026.958862304688
176, 0, 0, 1024.150146484375
177, 0, 0, 1019.45458984375
178, 0, 0, 1013.383666992188
179, 0, 0, 1004.884033203125
