# TOPAS Version: 3.3.p1
# Parameter File: Test.txt
# Results for scorer MLIC_Scorer
# Scored in component: MLIC
# X in 180 bins of 0.177778 cm
# Y in 1 bin  of 10 cm
# Z in 1 bin  of 10 cm
# EnergyDeposit ( MeV ) : Sum   
0, 0, 0, 0
1, 0, 0, 0
2, 0, 0, 0
3, 0, 0, 0
4, 0, 0, 0
5, 0, 0, 0
6, 0, 0, 0
7, 0, 0, 0
8, 0, 0, 0
9, 0, 0, 0
10, 0, 0, 0
11, 0, 0, 0
12, 0, 0, 0
13, 0, 0, 0
14, 0, 0, 0
15, 0, 0, 0
16, 0, 0, 0
17, 0, 0, 0
18, 0, 0, 0
19, 0, 0, 0
20, 0, 0, 0
21, 0, 0, 0
22, 0, 0, 0
23, 0, 0, 0
24, 0, 0, 0
25, 0, 0, 0
26, 0, 0, 0
27, 0, 0, 0
28, 0, 0, 0
29, 0, 0, 0
30, 0, 0, 0
31, 0, 0, 0
32, 0, 0, 0
33, 0, 0, 0
34, 0, 0, 0
35, 0, 0, 0
36, 0, 0, 0
37, 0, 0, 0
38, 0, 0, 0
39, 0, 0, 0
40, 0, 0, 0
41, 0, 0, 0
42, 0, 0, 0
43, 0, 0, 0
44, 0, 0, 0
45, 0, 0, 0
46, 0, 0, 0
47, 0, 0, 0
48, 0, 0, 0
49, 0, 0, 0
50, 0, 0, 0
51, 0, 0, 0
52, 0, 0, 0
53, 0, 0, 0
54, 0, 0, 0
55, 0, 0, 0
56, 0, 0, 0
57, 0, 0, 0
58, 0, 0, 0
59, 0, 0, 0
60, 0, 0, 0
61, 0, 0, 0
62, 0, 0, 0
63, 0, 0, 0
64, 0, 0, 0
65, 0, 0, 0
66, 0, 0, 0
67, 0, 0, 0
68, 0, 0, 0
69, 0, 0, 0
70, 0, 0, 0
71, 0, 0, 0
72, 0, 0, 0
73, 0, 0, 0
74, 0, 0, 0
75, 0, 0, 0
76, 0, 0, 0
77, 0, 0, 0
78, 0, 0, 0
79, 0, 0, 0
80, 0, 0, 0
81, 0, 0, 0
82, 0, 0, 0
83, 0, 0, 0
84, 0, 0, 0
85, 0, 0, 0
86, 0, 0, 0
87, 0, 0, 0
88, 0, 0, 0
89, 0, 0, 0
90, 0, 0, 0
91, 0, 0, 0
92, 0, 0, 0
93, 0, 0, 0
94, 0, 0, 0
95, 0, 0, 0
96, 0, 0, 0
97, 0, 0, 0
98, 0, 0, 0
99, 0, 0, 0
100, 0, 0, 0
101, 0, 0, 0
102, 0, 0, 0
103, 0, 0, 0
104, 0, 0, 0
105, 0, 0, 0
106, 0, 0, 0
107, 0, 0, 0
108, 0, 0, 0
109, 0, 0, 0
110, 0, 0, 0
111, 0, 0, 0
112, 0, 0, 0
113, 0, 0, 0
114, 0, 0, 0
115, 0, 0, 0
116, 0, 0, 0
117, 0, 0, 0
118, 0, 0, 0
119, 0, 0, 0
120, 0, 0, 0
121, 0, 0, 0
122, 0, 0, 0
123, 0, 0, 0
124, 0, 0, 0
125, 0, 0, 0
126, 0, 0, 0
127, 0, 0, 0
128, 0, 0, 0
129, 0, 0, 0
130, 0, 0, 0
131, 0, 0, 0
132, 0, 0, 0.07761552929878235
133, 0, 0, 0
134, 0, 0, 10.27105712890625
135, 0, 0, 21.9948844909668
136, 0, 0, 90.49137115478516
137, 0, 0, 321.4307250976562
138, 0, 0, 469.6285705566406
139, 0, 0, 525.75634765625
140, 0, 0, 514.5960693359375
141, 0, 0, 439.0084228515625
142, 0, 0, 388.7290649414062
143, 0, 0, 351.3167724609375
144, 0, 0, 314.3343811035156
145, 0, 0, 293.0105285644531
146, 0, 0, 273.3901062011719
147, 0, 0, 258.6560668945312
148, 0, 0, 244.8827819824219
149, 0, 0, 235.3169708251953
150, 0, 0, 226.3509216308594
151, 0, 0, 217.4859161376953
152, 0, 0, 213.0826568603516
153, 0, 0, 206.1872253417969
154, 0, 0, 197.7354736328125
155, 0, 0, 192.4454498291016
156, 0, 0, 188.4499664306641
157, 0, 0, 184.9733276367188
158, 0, 0, 180.8300018310547
159, 0, 0, 177.578857421875
160, 0, 0, 173.8302764892578
161, 0, 0, 169.4861297607422
162, 0, 0, 166.7850646972656
163, 0, 0, 165.1302337646484
164, 0, 0, 161.0142974853516
165, 0, 0, 157.0532989501953
166, 0, 0, 154.1560516357422
167, 0, 0, 153.7378234863281
168, 0, 0, 152.4356994628906
169, 0, 0, 149.1863250732422
170, 0, 0, 145.5065002441406
171, 0, 0, 146.2218170166016
172, 0, 0, 143.3628845214844
173, 0, 0, 142.7954711914062
174, 0, 0, 141.2323608398438
175, 0, 0, 138.3984832763672
176, 0, 0, 135.0620269775391
177, 0, 0, 132.8399047851562
178, 0, 0, 132.7199554443359
179, 0, 0, 132.2319488525391
