# TOPAS Version: 3.3.p1
# Parameter File: Test.txt
# Results for scorer MLIC_Scorer
# Scored in component: MLIC
# X in 180 bins of 0.177778 cm
# Y in 1 bin  of 10 cm
# Z in 1 bin  of 10 cm
# EnergyDeposit ( MeV ) : Sum   
0, 0, 0, 0
1, 0, 0, 0
2, 0, 0, 0
3, 0, 0, 0
4, 0, 0, 0
5, 0, 0, 0
6, 0, 0, 0
7, 0, 0, 0
8, 0, 0, 0
9, 0, 0, 0
10, 0, 0, 0
11, 0, 0, 0
12, 0, 0, 0
13, 0, 0, 0
14, 0, 0, 0
15, 0, 0, 0
16, 0, 0, 0
17, 0, 0, 0
18, 0, 0, 0
19, 0, 0, 0
20, 0, 0, 0
21, 0, 0, 0
22, 0, 0, 0
23, 0, 0, 0
24, 0, 0, 0
25, 0, 0, 0
26, 0, 0, 0
27, 0, 0, 0
28, 0, 0, 0
29, 0, 0, 0
30, 0, 0, 0
31, 0, 0, 0
32, 0, 0, 0
33, 0, 0, 0
34, 0, 0, 0
35, 0, 0, 0
36, 0, 0, 0
37, 0, 0, 0
38, 0, 0, 0
39, 0, 0, 0
40, 0, 0, 0
41, 0, 0, 0
42, 0, 0, 0
43, 0, 0, 0
44, 0, 0, 0
45, 0, 0, 0
46, 0, 0, 0.004998891614377499
47, 0, 0, 0.002868538722395897
48, 0, 0, 0
49, 0, 0, 0
50, 0, 0, 0
51, 0, 0, 0
52, 0, 0, 0
53, 0, 0, 0
54, 0, 0, 0
55, 0, 0, 0
56, 0, 0, 0
57, 0, 0, 0
58, 0, 0, 0
59, 0, 0, 0
60, 0, 0, 0
61, 0, 0, 0
62, 0, 0, 0
63, 0, 0, 0
64, 0, 0, 0
65, 0, 0, 0
66, 0, 0, 0
67, 0, 0, 0
68, 0, 0, 0
69, 0, 0, 0
70, 0, 0, 0
71, 0, 0, 0
72, 0, 0, 0
73, 0, 0, 0
74, 0, 0, 0
75, 0, 0, 0
76, 0, 0, 0
77, 0, 0, 0
78, 0, 0, 0.03042628616094589
79, 0, 0, 154.7593688964844
80, 0, 0, 638.5276489257812
81, 0, 0, 1435.438354492188
82, 0, 0, 2472.18017578125
83, 0, 0, 3848.77978515625
84, 0, 0, 5079.291015625
85, 0, 0, 5095.50341796875
86, 0, 0, 4522.0146484375
87, 0, 0, 4026.624267578125
88, 0, 0, 3590.516357421875
89, 0, 0, 3229.347900390625
90, 0, 0, 2961.0751953125
91, 0, 0, 2762.951416015625
92, 0, 0, 2608.5029296875
93, 0, 0, 2484.635498046875
94, 0, 0, 2371.048583984375
95, 0, 0, 2272.38037109375
96, 0, 0, 2196.049072265625
97, 0, 0, 2124.371337890625
98, 0, 0, 2057.947265625
99, 0, 0, 1993.699584960938
100, 0, 0, 1945.567626953125
101, 0, 0, 1899.142456054688
102, 0, 0, 1852.997192382812
103, 0, 0, 1803.51904296875
104, 0, 0, 1772.167724609375
105, 0, 0, 1732.369018554688
106, 0, 0, 1702.428466796875
107, 0, 0, 1669.494018554688
108, 0, 0, 1640.412231445312
109, 0, 0, 1614.80517578125
110, 0, 0, 1580.830200195312
111, 0, 0, 1553.674682617188
112, 0, 0, 1533.247802734375
113, 0, 0, 1511.707641601562
114, 0, 0, 1492.960815429688
115, 0, 0, 1470.351684570312
116, 0, 0, 1447.138671875
117, 0, 0, 1435.376831054688
118, 0, 0, 1421.494018554688
119, 0, 0, 1398.218872070312
120, 0, 0, 1387.51708984375
121, 0, 0, 1370.610717773438
122, 0, 0, 1353.47900390625
123, 0, 0, 1346.35986328125
124, 0, 0, 1333.552368164062
125, 0, 0, 1310.651489257812
126, 0, 0, 1301.134521484375
127, 0, 0, 1281.530395507812
128, 0, 0, 1274.149780273438
129, 0, 0, 1261.694091796875
130, 0, 0, 1255.185913085938
131, 0, 0, 1233.264282226562
132, 0, 0, 1231.839477539062
133, 0, 0, 1224.023681640625
134, 0, 0, 1210.147094726562
135, 0, 0, 1197.4892578125
136, 0, 0, 1190.7685546875
137, 0, 0, 1177.254272460938
138, 0, 0, 1168.75244140625
139, 0, 0, 1164.308715820312
140, 0, 0, 1152.397583007812
141, 0, 0, 1143.827880859375
142, 0, 0, 1134.553588867188
143, 0, 0, 1132.441650390625
144, 0, 0, 1116.954467773438
145, 0, 0, 1112.734497070312
146, 0, 0, 1102.5185546875
147, 0, 0, 1099.880859375
148, 0, 0, 1094.188842773438
149, 0, 0, 1089.511840820312
150, 0, 0, 1088.586669921875
151, 0, 0, 1071.197265625
152, 0, 0, 1059.9697265625
153, 0, 0, 1061.238037109375
154, 0, 0, 1057.387084960938
155, 0, 0, 1044.285522460938
156, 0, 0, 1050.076782226562
157, 0, 0, 1033.817016601562
158, 0, 0, 1028.550903320312
159, 0, 0, 1021.664184570312
160, 0, 0, 1020.431213378906
161, 0, 0, 1027.438720703125
162, 0, 0, 1009.134460449219
163, 0, 0, 1006.826782226562
164, 0, 0, 999.6790161132812
165, 0, 0, 993.5960693359375
166, 0, 0, 986.4549560546875
167, 0, 0, 982.9899291992188
168, 0, 0, 975.9893188476562
169, 0, 0, 983.3964233398438
170, 0, 0, 971.5845336914062
171, 0, 0, 966.7081909179688
172, 0, 0, 967.421142578125
173, 0, 0, 955.353759765625
174, 0, 0, 955.5117797851562
175, 0, 0, 953.2413330078125
176, 0, 0, 949.4465942382812
177, 0, 0, 943.6375732421875
178, 0, 0, 943.6219482421875
179, 0, 0, 938.6656494140625
