# TOPAS Version: 3.3.p1
# Parameter File: Test.txt
# Results for scorer MLIC_Scorer
# Scored in component: MLIC
# X in 180 bins of 0.183333 cm
# Y in 1 bin  of 10 cm
# Z in 1 bin  of 10 cm
# EnergyDeposit ( MeV ) : Sum   
0, 0, 0, 0
1, 0, 0, 0
2, 0, 0, 0
3, 0, 0, 0
4, 0, 0, 0
5, 0, 0, 0
6, 0, 0, 0
7, 0, 0, 0
8, 0, 0, 0
9, 0, 0, 0
10, 0, 0, 0
11, 0, 0, 0
12, 0, 0, 0.04205440357327461
13, 0, 0, 0
14, 0, 0, 0.04255214333534241
15, 0, 0, 0
16, 0, 0, 0
17, 0, 0, 0
18, 0, 0, 0
19, 0, 0, 0
20, 0, 0, 0
21, 0, 0, 0
22, 0, 0, 0
23, 0, 0, 0
24, 0, 0, 0
25, 0, 0, 0
26, 0, 0, 51.48855209350586
27, 0, 0, 226.2402038574219
28, 0, 0, 894.2389526367188
29, 0, 0, 1942.804809570312
30, 0, 0, 3267.259521484375
31, 0, 0, 4407.7275390625
32, 0, 0, 5156.1728515625
33, 0, 0, 5056.80419921875
34, 0, 0, 4394.75146484375
35, 0, 0, 3921.11962890625
36, 0, 0, 3492.576171875
37, 0, 0, 3154.984130859375
38, 0, 0, 2927.945556640625
39, 0, 0, 2745.61376953125
40, 0, 0, 2598.917724609375
41, 0, 0, 2466.244384765625
42, 0, 0, 2367.28466796875
43, 0, 0, 2284.173583984375
44, 0, 0, 2206.6591796875
45, 0, 0, 2123.15966796875
46, 0, 0, 2066.71435546875
47, 0, 0, 2006.690551757812
48, 0, 0, 1957.807250976562
49, 0, 0, 1907.423461914062
50, 0, 0, 1867.741455078125
51, 0, 0, 1814.883056640625
52, 0, 0, 1786.995971679688
53, 0, 0, 1740.232788085938
54, 0, 0, 1723.936401367188
55, 0, 0, 1685.303100585938
56, 0, 0, 1651.815307617188
57, 0, 0, 1627.489624023438
58, 0, 0, 1604.76220703125
59, 0, 0, 1582.545166015625
60, 0, 0, 1557.768432617188
61, 0, 0, 1528.164306640625
62, 0, 0, 1509.958129882812
63, 0, 0, 1487.381713867188
64, 0, 0, 1471.053955078125
65, 0, 0, 1453.7353515625
66, 0, 0, 1433.549072265625
67, 0, 0, 1413.174072265625
68, 0, 0, 1411.350708007812
69, 0, 0, 1389.971923828125
70, 0, 0, 1378.861938476562
71, 0, 0, 1359.1416015625
72, 0, 0, 1342.430297851562
73, 0, 0, 1328.477294921875
74, 0, 0, 1317.115112304688
75, 0, 0, 1305.60302734375
76, 0, 0, 1297.080444335938
77, 0, 0, 1286.075805664062
78, 0, 0, 1270.648681640625
79, 0, 0, 1260.854736328125
80, 0, 0, 1248.493530273438
81, 0, 0, 1234.928344726562
82, 0, 0, 1228.350708007812
83, 0, 0, 1214.271850585938
84, 0, 0, 1208.330200195312
85, 0, 0, 1197.748168945312
86, 0, 0, 1191.134765625
87, 0, 0, 1180.902587890625
88, 0, 0, 1173.052001953125
89, 0, 0, 1164.297607421875
90, 0, 0, 1157.878784179688
91, 0, 0, 1144.532592773438
92, 0, 0, 1139.655517578125
93, 0, 0, 1135.86083984375
94, 0, 0, 1116.622802734375
95, 0, 0, 1118.440063476562
96, 0, 0, 1109.031005859375
97, 0, 0, 1108.424560546875
98, 0, 0, 1105.631591796875
99, 0, 0, 1089.934936523438
100, 0, 0, 1082.377197265625
101, 0, 0, 1080.173461914062
102, 0, 0, 1073.942260742188
103, 0, 0, 1064.813720703125
104, 0, 0, 1053.821044921875
105, 0, 0, 1052.040161132812
106, 0, 0, 1041.645385742188
107, 0, 0, 1044.912109375
108, 0, 0, 1041.9443359375
109, 0, 0, 1030.232788085938
110, 0, 0, 1032.012817382812
111, 0, 0, 1026.1884765625
112, 0, 0, 1012.317321777344
113, 0, 0, 1016.753784179688
114, 0, 0, 1002.65478515625
115, 0, 0, 1009.268188476562
116, 0, 0, 999.9892578125
117, 0, 0, 999.3430786132812
118, 0, 0, 990.4893188476562
119, 0, 0, 990.04443359375
120, 0, 0, 983.9825439453125
121, 0, 0, 979.2115478515625
122, 0, 0, 974.494140625
123, 0, 0, 971.305908203125
124, 0, 0, 968.104736328125
125, 0, 0, 965.8729858398438
126, 0, 0, 957.6775512695312
127, 0, 0, 945.741943359375
128, 0, 0, 945.8379516601562
129, 0, 0, 939.0411987304688
130, 0, 0, 938.1527099609375
131, 0, 0, 941.682373046875
132, 0, 0, 926.7937622070312
133, 0, 0, 932.645263671875
134, 0, 0, 913.9970092773438
135, 0, 0, 919.8574829101562
136, 0, 0, 912.7468872070312
137, 0, 0, 913.7476196289062
138, 0, 0, 916.3794555664062
139, 0, 0, 902.2454223632812
140, 0, 0, 901.5269775390625
141, 0, 0, 901.9603271484375
142, 0, 0, 899.2229614257812
143, 0, 0, 897.48974609375
144, 0, 0, 895.7578735351562
145, 0, 0, 891.6659545898438
146, 0, 0, 887.2836303710938
147, 0, 0, 887.2499389648438
148, 0, 0, 879.0198974609375
149, 0, 0, 875.7911987304688
150, 0, 0, 873.7156982421875
151, 0, 0, 872.8478393554688
152, 0, 0, 874.6028442382812
153, 0, 0, 873.8812866210938
154, 0, 0, 864.2625122070312
155, 0, 0, 864.8771362304688
156, 0, 0, 855.36767578125
157, 0, 0, 856.9358520507812
158, 0, 0, 849.4443359375
159, 0, 0, 855.9950561523438
160, 0, 0, 844.8700561523438
161, 0, 0, 847.743896484375
162, 0, 0, 856.21142578125
163, 0, 0, 829.5092163085938
164, 0, 0, 833.933837890625
165, 0, 0, 838.8111572265625
166, 0, 0, 835.7778930664062
167, 0, 0, 830.4439697265625
168, 0, 0, 830.3369140625
169, 0, 0, 836.0740356445312
170, 0, 0, 824.6990966796875
171, 0, 0, 828.018310546875
172, 0, 0, 821.7022094726562
173, 0, 0, 825.193603515625
174, 0, 0, 816.9786987304688
175, 0, 0, 817.1156616210938
176, 0, 0, 808.2310180664062
177, 0, 0, 816.1262817382812
178, 0, 0, 810.4534912109375
179, 0, 0, 808.0027465820312
