# TOPAS Version: 3.3.p1
# Parameter File: Test.txt
# Results for scorer MLIC_Scorer
# Scored in component: MLIC
# X in 165 bins of 0.2 cm
# Y in 1 bin  of 10 cm
# Z in 1 bin  of 10 cm
# EnergyDeposit ( MeV ) : Sum   
0, 0, 0, 0
1, 0, 0, 0
2, 0, 0, 0
3, 0, 0, 0
4, 0, 0, 0
5, 0, 0, 0.03800381720066071
6, 0, 0, 0
7, 0, 0, 0
8, 0, 0, 0
9, 0, 0, 0
10, 0, 0, 0
11, 0, 0, 0.005180088803172112
12, 0, 0, 0
13, 0, 0, 0
14, 0, 0, 0
15, 0, 0, 0
16, 0, 0, 0
17, 0, 0, 0.03852719813585281
18, 0, 0, 5.875887393951416
19, 0, 0, 21.15987968444824
20, 0, 0, 81.33895874023438
21, 0, 0, 482.0915832519531
22, 0, 0, 1473.706787109375
23, 0, 0, 3135.927490234375
24, 0, 0, 4481.92919921875
25, 0, 0, 5129.33935546875
26, 0, 0, 5423.26806640625
27, 0, 0, 4955.2138671875
28, 0, 0, 4307.61669921875
29, 0, 0, 3768.322509765625
30, 0, 0, 3393.478759765625
31, 0, 0, 3131.44677734375
32, 0, 0, 2938.100830078125
33, 0, 0, 2768.44189453125
34, 0, 0, 2636.56201171875
35, 0, 0, 2522.819580078125
36, 0, 0, 2423.346435546875
37, 0, 0, 2337.54052734375
38, 0, 0, 2262.0615234375
39, 0, 0, 2193.6181640625
40, 0, 0, 2132.850830078125
41, 0, 0, 2070.6845703125
42, 0, 0, 2016.094970703125
43, 0, 0, 1972.0634765625
44, 0, 0, 1933.551147460938
45, 0, 0, 1893.579711914062
46, 0, 0, 1857.465576171875
47, 0, 0, 1818.377075195312
48, 0, 0, 1780.99365234375
49, 0, 0, 1750.344604492188
50, 0, 0, 1724.428466796875
51, 0, 0, 1696.178833007812
52, 0, 0, 1665.5341796875
53, 0, 0, 1643.634399414062
54, 0, 0, 1623.720947265625
55, 0, 0, 1597.656494140625
56, 0, 0, 1574.9775390625
57, 0, 0, 1550.476684570312
58, 0, 0, 1536.053100585938
59, 0, 0, 1513.450805664062
60, 0, 0, 1498.054321289062
61, 0, 0, 1477.0087890625
62, 0, 0, 1460.4794921875
63, 0, 0, 1440.090576171875
64, 0, 0, 1425.882446289062
65, 0, 0, 1417.268798828125
66, 0, 0, 1398.264282226562
67, 0, 0, 1392.534301757812
68, 0, 0, 1379.986328125
69, 0, 0, 1365.0029296875
70, 0, 0, 1356.590209960938
71, 0, 0, 1346.174926757812
72, 0, 0, 1334.934692382812
73, 0, 0, 1321.375610351562
74, 0, 0, 1307.850219726562
75, 0, 0, 1297.521606445312
76, 0, 0, 1284.622314453125
77, 0, 0, 1271.64697265625
78, 0, 0, 1268.742553710938
79, 0, 0, 1261.754272460938
80, 0, 0, 1247.347900390625
81, 0, 0, 1229.44287109375
82, 0, 0, 1229.89501953125
83, 0, 0, 1208.683349609375
84, 0, 0, 1203.810546875
85, 0, 0, 1208.72216796875
86, 0, 0, 1195.922241210938
87, 0, 0, 1173.043823242188
88, 0, 0, 1172.772827148438
89, 0, 0, 1174.287719726562
90, 0, 0, 1168.346313476562
91, 0, 0, 1157.590087890625
92, 0, 0, 1148.380859375
93, 0, 0, 1149.845703125
94, 0, 0, 1139.86669921875
95, 0, 0, 1129.60595703125
96, 0, 0, 1119.792846679688
97, 0, 0, 1115.2607421875
98, 0, 0, 1108.545043945312
99, 0, 0, 1107.230834960938
100, 0, 0, 1106.63232421875
101, 0, 0, 1095.3994140625
102, 0, 0, 1087.561279296875
103, 0, 0, 1086.049194335938
104, 0, 0, 1074.555053710938
105, 0, 0, 1075.4130859375
106, 0, 0, 1066.049194335938
107, 0, 0, 1068.185668945312
108, 0, 0, 1055.116821289062
109, 0, 0, 1050.624267578125
110, 0, 0, 1044.69482421875
111, 0, 0, 1054.828857421875
112, 0, 0, 1041.96533203125
113, 0, 0, 1034.235961914062
114, 0, 0, 1030.104248046875
115, 0, 0, 1027.055908203125
116, 0, 0, 1019.278869628906
117, 0, 0, 1023.538513183594
118, 0, 0, 1005.578308105469
119, 0, 0, 1009.855712890625
120, 0, 0, 1005.289306640625
121, 0, 0, 1006.914916992188
122, 0, 0, 996.7181396484375
123, 0, 0, 991.4345092773438
124, 0, 0, 984.2843017578125
125, 0, 0, 984.3699951171875
126, 0, 0, 984.5361938476562
127, 0, 0, 978.0825805664062
128, 0, 0, 970.61669921875
129, 0, 0, 972.03466796875
130, 0, 0, 970.4760131835938
131, 0, 0, 960.1574096679688
132, 0, 0, 958.4545288085938
133, 0, 0, 959.8468627929688
134, 0, 0, 958.1395874023438
135, 0, 0, 952.2042236328125
136, 0, 0, 940.0533447265625
137, 0, 0, 947.9284057617188
138, 0, 0, 940.6773071289062
139, 0, 0, 934.635009765625
140, 0, 0, 939.1629638671875
141, 0, 0, 921.6538696289062
142, 0, 0, 930.8861083984375
143, 0, 0, 922.8700561523438
144, 0, 0, 930.3814697265625
145, 0, 0, 930.3836669921875
146, 0, 0, 923.83642578125
147, 0, 0, 914.5436401367188
148, 0, 0, 918.06396484375
149, 0, 0, 904.13525390625
150, 0, 0, 902.1495361328125
151, 0, 0, 899.8241577148438
152, 0, 0, 904.0731201171875
153, 0, 0, 897.6531982421875
154, 0, 0, 893.1728515625
155, 0, 0, 892.7928466796875
156, 0, 0, 887.8510131835938
157, 0, 0, 884.6942138671875
158, 0, 0, 882.4686279296875
159, 0, 0, 879.1061401367188
160, 0, 0, 876.5565185546875
161, 0, 0, 880.805419921875
162, 0, 0, 872.4801025390625
163, 0, 0, 868.627197265625
164, 0, 0, 875.5748291015625
