# TOPAS Version: 3.3.p1
# Parameter File: Test.txt
# Results for scorer MLIC_Scorer
# Scored in component: MLIC
# X in 180 bins of 0.222222 cm
# Y in 1 bin  of 10 cm
# Z in 1 bin  of 10 cm
# EnergyDeposit ( MeV ) : Sum   
0, 0, 0, 0
1, 0, 0, 0
2, 0, 0, 0
3, 0, 0, 0
4, 0, 0, 0
5, 0, 0, 0
6, 0, 0, 0
7, 0, 0, 0
8, 0, 0, 0
9, 0, 0, 0
10, 0, 0, 0
11, 0, 0, 0
12, 0, 0, 0
13, 0, 0, 0
14, 0, 0, 0
15, 0, 0, 0
16, 0, 0, 0
17, 0, 0, 0
18, 0, 0, 0
19, 0, 0, 0
20, 0, 0, 0
21, 0, 0, 0
22, 0, 0, 0
23, 0, 0, 0
24, 0, 0, 0
25, 0, 0, 0
26, 0, 0, 0
27, 0, 0, 0
28, 0, 0, 0
29, 0, 0, 0
30, 0, 0, 0
31, 0, 0, 0
32, 0, 0, 0
33, 0, 0, 0
34, 0, 0, 0
35, 0, 0, 0
36, 0, 0, 0
37, 0, 0, 0
38, 0, 0, 0
39, 0, 0, 0
40, 0, 0, 0
41, 0, 0, 0
42, 0, 0, 0
43, 0, 0, 0
44, 0, 0, 0
45, 0, 0, 0
46, 0, 0, 0
47, 0, 0, 0
48, 0, 0, 0
49, 0, 0, 0
50, 0, 0, 0
51, 0, 0, 0
52, 0, 0, 0
53, 0, 0, 0
54, 0, 0, 0
55, 0, 0, 0
56, 0, 0, 0
57, 0, 0, 0
58, 0, 0, 0
59, 0, 0, 0
60, 0, 0, 0
61, 0, 0, 0
62, 0, 0, 3.198563575744629
63, 0, 0, 15.79274749755859
64, 0, 0, 133.2405090332031
65, 0, 0, 746.3615112304688
66, 0, 0, 2240.36376953125
67, 0, 0, 4349.55810546875
68, 0, 0, 6023.38720703125
69, 0, 0, 6206.3916015625
70, 0, 0, 5485.48876953125
71, 0, 0, 4683.8642578125
72, 0, 0, 4086.99755859375
73, 0, 0, 3690.673583984375
74, 0, 0, 3395.2783203125
75, 0, 0, 3165.112548828125
76, 0, 0, 2987.2314453125
77, 0, 0, 2839.69287109375
78, 0, 0, 2711.619384765625
79, 0, 0, 2608.885986328125
80, 0, 0, 2501.69189453125
81, 0, 0, 2415.887451171875
82, 0, 0, 2349.37646484375
83, 0, 0, 2280.617431640625
84, 0, 0, 2215.30908203125
85, 0, 0, 2161.56640625
86, 0, 0, 2104.927490234375
87, 0, 0, 2061.704833984375
88, 0, 0, 2017.784057617188
89, 0, 0, 1980.553955078125
90, 0, 0, 1944.48681640625
91, 0, 0, 1906.927490234375
92, 0, 0, 1875.464233398438
93, 0, 0, 1839.529174804688
94, 0, 0, 1810.096435546875
95, 0, 0, 1782.11962890625
96, 0, 0, 1764.630859375
97, 0, 0, 1727.194702148438
98, 0, 0, 1701.34375
99, 0, 0, 1683.58251953125
100, 0, 0, 1655.985717773438
101, 0, 0, 1637.879272460938
102, 0, 0, 1610.751831054688
103, 0, 0, 1596.424438476562
104, 0, 0, 1575.96240234375
105, 0, 0, 1568.3466796875
106, 0, 0, 1550.626220703125
107, 0, 0, 1523.3212890625
108, 0, 0, 1516.999145507812
109, 0, 0, 1496.578491210938
110, 0, 0, 1479.902587890625
111, 0, 0, 1471.337646484375
112, 0, 0, 1456.522827148438
113, 0, 0, 1444.268920898438
114, 0, 0, 1428.913696289062
115, 0, 0, 1419.507934570312
116, 0, 0, 1407.758056640625
117, 0, 0, 1397.084106445312
118, 0, 0, 1379.3291015625
119, 0, 0, 1368.662353515625
120, 0, 0, 1360.045654296875
121, 0, 0, 1345.856079101562
122, 0, 0, 1337.95947265625
123, 0, 0, 1331.857788085938
124, 0, 0, 1320.84765625
125, 0, 0, 1304.942626953125
126, 0, 0, 1295.62890625
127, 0, 0, 1289.402099609375
128, 0, 0, 1286.493286132812
129, 0, 0, 1270.356323242188
130, 0, 0, 1262.239868164062
131, 0, 0, 1264.466674804688
132, 0, 0, 1255.946899414062
133, 0, 0, 1243.140380859375
134, 0, 0, 1233.435302734375
135, 0, 0, 1224.323120117188
136, 0, 0, 1221.996459960938
137, 0, 0, 1212.309692382812
138, 0, 0, 1200.297973632812
139, 0, 0, 1204.17822265625
140, 0, 0, 1187.89453125
141, 0, 0, 1192.3916015625
142, 0, 0, 1191.744506835938
143, 0, 0, 1178.630981445312
144, 0, 0, 1171.293579101562
145, 0, 0, 1161.381225585938
146, 0, 0, 1152.670532226562
147, 0, 0, 1161.753662109375
148, 0, 0, 1143.491455078125
149, 0, 0, 1142.077880859375
150, 0, 0, 1135.9990234375
151, 0, 0, 1128.905029296875
152, 0, 0, 1126.376708984375
153, 0, 0, 1120.072143554688
154, 0, 0, 1118.957641601562
155, 0, 0, 1112.880126953125
156, 0, 0, 1105.463989257812
157, 0, 0, 1094.918090820312
158, 0, 0, 1099.599731445312
159, 0, 0, 1087.301635742188
160, 0, 0, 1079.2568359375
161, 0, 0, 1084.660522460938
162, 0, 0, 1083.361938476562
163, 0, 0, 1073.799926757812
164, 0, 0, 1075.436401367188
165, 0, 0, 1068.00048828125
166, 0, 0, 1059.638916015625
167, 0, 0, 1056.862915039062
168, 0, 0, 1049.332763671875
169, 0, 0, 1048.174194335938
170, 0, 0, 1050.087036132812
171, 0, 0, 1042.36279296875
172, 0, 0, 1035.9970703125
173, 0, 0, 1034.971069335938
174, 0, 0, 1031.563354492188
175, 0, 0, 1031.106811523438
176, 0, 0, 1027.550170898438
177, 0, 0, 1021.169616699219
178, 0, 0, 1018.763671875
179, 0, 0, 1016.497314453125
