# TOPAS Version: 3.3.p1
# Parameter File: Test.txt
# Results for scorer MLIC_Scorer
# Scored in component: MLIC
# X in 165 bins of 0.2 cm
# Y in 1 bin  of 10 cm
# Z in 1 bin  of 10 cm
# EnergyDeposit ( MeV ) : Sum   
0, 0, 0, 0
1, 0, 0, 20.54212760925293
2, 0, 0, 99.76104736328125
3, 0, 0, 449.7672119140625
4, 0, 0, 1342.88330078125
5, 0, 0, 2889.941162109375
6, 0, 0, 4374.58837890625
7, 0, 0, 5487.978515625
8, 0, 0, 5505.107421875
9, 0, 0, 4875.3564453125
10, 0, 0, 4300.3564453125
11, 0, 0, 3773.3720703125
12, 0, 0, 3398.862060546875
13, 0, 0, 3128.341064453125
14, 0, 0, 2934.504150390625
15, 0, 0, 2782.056640625
16, 0, 0, 2634.14013671875
17, 0, 0, 2521.712890625
18, 0, 0, 2432.701416015625
19, 0, 0, 2337.525390625
20, 0, 0, 2259.69189453125
21, 0, 0, 2203.930419921875
22, 0, 0, 2124.4599609375
23, 0, 0, 2076.689697265625
24, 0, 0, 2023.362182617188
25, 0, 0, 1977.609252929688
26, 0, 0, 1935.328857421875
27, 0, 0, 1897.370971679688
28, 0, 0, 1852.255249023438
29, 0, 0, 1816.287231445312
30, 0, 0, 1778.765502929688
31, 0, 0, 1748.306030273438
32, 0, 0, 1725.701904296875
33, 0, 0, 1700.469360351562
34, 0, 0, 1666.573364257812
35, 0, 0, 1636.95947265625
36, 0, 0, 1620.146606445312
37, 0, 0, 1595.925415039062
38, 0, 0, 1570.171020507812
39, 0, 0, 1548.038696289062
40, 0, 0, 1530.994384765625
41, 0, 0, 1516.910766601562
42, 0, 0, 1500.624633789062
43, 0, 0, 1489.347778320312
44, 0, 0, 1466.03857421875
45, 0, 0, 1455.509643554688
46, 0, 0, 1436.522827148438
47, 0, 0, 1418.277709960938
48, 0, 0, 1401.492309570312
49, 0, 0, 1390.04248046875
50, 0, 0, 1373.523193359375
51, 0, 0, 1365.429809570312
52, 0, 0, 1355.955444335938
53, 0, 0, 1342.488647460938
54, 0, 0, 1326.631591796875
55, 0, 0, 1321.00439453125
56, 0, 0, 1306.490600585938
57, 0, 0, 1298.412719726562
58, 0, 0, 1286.288696289062
59, 0, 0, 1269.8701171875
60, 0, 0, 1259.172607421875
61, 0, 0, 1254.334106445312
62, 0, 0, 1247.873657226562
63, 0, 0, 1233.480224609375
64, 0, 0, 1228.8603515625
65, 0, 0, 1209.180541992188
66, 0, 0, 1218.471313476562
67, 0, 0, 1209.305541992188
68, 0, 0, 1199.722045898438
69, 0, 0, 1177.979858398438
70, 0, 0, 1180.256591796875
71, 0, 0, 1168.832153320312
72, 0, 0, 1168.45263671875
73, 0, 0, 1162.053833007812
74, 0, 0, 1153.76513671875
75, 0, 0, 1147.517211914062
76, 0, 0, 1130.6455078125
77, 0, 0, 1141.855224609375
78, 0, 0, 1125.8759765625
79, 0, 0, 1118.665405273438
80, 0, 0, 1110.40966796875
81, 0, 0, 1106.004638671875
82, 0, 0, 1102.7216796875
83, 0, 0, 1100.729125976562
84, 0, 0, 1095.476440429688
85, 0, 0, 1084.503662109375
86, 0, 0, 1079.543212890625
87, 0, 0, 1064.719848632812
88, 0, 0, 1074.443725585938
89, 0, 0, 1063.837280273438
90, 0, 0, 1065.215454101562
91, 0, 0, 1064.754516601562
92, 0, 0, 1053.048950195312
93, 0, 0, 1046.96630859375
94, 0, 0, 1048.215454101562
95, 0, 0, 1033.693969726562
96, 0, 0, 1034.119873046875
97, 0, 0, 1023.459045410156
98, 0, 0, 1019.623657226562
99, 0, 0, 1019.300903320312
100, 0, 0, 1014.868469238281
101, 0, 0, 1007.675415039062
102, 0, 0, 1006.778991699219
103, 0, 0, 1006.872192382812
104, 0, 0, 997.1728515625
105, 0, 0, 995.858154296875
106, 0, 0, 985.922607421875
107, 0, 0, 992.6098022460938
108, 0, 0, 983.6232299804688
109, 0, 0, 974.4219970703125
110, 0, 0, 981.873046875
111, 0, 0, 964.8780517578125
112, 0, 0, 966.1380004882812
113, 0, 0, 958.3362426757812
114, 0, 0, 962.369384765625
115, 0, 0, 956.4266357421875
116, 0, 0, 947.9783325195312
117, 0, 0, 950.8129272460938
118, 0, 0, 942.3187255859375
119, 0, 0, 943.0249633789062
120, 0, 0, 940.0790405273438
121, 0, 0, 939.3359375
122, 0, 0, 933.0415649414062
123, 0, 0, 930.1964721679688
124, 0, 0, 924.6221313476562
125, 0, 0, 929.2838745117188
126, 0, 0, 921.1596069335938
127, 0, 0, 927.8832397460938
128, 0, 0, 907.4738159179688
129, 0, 0, 917.5519409179688
130, 0, 0, 907.7393188476562
131, 0, 0, 902.461181640625
132, 0, 0, 911.427001953125
133, 0, 0, 908.7212524414062
134, 0, 0, 917.1586303710938
135, 0, 0, 897.9888305664062
136, 0, 0, 889.8472900390625
137, 0, 0, 886.07421875
138, 0, 0, 888.7084350585938
139, 0, 0, 890.7012939453125
140, 0, 0, 883.6793212890625
141, 0, 0, 879.481201171875
142, 0, 0, 879.4738159179688
143, 0, 0, 881.6754760742188
144, 0, 0, 881.0953979492188
145, 0, 0, 871.3978271484375
146, 0, 0, 866.1676025390625
147, 0, 0, 866.7310180664062
148, 0, 0, 868.7064208984375
149, 0, 0, 864.5350341796875
150, 0, 0, 862.2576293945312
151, 0, 0, 857.3989868164062
152, 0, 0, 855.5307006835938
153, 0, 0, 851.2254028320312
154, 0, 0, 852.32470703125
155, 0, 0, 843.3023071289062
156, 0, 0, 849.9656982421875
157, 0, 0, 845.5408935546875
158, 0, 0, 849.6007690429688
159, 0, 0, 842.970703125
160, 0, 0, 838.4717407226562
161, 0, 0, 842.6664428710938
162, 0, 0, 829.8652954101562
163, 0, 0, 835.8023071289062
164, 0, 0, 841.5737915039062
