# TOPAS Version: 3.3.p1
# Parameter File: Test.txt
# Results for scorer MLIC_Scorer
# Scored in component: MLIC
# X in 165 bins of 0.2 cm
# Y in 1 bin  of 10 cm
# Z in 1 bin  of 10 cm
# EnergyDeposit ( MeV ) : Sum   
0, 0, 0, 851.7880249023438
1, 0, 0, 847.171142578125
2, 0, 0, 865.4689331054688
3, 0, 0, 865.699951171875
4, 0, 0, 862.3441772460938
5, 0, 0, 865.4713745117188
6, 0, 0, 870.8556518554688
7, 0, 0, 876.0606689453125
8, 0, 0, 873.6893310546875
9, 0, 0, 876.2448120117188
10, 0, 0, 874.1053466796875
11, 0, 0, 885.6388549804688
12, 0, 0, 887.9830322265625
13, 0, 0, 888.8741455078125
14, 0, 0, 891.7003173828125
15, 0, 0, 896.2066650390625
16, 0, 0, 896.2152709960938
17, 0, 0, 895.0476684570312
18, 0, 0, 900.8284301757812
19, 0, 0, 897.4384765625
20, 0, 0, 902.008544921875
21, 0, 0, 901.501953125
22, 0, 0, 914.6591186523438
23, 0, 0, 913.429443359375
24, 0, 0, 912.6227416992188
25, 0, 0, 915.4708251953125
26, 0, 0, 919.3954467773438
27, 0, 0, 930.5112915039062
28, 0, 0, 924.772705078125
29, 0, 0, 933.4011840820312
30, 0, 0, 933.326171875
31, 0, 0, 940.97119140625
32, 0, 0, 943.2732543945312
33, 0, 0, 944.2798461914062
34, 0, 0, 951.8130493164062
35, 0, 0, 946.8342895507812
36, 0, 0, 947.9279174804688
37, 0, 0, 957.1369018554688
38, 0, 0, 965.6370239257812
39, 0, 0, 960.5657958984375
40, 0, 0, 970.58203125
41, 0, 0, 974.8355712890625
42, 0, 0, 967.756103515625
43, 0, 0, 971.02587890625
44, 0, 0, 980.9072875976562
45, 0, 0, 984.59326171875
46, 0, 0, 984.0203247070312
47, 0, 0, 999.9652709960938
48, 0, 0, 998.7619018554688
49, 0, 0, 1005.728271484375
50, 0, 0, 1010.21533203125
51, 0, 0, 1015.048034667969
52, 0, 0, 1014.681274414062
53, 0, 0, 1013.483337402344
54, 0, 0, 1020.283996582031
55, 0, 0, 1032.553466796875
56, 0, 0, 1030.930297851562
57, 0, 0, 1033.233764648438
58, 0, 0, 1035.431884765625
59, 0, 0, 1045.762817382812
60, 0, 0, 1036.593139648438
61, 0, 0, 1058.473388671875
62, 0, 0, 1060.694213867188
63, 0, 0, 1065.146606445312
64, 0, 0, 1071.366577148438
65, 0, 0, 1078.27197265625
66, 0, 0, 1084.588134765625
67, 0, 0, 1082.182861328125
68, 0, 0, 1094.504272460938
69, 0, 0, 1099.138916015625
70, 0, 0, 1102.768676757812
71, 0, 0, 1106.53173828125
72, 0, 0, 1105.720581054688
73, 0, 0, 1119.260620117188
74, 0, 0, 1124.477416992188
75, 0, 0, 1140.967529296875
76, 0, 0, 1143.657592773438
77, 0, 0, 1142.780639648438
78, 0, 0, 1152.550537109375
79, 0, 0, 1153.149169921875
80, 0, 0, 1167.100830078125
81, 0, 0, 1172.605712890625
82, 0, 0, 1181.287719726562
83, 0, 0, 1187.428100585938
84, 0, 0, 1200.716552734375
85, 0, 0, 1203.632202148438
86, 0, 0, 1222.116577148438
87, 0, 0, 1216.70361328125
88, 0, 0, 1225.530883789062
89, 0, 0, 1241.307006835938
90, 0, 0, 1245.55712890625
91, 0, 0, 1249.719970703125
92, 0, 0, 1258.567138671875
93, 0, 0, 1265.694702148438
94, 0, 0, 1281.957153320312
95, 0, 0, 1294.959228515625
96, 0, 0, 1313.810791015625
97, 0, 0, 1314.151000976562
98, 0, 0, 1328.11669921875
99, 0, 0, 1339.962280273438
100, 0, 0, 1348.514526367188
101, 0, 0, 1371.381103515625
102, 0, 0, 1375.684692382812
103, 0, 0, 1393.36376953125
104, 0, 0, 1394.489013671875
105, 0, 0, 1417.09765625
106, 0, 0, 1428.878662109375
107, 0, 0, 1446.935791015625
108, 0, 0, 1463.353271484375
109, 0, 0, 1483.3408203125
110, 0, 0, 1500.544799804688
111, 0, 0, 1518.9833984375
112, 0, 0, 1537.570922851562
113, 0, 0, 1556.529418945312
114, 0, 0, 1572.105590820312
115, 0, 0, 1600.857788085938
116, 0, 0, 1610.972290039062
117, 0, 0, 1645.40185546875
118, 0, 0, 1670.323120117188
119, 0, 0, 1688.792846679688
120, 0, 0, 1719.685791015625
121, 0, 0, 1754.328491210938
122, 0, 0, 1773.471435546875
123, 0, 0, 1816.298950195312
124, 0, 0, 1865.292724609375
125, 0, 0, 1890.949951171875
126, 0, 0, 1937.251953125
127, 0, 0, 1978.444580078125
128, 0, 0, 2016.901000976562
129, 0, 0, 2069.447509765625
130, 0, 0, 2127.1123046875
131, 0, 0, 2198.564697265625
132, 0, 0, 2263.669677734375
133, 0, 0, 2346.05615234375
134, 0, 0, 2426.939208984375
135, 0, 0, 2523.808349609375
136, 0, 0, 2645.01123046875
137, 0, 0, 2780.6787109375
138, 0, 0, 2939.174560546875
139, 0, 0, 3147.707275390625
140, 0, 0, 3415.274169921875
141, 0, 0, 3799.10888671875
142, 0, 0, 4264.9853515625
143, 0, 0, 4799.59423828125
144, 0, 0, 5325.80078125
145, 0, 0, 5221.18408203125
146, 0, 0, 4536.0498046875
147, 0, 0, 2974.870361328125
148, 0, 0, 1408.028442382812
149, 0, 0, 605.898193359375
150, 0, 0, 158.5454406738281
151, 0, 0, 70.96379852294922
152, 0, 0, 3.974136352539062
153, 0, 0, 0
154, 0, 0, 0
155, 0, 0, 0
156, 0, 0, 0
157, 0, 0, 0
158, 0, 0, 0
159, 0, 0, 0
160, 0, 0, 0
161, 0, 0, 0
162, 0, 0, 0
163, 0, 0, 0
164, 0, 0, 0
