# TOPAS Version: 3.3.p1
# Parameter File: Test.txt
# Results for scorer MLIC_Scorer
# Scored in component: MLIC
# X in 180 bins of 0.177778 cm
# Y in 1 bin  of 10 cm
# Z in 1 bin  of 10 cm
# EnergyDeposit ( MeV ) : Sum   
0, 0, 0, 0
1, 0, 0, 0
2, 0, 0, 0
3, 0, 0, 0
4, 0, 0, 0
5, 0, 0, 0
6, 0, 0, 0
7, 0, 0, 0
8, 0, 0, 0
9, 0, 0, 0
10, 0, 0, 0
11, 0, 0, 0
12, 0, 0, 0
13, 0, 0, 0
14, 0, 0, 0
15, 0, 0, 0
16, 0, 0, 0
17, 0, 0, 0
18, 0, 0, 0
19, 0, 0, 0
20, 0, 0, 0
21, 0, 0, 0
22, 0, 0, 0
23, 0, 0, 0
24, 0, 0, 0
25, 0, 0, 0
26, 0, 0, 0
27, 0, 0, 0
28, 0, 0, 0
29, 0, 0, 0
30, 0, 0, 0
31, 0, 0, 0
32, 0, 0, 0
33, 0, 0, 0
34, 0, 0, 0
35, 0, 0, 0
36, 0, 0, 0
37, 0, 0, 0
38, 0, 0, 0
39, 0, 0, 0
40, 0, 0, 0
41, 0, 0, 0
42, 0, 0, 0
43, 0, 0, 0
44, 0, 0, 0
45, 0, 0, 0
46, 0, 0, 0
47, 0, 0, 0
48, 0, 0, 0
49, 0, 0, 0
50, 0, 0, 0
51, 0, 0, 0
52, 0, 0, 0
53, 0, 0, 0
54, 0, 0, 0
55, 0, 0, 0
56, 0, 0, 0
57, 0, 0, 0
58, 0, 0, 0
59, 0, 0, 0
60, 0, 0, 0
61, 0, 0, 0
62, 0, 0, 0
63, 0, 0, 0
64, 0, 0, 0
65, 0, 0, 0
66, 0, 0, 0
67, 0, 0, 0
68, 0, 0, 0
69, 0, 0, 0
70, 0, 0, 0
71, 0, 0, 0
72, 0, 0, 0
73, 0, 0, 0
74, 0, 0, 0
75, 0, 0, 0
76, 0, 0, 0
77, 0, 0, 0
78, 0, 0, 0
79, 0, 0, 0
80, 0, 0, 0
81, 0, 0, 0
82, 0, 0, 0
83, 0, 0, 0
84, 0, 0, 0
85, 0, 0, 0
86, 0, 0, 0
87, 0, 0, 0
88, 0, 0, 0
89, 0, 0, 0
90, 0, 0, 0
91, 0, 0, 0
92, 0, 0, 0
93, 0, 0, 0
94, 0, 0, 0
95, 0, 0, 0
96, 0, 0, 0
97, 0, 0, 0
98, 0, 0, 0
99, 0, 0, 0
100, 0, 0, 0
101, 0, 0, 0
102, 0, 0, 0
103, 0, 0, 0
104, 0, 0, 0
105, 0, 0, 0
106, 0, 0, 0
107, 0, 0, 0
108, 0, 0, 0
109, 0, 0, 0
110, 0, 0, 0
111, 0, 0, 0
112, 0, 0, 0
113, 0, 0, 0
114, 0, 0, 0
115, 0, 0, 0
116, 0, 0, 0
117, 0, 0, 0
118, 0, 0, 0
119, 0, 0, 0
120, 0, 0, 6.44387149810791
121, 0, 0, 15.21176719665527
122, 0, 0, 36.39328384399414
123, 0, 0, 130.2253875732422
124, 0, 0, 227.4494018554688
125, 0, 0, 366.6630859375
126, 0, 0, 430.724365234375
127, 0, 0, 507.7429504394531
128, 0, 0, 468.8370361328125
129, 0, 0, 391.9096984863281
130, 0, 0, 357.588134765625
131, 0, 0, 351.58349609375
132, 0, 0, 308.6621704101562
133, 0, 0, 290.9252319335938
134, 0, 0, 276.0150451660156
135, 0, 0, 258.4429931640625
136, 0, 0, 245.7337646484375
137, 0, 0, 234.6944274902344
138, 0, 0, 225.5042419433594
139, 0, 0, 218.13427734375
140, 0, 0, 212.1641387939453
141, 0, 0, 203.7467346191406
142, 0, 0, 199.9833984375
143, 0, 0, 192.3141479492188
144, 0, 0, 189.1249847412109
145, 0, 0, 185.1690216064453
146, 0, 0, 181.3067169189453
147, 0, 0, 177.3755340576172
148, 0, 0, 171.8705596923828
149, 0, 0, 169.7156982421875
150, 0, 0, 165.5546875
151, 0, 0, 163.4331970214844
152, 0, 0, 159.2584381103516
153, 0, 0, 163.1300354003906
154, 0, 0, 155.6594696044922
155, 0, 0, 151.3928375244141
156, 0, 0, 151.8760223388672
157, 0, 0, 151.2880096435547
158, 0, 0, 148.9033508300781
159, 0, 0, 145.8358917236328
160, 0, 0, 142.3224945068359
161, 0, 0, 142.3507537841797
162, 0, 0, 139.1776733398438
163, 0, 0, 138.1496429443359
164, 0, 0, 136.4699554443359
165, 0, 0, 139.1671447753906
166, 0, 0, 134.140869140625
167, 0, 0, 132.5063171386719
168, 0, 0, 132.6287384033203
169, 0, 0, 129.2289428710938
170, 0, 0, 128.4222869873047
171, 0, 0, 128.0995941162109
172, 0, 0, 127.4331741333008
173, 0, 0, 124.1371459960938
174, 0, 0, 123.0769805908203
175, 0, 0, 124.9935150146484
176, 0, 0, 120.3590698242188
177, 0, 0, 123.2159729003906
178, 0, 0, 119.5343399047852
179, 0, 0, 119.3131561279297
