# TOPAS Version: 3.3.p1
# Parameter File: Test.txt
# Results for scorer MLIC_Scorer
# Scored in component: MLIC
# X in 165 bins of 0.2 cm
# Y in 1 bin  of 10 cm
# Z in 1 bin  of 10 cm
# EnergyDeposit ( MeV ) : Sum   
0, 0, 0, 0
1, 0, 0, 0
2, 0, 0, 0
3, 0, 0, 0
4, 0, 0, 0
5, 0, 0, 0
6, 0, 0, 0
7, 0, 0, 0
8, 0, 0, 0
9, 0, 0, 0
10, 0, 0, 0
11, 0, 0, 0
12, 0, 0, 0
13, 0, 0, 0
14, 0, 0, 0
15, 0, 0, 0
16, 0, 0, 0
17, 0, 0, 0
18, 0, 0, 0
19, 0, 0, 0
20, 0, 0, 0
21, 0, 0, 0
22, 0, 0, 0
23, 0, 0, 0
24, 0, 0, 0
25, 0, 0, 0
26, 0, 0, 0
27, 0, 0, 0
28, 0, 0, 0
29, 0, 0, 0
30, 0, 0, 0
31, 0, 0, 0
32, 0, 0, 0
33, 0, 0, 0
34, 0, 0, 0
35, 0, 0, 0
36, 0, 0, 0
37, 0, 0, 0
38, 0, 0, 0
39, 0, 0, 0
40, 0, 0, 0
41, 0, 0, 0
42, 0, 0, 0
43, 0, 0, 0
44, 0, 0, 0
45, 0, 0, 0
46, 0, 0, 0
47, 0, 0, 0
48, 0, 0, 0
49, 0, 0, 0
50, 0, 0, 0
51, 0, 0, 0
52, 0, 0, 0
53, 0, 0, 0
54, 0, 0, 0
55, 0, 0, 0
56, 0, 0, 0
57, 0, 0, 0
58, 0, 0, 0
59, 0, 0, 0
60, 0, 0, 0
61, 0, 0, 0
62, 0, 0, 0
63, 0, 0, 0
64, 0, 0, 0
65, 0, 0, 0
66, 0, 0, 0
67, 0, 0, 0
68, 0, 0, 0
69, 0, 0, 0
70, 0, 0, 0
71, 0, 0, 0
72, 0, 0, 0
73, 0, 0, 0
74, 0, 0, 0
75, 0, 0, 0
76, 0, 0, 0
77, 0, 0, 0
78, 0, 0, 0
79, 0, 0, 0
80, 0, 0, 0.0232173316180706
81, 0, 0, 0
82, 0, 0, 0
83, 0, 0, 0
84, 0, 0, 0.007232786621898413
85, 0, 0, 0
86, 0, 0, 0
87, 0, 0, 20.49023628234863
88, 0, 0, 123.5327987670898
89, 0, 0, 492.4088439941406
90, 0, 0, 1441.352783203125
91, 0, 0, 3023.427978515625
92, 0, 0, 4537.84326171875
93, 0, 0, 5336.33740234375
94, 0, 0, 5349.537109375
95, 0, 0, 4871.93359375
96, 0, 0, 4242.6103515625
97, 0, 0, 3770.067138671875
98, 0, 0, 3408.01806640625
99, 0, 0, 3143.3720703125
100, 0, 0, 2926.724365234375
101, 0, 0, 2765.9560546875
102, 0, 0, 2629.5859375
103, 0, 0, 2514.977783203125
104, 0, 0, 2419.700439453125
105, 0, 0, 2338.66455078125
106, 0, 0, 2262.202880859375
107, 0, 0, 2188.9462890625
108, 0, 0, 2125.533447265625
109, 0, 0, 2076.59326171875
110, 0, 0, 2015.8125
111, 0, 0, 1976.841186523438
112, 0, 0, 1942.368896484375
113, 0, 0, 1896.995849609375
114, 0, 0, 1854.976196289062
115, 0, 0, 1816.961303710938
116, 0, 0, 1782.922607421875
117, 0, 0, 1751.564819335938
118, 0, 0, 1718.291625976562
119, 0, 0, 1696.554321289062
120, 0, 0, 1665.627075195312
121, 0, 0, 1648.905151367188
122, 0, 0, 1618.410034179688
123, 0, 0, 1593.41015625
124, 0, 0, 1574.77783203125
125, 0, 0, 1555.902465820312
126, 0, 0, 1539.001708984375
127, 0, 0, 1517.959594726562
128, 0, 0, 1495.295776367188
129, 0, 0, 1479.519409179688
130, 0, 0, 1469.400146484375
131, 0, 0, 1448.9990234375
132, 0, 0, 1433.340209960938
133, 0, 0, 1417.72607421875
134, 0, 0, 1407.964965820312
135, 0, 0, 1391.852294921875
136, 0, 0, 1382.934326171875
137, 0, 0, 1366.499267578125
138, 0, 0, 1348.421997070312
139, 0, 0, 1342.503540039062
140, 0, 0, 1329.08984375
141, 0, 0, 1318.4599609375
142, 0, 0, 1305.494750976562
143, 0, 0, 1293.699584960938
144, 0, 0, 1275.442260742188
145, 0, 0, 1272.528076171875
146, 0, 0, 1265.003540039062
147, 0, 0, 1259.572631835938
148, 0, 0, 1235.567993164062
149, 0, 0, 1238.998291015625
150, 0, 0, 1234.284545898438
151, 0, 0, 1212.3837890625
152, 0, 0, 1212.115600585938
153, 0, 0, 1201.1767578125
154, 0, 0, 1192.789672851562
155, 0, 0, 1186.544921875
156, 0, 0, 1186.271728515625
157, 0, 0, 1173.564575195312
158, 0, 0, 1173.12255859375
159, 0, 0, 1157.250732421875
160, 0, 0, 1149.272827148438
161, 0, 0, 1149.329833984375
162, 0, 0, 1136.2763671875
163, 0, 0, 1124.487182617188
164, 0, 0, 1117.937377929688
