# TOPAS Version: 3.3.p1
# Parameter File: Test.txt
# Results for scorer MLIC_Scorer
# Scored in component: MLIC
# X in 180 bins of 0.183333 cm
# Y in 1 bin  of 10 cm
# Z in 1 bin  of 10 cm
# EnergyDeposit ( MeV ) : Sum   
0, 0, 0, 0
1, 0, 0, 0
2, 0, 0, 0
3, 0, 0, 0
4, 0, 0, 0
5, 0, 0, 0
6, 0, 0, 0
7, 0, 0, 0
8, 0, 0, 0
9, 0, 0, 0
10, 0, 0, 0
11, 0, 0, 0
12, 0, 0, 0
13, 0, 0, 0
14, 0, 0, 0
15, 0, 0, 0
16, 0, 0, 0
17, 0, 0, 0
18, 0, 0, 0
19, 0, 0, 0
20, 0, 0, 0
21, 0, 0, 0
22, 0, 0, 0
23, 0, 0, 0
24, 0, 0, 0
25, 0, 0, 0
26, 0, 0, 0
27, 0, 0, 0
28, 0, 0, 0
29, 0, 0, 0
30, 0, 0, 0
31, 0, 0, 0
32, 0, 0, 0
33, 0, 0, 0
34, 0, 0, 0
35, 0, 0, 0
36, 0, 0, 0
37, 0, 0, 0
38, 0, 0, 0
39, 0, 0, 0
40, 0, 0, 0
41, 0, 0, 0
42, 0, 0, 0
43, 0, 0, 0
44, 0, 0, 0
45, 0, 0, 0
46, 0, 0, 0
47, 0, 0, 0
48, 0, 0, 0
49, 0, 0, 0
50, 0, 0, 0
51, 0, 0, 0
52, 0, 0, 0
53, 0, 0, 0
54, 0, 0, 0
55, 0, 0, 0
56, 0, 0, 0
57, 0, 0, 0
58, 0, 0, 0
59, 0, 0, 0
60, 0, 0, 0
61, 0, 0, 0
62, 0, 0, 0
63, 0, 0, 0
64, 0, 0, 0
65, 0, 0, 0
66, 0, 0, 0
67, 0, 0, 0
68, 0, 0, 0
69, 0, 0, 0
70, 0, 0, 0
71, 0, 0, 0
72, 0, 0, 0
73, 0, 0, 0
74, 0, 0, 0
75, 0, 0, 0
76, 0, 0, 0
77, 0, 0, 0
78, 0, 0, 0
79, 0, 0, 0
80, 0, 0, 0
81, 0, 0, 0
82, 0, 0, 0
83, 0, 0, 0
84, 0, 0, 0
85, 0, 0, 0
86, 0, 0, 0
87, 0, 0, 0
88, 0, 0, 0
89, 0, 0, 0
90, 0, 0, 0
91, 0, 0, 0
92, 0, 0, 0
93, 0, 0, 0
94, 0, 0, 0
95, 0, 0, 0
96, 0, 0, 0
97, 0, 0, 0
98, 0, 0, 0
99, 0, 0, 0
100, 0, 0, 0
101, 0, 0, 0
102, 0, 0, 0
103, 0, 0, 0
104, 0, 0, 0
105, 0, 0, 0
106, 0, 0, 0
107, 0, 0, 0
108, 0, 0, 0
109, 0, 0, 0
110, 0, 0, 0
111, 0, 0, 0
112, 0, 0, 0
113, 0, 0, 0
114, 0, 0, 0
115, 0, 0, 0
116, 0, 0, 0
117, 0, 0, 0
118, 0, 0, 0
119, 0, 0, 54.62158966064453
120, 0, 0, 300.194091796875
121, 0, 0, 771.974853515625
122, 0, 0, 2389.148193359375
123, 0, 0, 3927.175048828125
124, 0, 0, 5004.19873046875
125, 0, 0, 5258.7607421875
126, 0, 0, 4832.80615234375
127, 0, 0, 4245.6669921875
128, 0, 0, 3704.47900390625
129, 0, 0, 3359.087158203125
130, 0, 0, 3061.768798828125
131, 0, 0, 2859.659912109375
132, 0, 0, 2694.241943359375
133, 0, 0, 2546.87939453125
134, 0, 0, 2437.843505859375
135, 0, 0, 2337.09619140625
136, 0, 0, 2259.2607421875
137, 0, 0, 2182.57470703125
138, 0, 0, 2108.517822265625
139, 0, 0, 2049.857421875
140, 0, 0, 1993.235473632812
141, 0, 0, 1937.073120117188
142, 0, 0, 1898.559692382812
143, 0, 0, 1856.513427734375
144, 0, 0, 1808.85498046875
145, 0, 0, 1776.456909179688
146, 0, 0, 1742.4921875
147, 0, 0, 1707.505249023438
148, 0, 0, 1679.084838867188
149, 0, 0, 1643.315673828125
150, 0, 0, 1615.05712890625
151, 0, 0, 1599.576904296875
152, 0, 0, 1575.236450195312
153, 0, 0, 1547.025512695312
154, 0, 0, 1523.136108398438
155, 0, 0, 1503.84619140625
156, 0, 0, 1487.601928710938
157, 0, 0, 1461.262573242188
158, 0, 0, 1447.543334960938
159, 0, 0, 1420.174926757812
160, 0, 0, 1416.527221679688
161, 0, 0, 1395.725341796875
162, 0, 0, 1373.58349609375
163, 0, 0, 1372.705078125
164, 0, 0, 1356.044067382812
165, 0, 0, 1335.426391601562
166, 0, 0, 1331.014526367188
167, 0, 0, 1314.611938476562
168, 0, 0, 1299.253051757812
169, 0, 0, 1286.906005859375
170, 0, 0, 1276.421630859375
171, 0, 0, 1264.358154296875
172, 0, 0, 1255.605224609375
173, 0, 0, 1246.22412109375
174, 0, 0, 1218.444458007812
175, 0, 0, 1227.623413085938
176, 0, 0, 1209.287719726562
177, 0, 0, 1201.250854492188
178, 0, 0, 1198.047607421875
179, 0, 0, 1185.72509765625
