# TOPAS Version: 3.3.p1
# Parameter File: Test.txt
# Results for scorer MLIC_Scorer
# Scored in component: MLIC
# X in 180 bins of 0.177778 cm
# Y in 1 bin  of 10 cm
# Z in 1 bin  of 10 cm
# EnergyDeposit ( MeV ) : Sum   
0, 0, 0, 0
1, 0, 0, 0
2, 0, 0, 0
3, 0, 0, 0
4, 0, 0, 0
5, 0, 0, 0
6, 0, 0, 0
7, 0, 0, 0
8, 0, 0, 0
9, 0, 0, 0
10, 0, 0, 0
11, 0, 0, 0
12, 0, 0, 0
13, 0, 0, 0
14, 0, 0, 0
15, 0, 0, 0
16, 0, 0, 0
17, 0, 0, 0
18, 0, 0, 0
19, 0, 0, 0
20, 0, 0, 0
21, 0, 0, 0
22, 0, 0, 0
23, 0, 0, 0
24, 0, 0, 0
25, 0, 0, 0
26, 0, 0, 0
27, 0, 0, 0
28, 0, 0, 0
29, 0, 0, 0
30, 0, 0, 0
31, 0, 0, 0
32, 0, 0, 0
33, 0, 0, 0
34, 0, 0, 0
35, 0, 0, 0
36, 0, 0, 0
37, 0, 0, 0
38, 0, 0, 0
39, 0, 0, 0
40, 0, 0, 0
41, 0, 0, 0
42, 0, 0, 0
43, 0, 0, 0
44, 0, 0, 0
45, 0, 0, 0
46, 0, 0, 0
47, 0, 0, 0
48, 0, 0, 0
49, 0, 0, 0
50, 0, 0, 0
51, 0, 0, 0
52, 0, 0, 0
53, 0, 0, 0
54, 0, 0, 0
55, 0, 0, 0.03860343992710114
56, 0, 0, 0
57, 0, 0, 0
58, 0, 0, 0
59, 0, 0, 0
60, 0, 0, 0
61, 0, 0, 0
62, 0, 0, 0
63, 0, 0, 0
64, 0, 0, 5.662152767181396
65, 0, 0, 12.67870426177979
66, 0, 0, 61.5101432800293
67, 0, 0, 249.1165161132812
68, 0, 0, 722.2357788085938
69, 0, 0, 1865.816284179688
70, 0, 0, 3371.94873046875
71, 0, 0, 4471.90869140625
72, 0, 0, 5052.048828125
73, 0, 0, 4835.8740234375
74, 0, 0, 4367.47314453125
75, 0, 0, 3853.377685546875
76, 0, 0, 3394.263427734375
77, 0, 0, 3091.398681640625
78, 0, 0, 2870.646240234375
79, 0, 0, 2692.512451171875
80, 0, 0, 2554.82861328125
81, 0, 0, 2429.34130859375
82, 0, 0, 2333.734130859375
83, 0, 0, 2243.171142578125
84, 0, 0, 2157.357177734375
85, 0, 0, 2096.520751953125
86, 0, 0, 2031.8603515625
87, 0, 0, 1969.179443359375
88, 0, 0, 1926.033325195312
89, 0, 0, 1879.222290039062
90, 0, 0, 1825.047485351562
91, 0, 0, 1796.62353515625
92, 0, 0, 1760.526123046875
93, 0, 0, 1721.741333007812
94, 0, 0, 1686.226928710938
95, 0, 0, 1650.130004882812
96, 0, 0, 1633.37255859375
97, 0, 0, 1603.708129882812
98, 0, 0, 1569.182006835938
99, 0, 0, 1552.047607421875
100, 0, 0, 1528.594848632812
101, 0, 0, 1502.379272460938
102, 0, 0, 1488.07177734375
103, 0, 0, 1464.204223632812
104, 0, 0, 1441.271240234375
105, 0, 0, 1422.015380859375
106, 0, 0, 1407.563354492188
107, 0, 0, 1391.661499023438
108, 0, 0, 1385.205200195312
109, 0, 0, 1365.515747070312
110, 0, 0, 1349.583374023438
111, 0, 0, 1329.061157226562
112, 0, 0, 1323.637329101562
113, 0, 0, 1306.252319335938
114, 0, 0, 1293.579711914062
115, 0, 0, 1281.7958984375
116, 0, 0, 1274.661254882812
117, 0, 0, 1254.421875
118, 0, 0, 1246.817260742188
119, 0, 0, 1237.268798828125
120, 0, 0, 1229.812744140625
121, 0, 0, 1219.467407226562
122, 0, 0, 1204.547973632812
123, 0, 0, 1194.758666992188
124, 0, 0, 1184.727661132812
125, 0, 0, 1177.464233398438
126, 0, 0, 1177.3486328125
127, 0, 0, 1167.365844726562
128, 0, 0, 1149.537231445312
129, 0, 0, 1142.259643554688
130, 0, 0, 1131.880615234375
131, 0, 0, 1128.418579101562
132, 0, 0, 1120.838256835938
133, 0, 0, 1113.949340820312
134, 0, 0, 1108.7333984375
135, 0, 0, 1098.484741210938
136, 0, 0, 1088.7763671875
137, 0, 0, 1083.284301757812
138, 0, 0, 1075.50732421875
139, 0, 0, 1066.616577148438
140, 0, 0, 1073.834838867188
141, 0, 0, 1066.491577148438
142, 0, 0, 1050.844848632812
143, 0, 0, 1048.58203125
144, 0, 0, 1044.36181640625
145, 0, 0, 1039.185546875
146, 0, 0, 1027.398193359375
147, 0, 0, 1019.876708984375
148, 0, 0, 1009.442687988281
149, 0, 0, 1008.02294921875
150, 0, 0, 1008.507568359375
151, 0, 0, 1005.178283691406
152, 0, 0, 990.8323974609375
153, 0, 0, 989.6893310546875
154, 0, 0, 986.490478515625
155, 0, 0, 980.63818359375
156, 0, 0, 981.3707275390625
157, 0, 0, 974.3834838867188
158, 0, 0, 970.0724487304688
159, 0, 0, 967.9744262695312
160, 0, 0, 966.803466796875
161, 0, 0, 957.8696899414062
162, 0, 0, 959.920166015625
163, 0, 0, 949.3697509765625
164, 0, 0, 934.3126831054688
165, 0, 0, 939.7069702148438
166, 0, 0, 935.80712890625
167, 0, 0, 931.3926391601562
168, 0, 0, 929.6184692382812
169, 0, 0, 929.8053588867188
170, 0, 0, 918.7277221679688
171, 0, 0, 918.6599731445312
172, 0, 0, 914.9107055664062
173, 0, 0, 917.5126342773438
174, 0, 0, 916.2884521484375
175, 0, 0, 903.6609497070312
176, 0, 0, 899.3915405273438
177, 0, 0, 900.6753540039062
178, 0, 0, 902.778076171875
179, 0, 0, 895.4741821289062
