# TOPAS Version: 3.3.p1
# Parameter File: Test.txt
# Results for scorer MLIC_Scorer
# Scored in component: MLIC
# X in 180 bins of 0.183333 cm
# Y in 1 bin  of 10 cm
# Z in 1 bin  of 10 cm
# EnergyDeposit ( MeV ) : Sum   
0, 0, 0, 0
1, 0, 0, 0
2, 0, 0, 0
3, 0, 0, 0
4, 0, 0, 0
5, 0, 0, 0.04134589433670044
6, 0, 0, 0
7, 0, 0, 0
8, 0, 0, 0
9, 0, 0, 0.03790147975087166
10, 0, 0, 0.04303284361958504
11, 0, 0, 0
12, 0, 0, 0
13, 0, 0, 0
14, 0, 0, 0
15, 0, 0, 0
16, 0, 0, 0
17, 0, 0, 0
18, 0, 0, 0
19, 0, 0, 0.0002308422263013199
20, 0, 0, 11.22601413726807
21, 0, 0, 116.7024078369141
22, 0, 0, 344.8264465332031
23, 0, 0, 1144.13037109375
24, 0, 0, 2303.01513671875
25, 0, 0, 3799.545166015625
26, 0, 0, 5230.67626953125
27, 0, 0, 5171.30029296875
28, 0, 0, 4793.46728515625
29, 0, 0, 4209.04296875
30, 0, 0, 3706.33544921875
31, 0, 0, 3310.845703125
32, 0, 0, 3041.650634765625
33, 0, 0, 2836.287353515625
34, 0, 0, 2674.477294921875
35, 0, 0, 2541.6572265625
36, 0, 0, 2430.424560546875
37, 0, 0, 2333.825439453125
38, 0, 0, 2247.611083984375
39, 0, 0, 2176.3916015625
40, 0, 0, 2105.535400390625
41, 0, 0, 2043.72021484375
42, 0, 0, 1984.447387695312
43, 0, 0, 1933.902954101562
44, 0, 0, 1890.907958984375
45, 0, 0, 1848.333862304688
46, 0, 0, 1807.210815429688
47, 0, 0, 1774.996704101562
48, 0, 0, 1736.847045898438
49, 0, 0, 1696.954711914062
50, 0, 0, 1681.505249023438
51, 0, 0, 1642.409301757812
52, 0, 0, 1615.625366210938
53, 0, 0, 1589.494384765625
54, 0, 0, 1566.175537109375
55, 0, 0, 1544.244262695312
56, 0, 0, 1520.622192382812
57, 0, 0, 1505.685791015625
58, 0, 0, 1482.06103515625
59, 0, 0, 1468.282592773438
60, 0, 0, 1445.156494140625
61, 0, 0, 1425.462036132812
62, 0, 0, 1412.294677734375
63, 0, 0, 1397.187377929688
64, 0, 0, 1379.635864257812
65, 0, 0, 1365.39892578125
66, 0, 0, 1351.161376953125
67, 0, 0, 1340.380737304688
68, 0, 0, 1317.986328125
69, 0, 0, 1311.168090820312
70, 0, 0, 1307.494873046875
71, 0, 0, 1284.364013671875
72, 0, 0, 1280.265869140625
73, 0, 0, 1263.699340820312
74, 0, 0, 1251.095825195312
75, 0, 0, 1243.588256835938
76, 0, 0, 1231.234985351562
77, 0, 0, 1225.519165039062
78, 0, 0, 1221.135375976562
79, 0, 0, 1203.120849609375
80, 0, 0, 1199.517944335938
81, 0, 0, 1189.067504882812
82, 0, 0, 1175.335083007812
83, 0, 0, 1165.809936523438
84, 0, 0, 1161.955444335938
85, 0, 0, 1148.8505859375
86, 0, 0, 1148.22216796875
87, 0, 0, 1135.30322265625
88, 0, 0, 1125.36376953125
89, 0, 0, 1119.513427734375
90, 0, 0, 1119.624267578125
91, 0, 0, 1112.330322265625
92, 0, 0, 1103.58251953125
93, 0, 0, 1097.695678710938
94, 0, 0, 1085.858764648438
95, 0, 0, 1084.279418945312
96, 0, 0, 1075.20458984375
97, 0, 0, 1074.448974609375
98, 0, 0, 1058.080688476562
99, 0, 0, 1059.095092773438
100, 0, 0, 1043.251953125
101, 0, 0, 1046.549682617188
102, 0, 0, 1043.70751953125
103, 0, 0, 1040.76708984375
104, 0, 0, 1033.049926757812
105, 0, 0, 1025.398559570312
106, 0, 0, 1018.384765625
107, 0, 0, 1015.440185546875
108, 0, 0, 1008.437866210938
109, 0, 0, 1006.570922851562
110, 0, 0, 998.4901123046875
111, 0, 0, 995.168212890625
112, 0, 0, 999.2769775390625
113, 0, 0, 990.66357421875
114, 0, 0, 985.4398193359375
115, 0, 0, 976.0970458984375
116, 0, 0, 979.7047729492188
117, 0, 0, 967.0538940429688
118, 0, 0, 971.4261474609375
119, 0, 0, 962.9740600585938
120, 0, 0, 959.4005737304688
121, 0, 0, 952.4840698242188
122, 0, 0, 948.42822265625
123, 0, 0, 943.5621337890625
124, 0, 0, 936.60888671875
125, 0, 0, 935.9318237304688
126, 0, 0, 932.9765625
127, 0, 0, 939.3934326171875
128, 0, 0, 926.5451049804688
129, 0, 0, 932.1802978515625
130, 0, 0, 925.1703491210938
131, 0, 0, 916.0635986328125
132, 0, 0, 916.5094604492188
133, 0, 0, 915.8019409179688
134, 0, 0, 906.7601318359375
135, 0, 0, 897.4066162109375
136, 0, 0, 900.7763671875
137, 0, 0, 895.7241821289062
138, 0, 0, 894.5016479492188
139, 0, 0, 899.0615844726562
140, 0, 0, 880.7310180664062
141, 0, 0, 883.8716430664062
142, 0, 0, 889.2540893554688
143, 0, 0, 879.35302734375
144, 0, 0, 869.5872192382812
145, 0, 0, 870.5359497070312
146, 0, 0, 879.1171264648438
147, 0, 0, 874.4207763671875
148, 0, 0, 866.5025024414062
149, 0, 0, 867.0911254882812
150, 0, 0, 861.66455078125
151, 0, 0, 860.508056640625
152, 0, 0, 859.2186279296875
153, 0, 0, 855.7932739257812
154, 0, 0, 853.3499145507812
155, 0, 0, 846.388671875
156, 0, 0, 844.8744506835938
157, 0, 0, 845.1845092773438
158, 0, 0, 837.5652465820312
159, 0, 0, 839.6759033203125
160, 0, 0, 830.9871826171875
161, 0, 0, 833.4312744140625
162, 0, 0, 828.6131591796875
163, 0, 0, 831.5966796875
164, 0, 0, 826.5083618164062
165, 0, 0, 830.1281127929688
166, 0, 0, 822.47216796875
167, 0, 0, 827.5479125976562
168, 0, 0, 813.785888671875
169, 0, 0, 817.8526611328125
170, 0, 0, 808.7235107421875
171, 0, 0, 810.5512084960938
172, 0, 0, 808.7244873046875
173, 0, 0, 810.9208984375
174, 0, 0, 810.2767944335938
175, 0, 0, 798.3777465820312
176, 0, 0, 811.54443359375
177, 0, 0, 802.201416015625
178, 0, 0, 802.305419921875
179, 0, 0, 782.322265625
