# TOPAS Version: 3.3.p1
# Parameter File: Test.txt
# Results for scorer MLIC_Scorer
# Scored in component: MLIC
# X in 180 bins of 0.222222 cm
# Y in 1 bin  of 10 cm
# Z in 1 bin  of 10 cm
# EnergyDeposit ( MeV ) : Sum   
0, 0, 0, 0
1, 0, 0, 0
2, 0, 0, 0
3, 0, 0, 0
4, 0, 0, 0
5, 0, 0, 0
6, 0, 0, 0
7, 0, 0, 0
8, 0, 0, 0
9, 0, 0, 0
10, 0, 0, 0
11, 0, 0, 0
12, 0, 0, 0
13, 0, 0, 0
14, 0, 0, 0
15, 0, 0, 0
16, 0, 0, 0
17, 0, 0, 0
18, 0, 0, 0
19, 0, 0, 0
20, 0, 0, 0
21, 0, 0, 0
22, 0, 0, 0
23, 0, 0, 0
24, 0, 0, 0
25, 0, 0, 0
26, 0, 0, 0
27, 0, 0, 0
28, 0, 0, 0
29, 0, 0, 0
30, 0, 0, 0
31, 0, 0, 0
32, 0, 0, 0
33, 0, 0, 0
34, 0, 0, 0
35, 0, 0, 0
36, 0, 0, 0
37, 0, 0, 0
38, 0, 0, 0
39, 0, 0, 0
40, 0, 0, 0
41, 0, 0, 0
42, 0, 0, 0
43, 0, 0, 0
44, 0, 0, 0
45, 0, 0, 0
46, 0, 0, 0
47, 0, 0, 0
48, 0, 0, 0
49, 0, 0, 0
50, 0, 0, 4.955935001373291
51, 0, 0, 10.09706115722656
52, 0, 0, 104.603874206543
53, 0, 0, 777.4590454101562
54, 0, 0, 2219.602294921875
55, 0, 0, 4318.93310546875
56, 0, 0, 5865.4951171875
57, 0, 0, 6190.83203125
58, 0, 0, 5640.81787109375
59, 0, 0, 4707.07666015625
60, 0, 0, 4091.653564453125
61, 0, 0, 3677.72705078125
62, 0, 0, 3392.49267578125
63, 0, 0, 3163.85693359375
64, 0, 0, 2995.356689453125
65, 0, 0, 2840.01123046875
66, 0, 0, 2714.605712890625
67, 0, 0, 2605.5009765625
68, 0, 0, 2508.992919921875
69, 0, 0, 2428.115234375
70, 0, 0, 2352.05126953125
71, 0, 0, 2279.242431640625
72, 0, 0, 2222.630859375
73, 0, 0, 2161.775634765625
74, 0, 0, 2119.8935546875
75, 0, 0, 2067.403564453125
76, 0, 0, 2021.078857421875
77, 0, 0, 1972.984008789062
78, 0, 0, 1932.198486328125
79, 0, 0, 1899.197509765625
80, 0, 0, 1865.218383789062
81, 0, 0, 1843.356567382812
82, 0, 0, 1818.753540039062
83, 0, 0, 1773.932373046875
84, 0, 0, 1753.339721679688
85, 0, 0, 1732.349853515625
86, 0, 0, 1706.12451171875
87, 0, 0, 1688.400634765625
88, 0, 0, 1656.817749023438
89, 0, 0, 1634.744995117188
90, 0, 0, 1611.271362304688
91, 0, 0, 1592.80322265625
92, 0, 0, 1587.471557617188
93, 0, 0, 1562.756469726562
94, 0, 0, 1542.033569335938
95, 0, 0, 1529.230712890625
96, 0, 0, 1511.681640625
97, 0, 0, 1497.783813476562
98, 0, 0, 1489.89892578125
99, 0, 0, 1466.417236328125
100, 0, 0, 1460.0546875
101, 0, 0, 1442.5947265625
102, 0, 0, 1429.597778320312
103, 0, 0, 1418.2109375
104, 0, 0, 1408.422607421875
105, 0, 0, 1390.791015625
106, 0, 0, 1382.89111328125
107, 0, 0, 1368.106079101562
108, 0, 0, 1362.894287109375
109, 0, 0, 1346.510131835938
110, 0, 0, 1336.431030273438
111, 0, 0, 1329.090454101562
112, 0, 0, 1315.7314453125
113, 0, 0, 1313.193725585938
114, 0, 0, 1297.835205078125
115, 0, 0, 1294.75634765625
116, 0, 0, 1288.583862304688
117, 0, 0, 1272.45849609375
118, 0, 0, 1266.806762695312
119, 0, 0, 1266.43212890625
120, 0, 0, 1245.2099609375
121, 0, 0, 1239.965209960938
122, 0, 0, 1235.45849609375
123, 0, 0, 1229.45654296875
124, 0, 0, 1228.9580078125
125, 0, 0, 1213.8134765625
126, 0, 0, 1210.999145507812
127, 0, 0, 1205.02978515625
128, 0, 0, 1197.391967773438
129, 0, 0, 1185.9013671875
130, 0, 0, 1179.400024414062
131, 0, 0, 1179.996459960938
132, 0, 0, 1173.874877929688
133, 0, 0, 1161.815307617188
134, 0, 0, 1159.872680664062
135, 0, 0, 1150.44287109375
136, 0, 0, 1147.972290039062
137, 0, 0, 1141.93994140625
138, 0, 0, 1139.353881835938
139, 0, 0, 1127.404907226562
140, 0, 0, 1124.162109375
141, 0, 0, 1127.51953125
142, 0, 0, 1123.119018554688
143, 0, 0, 1118.91796875
144, 0, 0, 1116.941284179688
145, 0, 0, 1097.647705078125
146, 0, 0, 1103.69873046875
147, 0, 0, 1094.287475585938
148, 0, 0, 1082.486450195312
149, 0, 0, 1080.348876953125
150, 0, 0, 1073.84033203125
151, 0, 0, 1076.587524414062
152, 0, 0, 1057.6826171875
153, 0, 0, 1065.948486328125
154, 0, 0, 1071.060302734375
155, 0, 0, 1062.790405273438
156, 0, 0, 1056.473266601562
157, 0, 0, 1048.684936523438
158, 0, 0, 1044.77978515625
159, 0, 0, 1051.379272460938
160, 0, 0, 1030.796630859375
161, 0, 0, 1038.652709960938
162, 0, 0, 1029.093383789062
163, 0, 0, 1026.514526367188
164, 0, 0, 1022.332824707031
165, 0, 0, 1014.81103515625
166, 0, 0, 1015.474792480469
167, 0, 0, 1014.011535644531
168, 0, 0, 1008.412414550781
169, 0, 0, 1008.4091796875
170, 0, 0, 1006.79638671875
171, 0, 0, 997.2362670898438
172, 0, 0, 999.5459594726562
173, 0, 0, 1004.381469726562
174, 0, 0, 981.8232421875
175, 0, 0, 990.6455688476562
176, 0, 0, 994.8968505859375
177, 0, 0, 977.0406494140625
178, 0, 0, 980.8978271484375
179, 0, 0, 971.7827758789062
