# TOPAS Version: 3.3.p1
# Parameter File: Test.txt
# Results for scorer MLIC_Scorer
# Scored in component: MLIC
# X in 165 bins of 0.2 cm
# Y in 1 bin  of 10 cm
# Z in 1 bin  of 10 cm
# EnergyDeposit ( MeV ) : Sum   
0, 0, 0, 0
1, 0, 0, 0
2, 0, 0, 0
3, 0, 0, 0
4, 0, 0, 0
5, 0, 0, 0
6, 0, 0, 0
7, 0, 0, 0
8, 0, 0, 0
9, 0, 0, 0
10, 0, 0, 0
11, 0, 0, 0
12, 0, 0, 0
13, 0, 0, 0
14, 0, 0, 0
15, 0, 0, 0
16, 0, 0, 0
17, 0, 0, 0
18, 0, 0, 0
19, 0, 0, 0
20, 0, 0, 0
21, 0, 0, 0
22, 0, 0, 0
23, 0, 0, 0
24, 0, 0, 0
25, 0, 0, 0
26, 0, 0, 0
27, 0, 0, 0
28, 0, 0, 0
29, 0, 0, 0
30, 0, 0, 0
31, 0, 0, 0
32, 0, 0, 0.003446054412052035
33, 0, 0, 0
34, 0, 0, 0
35, 0, 0, 0
36, 0, 0, 0
37, 0, 0, 0
38, 0, 0, 0
39, 0, 0, 0
40, 0, 0, 0
41, 0, 0, 0
42, 0, 0, 0
43, 0, 0, 0
44, 0, 0, 0
45, 0, 0, 0
46, 0, 0, 0
47, 0, 0, 0
48, 0, 0, 0
49, 0, 0, 0
50, 0, 0, 0
51, 0, 0, 0
52, 0, 0, 0
53, 0, 0, 0
54, 0, 0, 0
55, 0, 0, 0
56, 0, 0, 0
57, 0, 0, 0
58, 0, 0, 0
59, 0, 0, 0
60, 0, 0, 0
61, 0, 0, 0
62, 0, 0, 0.006278584711253643
63, 0, 0, 0
64, 0, 0, 0.01206899527460337
65, 0, 0, 0
66, 0, 0, 0
67, 0, 0, 8.201939582824707
68, 0, 0, 95.04330444335938
69, 0, 0, 519.8536376953125
70, 0, 0, 1312.3359375
71, 0, 0, 2955.201416015625
72, 0, 0, 4311.45458984375
73, 0, 0, 5392.77587890625
74, 0, 0, 5529.85888671875
75, 0, 0, 4913.73291015625
76, 0, 0, 4314.39013671875
77, 0, 0, 3775.337158203125
78, 0, 0, 3410.8779296875
79, 0, 0, 3141.214599609375
80, 0, 0, 2939.568115234375
81, 0, 0, 2776.43701171875
82, 0, 0, 2642.649169921875
83, 0, 0, 2535.19873046875
84, 0, 0, 2430.158447265625
85, 0, 0, 2336.227783203125
86, 0, 0, 2265.6181640625
87, 0, 0, 2195.156494140625
88, 0, 0, 2130.09423828125
89, 0, 0, 2072.14794921875
90, 0, 0, 2019.570678710938
91, 0, 0, 1976.990234375
92, 0, 0, 1925.845092773438
93, 0, 0, 1888.777221679688
94, 0, 0, 1853.777221679688
95, 0, 0, 1815.211669921875
96, 0, 0, 1788.46337890625
97, 0, 0, 1754.504272460938
98, 0, 0, 1721.599243164062
99, 0, 0, 1695.524658203125
100, 0, 0, 1669.146362304688
101, 0, 0, 1645.04931640625
102, 0, 0, 1622.88720703125
103, 0, 0, 1600.845825195312
104, 0, 0, 1574.520263671875
105, 0, 0, 1552.569091796875
106, 0, 0, 1533.744018554688
107, 0, 0, 1507.427490234375
108, 0, 0, 1490.655639648438
109, 0, 0, 1482.182006835938
110, 0, 0, 1459.956787109375
111, 0, 0, 1446.273681640625
112, 0, 0, 1429.064086914062
113, 0, 0, 1428.605102539062
114, 0, 0, 1405.25048828125
115, 0, 0, 1390.844360351562
116, 0, 0, 1376.9697265625
117, 0, 0, 1362.374389648438
118, 0, 0, 1352.652099609375
119, 0, 0, 1336.52392578125
120, 0, 0, 1338.878173828125
121, 0, 0, 1313.326293945312
122, 0, 0, 1306.502075195312
123, 0, 0, 1297.276611328125
124, 0, 0, 1292.119018554688
125, 0, 0, 1273.301513671875
126, 0, 0, 1257.309936523438
127, 0, 0, 1255.399780273438
128, 0, 0, 1249.592041015625
129, 0, 0, 1232.326049804688
130, 0, 0, 1236.8408203125
131, 0, 0, 1219.2578125
132, 0, 0, 1206.874145507812
133, 0, 0, 1203.907958984375
134, 0, 0, 1205.771728515625
135, 0, 0, 1187.731201171875
136, 0, 0, 1180.680786132812
137, 0, 0, 1172.81689453125
138, 0, 0, 1166.517944335938
139, 0, 0, 1159.298217773438
140, 0, 0, 1144.608154296875
141, 0, 0, 1146.161254882812
142, 0, 0, 1138.8056640625
143, 0, 0, 1136.97216796875
144, 0, 0, 1125.0234375
145, 0, 0, 1117.71142578125
146, 0, 0, 1113.238037109375
147, 0, 0, 1109.553833007812
148, 0, 0, 1097.957153320312
149, 0, 0, 1096.212158203125
150, 0, 0, 1091.402099609375
151, 0, 0, 1077.417724609375
152, 0, 0, 1077.889038085938
153, 0, 0, 1069.247314453125
154, 0, 0, 1073.444213867188
155, 0, 0, 1061.807250976562
156, 0, 0, 1063.769653320312
157, 0, 0, 1061.416015625
158, 0, 0, 1049.93603515625
159, 0, 0, 1049.295166015625
160, 0, 0, 1034.141479492188
161, 0, 0, 1029.35498046875
162, 0, 0, 1035.466918945312
163, 0, 0, 1031.264770507812
164, 0, 0, 1029.895141601562
