# TOPAS Version: 3.3.p1
# Parameter File: Test.txt
# Results for scorer MLIC_Scorer
# Scored in component: MLIC
# X in 180 bins of 0.183333 cm
# Y in 1 bin  of 10 cm
# Z in 1 bin  of 10 cm
# EnergyDeposit ( MeV ) : Sum   
0, 0, 0, 0
1, 0, 0, 0
2, 0, 0, 0
3, 0, 0, 0
4, 0, 0, 0
5, 0, 0, 0
6, 0, 0, 0
7, 0, 0, 0
8, 0, 0, 0
9, 0, 0, 0
10, 0, 0, 0.001856171293184161
11, 0, 0, 6.078880310058594
12, 0, 0, 29.22774505615234
13, 0, 0, 252.3035736083984
14, 0, 0, 915.9134521484375
15, 0, 0, 1977.87548828125
16, 0, 0, 3515.587158203125
17, 0, 0, 4948.6015625
18, 0, 0, 5341.08544921875
19, 0, 0, 4853.95947265625
20, 0, 0, 4315.69091796875
21, 0, 0, 3788.89208984375
22, 0, 0, 3381.209228515625
23, 0, 0, 3109.146484375
24, 0, 0, 2884.634033203125
25, 0, 0, 2702.276611328125
26, 0, 0, 2568.904052734375
27, 0, 0, 2450.319580078125
28, 0, 0, 2355.25537109375
29, 0, 0, 2265.227783203125
30, 0, 0, 2193.04443359375
31, 0, 0, 2115.32568359375
32, 0, 0, 2057.83056640625
33, 0, 0, 1992.459228515625
34, 0, 0, 1951.613159179688
35, 0, 0, 1903.082397460938
36, 0, 0, 1860.342895507812
37, 0, 0, 1810.93359375
38, 0, 0, 1786.100952148438
39, 0, 0, 1745.349731445312
40, 0, 0, 1716.484130859375
41, 0, 0, 1681.822998046875
42, 0, 0, 1651.559448242188
43, 0, 0, 1630.280639648438
44, 0, 0, 1598.479125976562
45, 0, 0, 1568.451538085938
46, 0, 0, 1548.809326171875
47, 0, 0, 1534.405639648438
48, 0, 0, 1504.365600585938
49, 0, 0, 1485.932373046875
50, 0, 0, 1463.76513671875
51, 0, 0, 1449.772338867188
52, 0, 0, 1434.132690429688
53, 0, 0, 1416.485717773438
54, 0, 0, 1402.599975585938
55, 0, 0, 1393.695434570312
56, 0, 0, 1372.510620117188
57, 0, 0, 1361.099975585938
58, 0, 0, 1337.67578125
59, 0, 0, 1327.517700195312
60, 0, 0, 1318.878784179688
61, 0, 0, 1299.332153320312
62, 0, 0, 1291.494262695312
63, 0, 0, 1273.605346679688
64, 0, 0, 1268.862060546875
65, 0, 0, 1251.931884765625
66, 0, 0, 1249.216430664062
67, 0, 0, 1237.863037109375
68, 0, 0, 1221.466552734375
69, 0, 0, 1212.393676757812
70, 0, 0, 1199.240234375
71, 0, 0, 1192.4970703125
72, 0, 0, 1182.346313476562
73, 0, 0, 1177.1484375
74, 0, 0, 1172.19970703125
75, 0, 0, 1162.560424804688
76, 0, 0, 1147.294921875
77, 0, 0, 1144.41455078125
78, 0, 0, 1144.108520507812
79, 0, 0, 1131.991943359375
80, 0, 0, 1119.562377929688
81, 0, 0, 1112.1494140625
82, 0, 0, 1116.723876953125
83, 0, 0, 1101.70947265625
84, 0, 0, 1102.802001953125
85, 0, 0, 1092.276977539062
86, 0, 0, 1085.283935546875
87, 0, 0, 1080.947998046875
88, 0, 0, 1077.171997070312
89, 0, 0, 1067.048706054688
90, 0, 0, 1058.966918945312
91, 0, 0, 1058.7783203125
92, 0, 0, 1046.999755859375
93, 0, 0, 1047.658569335938
94, 0, 0, 1038.059204101562
95, 0, 0, 1025.08349609375
96, 0, 0, 1027.234375
97, 0, 0, 1020.228149414062
98, 0, 0, 1014.303527832031
99, 0, 0, 1013.600463867188
100, 0, 0, 1012.434753417969
101, 0, 0, 1005.920593261719
102, 0, 0, 995.83740234375
103, 0, 0, 993.8584594726562
104, 0, 0, 992.4095458984375
105, 0, 0, 977.9890747070312
106, 0, 0, 990.2277221679688
107, 0, 0, 974.0074462890625
108, 0, 0, 966.1886596679688
109, 0, 0, 968.9385986328125
110, 0, 0, 964.8353271484375
111, 0, 0, 959.7567749023438
112, 0, 0, 945.8599243164062
113, 0, 0, 945.244873046875
114, 0, 0, 948.4508056640625
115, 0, 0, 937.320068359375
116, 0, 0, 940.460693359375
117, 0, 0, 932.5680541992188
118, 0, 0, 930.60205078125
119, 0, 0, 925.2032470703125
120, 0, 0, 931.6605834960938
121, 0, 0, 921.4435424804688
122, 0, 0, 921.3809814453125
123, 0, 0, 912.86865234375
124, 0, 0, 916.3082275390625
125, 0, 0, 901.7481079101562
126, 0, 0, 904.8984375
127, 0, 0, 905.55126953125
128, 0, 0, 906.3953247070312
129, 0, 0, 893.497802734375
130, 0, 0, 895.3919677734375
131, 0, 0, 887.80859375
132, 0, 0, 892.0756225585938
133, 0, 0, 890.555908203125
134, 0, 0, 889.7239990234375
135, 0, 0, 877.4540405273438
136, 0, 0, 877.4577026367188
137, 0, 0, 877.9389038085938
138, 0, 0, 870.7916870117188
139, 0, 0, 870.357177734375
140, 0, 0, 861.5236206054688
141, 0, 0, 861.3046264648438
142, 0, 0, 859.2889404296875
143, 0, 0, 854.9910278320312
144, 0, 0, 853.4827270507812
145, 0, 0, 847.3543090820312
146, 0, 0, 849.6566772460938
147, 0, 0, 853.7494506835938
148, 0, 0, 852.2175903320312
149, 0, 0, 841.5676879882812
150, 0, 0, 852.0078735351562
151, 0, 0, 840.5982666015625
152, 0, 0, 834.3751831054688
153, 0, 0, 822.955810546875
154, 0, 0, 823.6943359375
155, 0, 0, 835.9994506835938
156, 0, 0, 820.54345703125
157, 0, 0, 828.0549926757812
158, 0, 0, 830.1868896484375
159, 0, 0, 821.1384887695312
160, 0, 0, 815.8209228515625
161, 0, 0, 812.9927368164062
162, 0, 0, 815.8838500976562
163, 0, 0, 813.1040649414062
164, 0, 0, 811.5314331054688
165, 0, 0, 806.54345703125
166, 0, 0, 803.8563232421875
167, 0, 0, 798.6575317382812
168, 0, 0, 799.4999389648438
169, 0, 0, 797.93896484375
170, 0, 0, 804.1958618164062
171, 0, 0, 796.7327880859375
172, 0, 0, 785.222900390625
173, 0, 0, 798.5460815429688
174, 0, 0, 780.8502807617188
175, 0, 0, 784.3947143554688
176, 0, 0, 785.703857421875
177, 0, 0, 774.060546875
178, 0, 0, 781.8818969726562
179, 0, 0, 776.3741455078125
