# TOPAS Version: 3.3.p1
# Parameter File: Test.txt
# Results for scorer MLIC_Scorer
# Scored in component: MLIC
# X in 180 bins of 0.177778 cm
# Y in 1 bin  of 10 cm
# Z in 1 bin  of 10 cm
# EnergyDeposit ( MeV ) : Sum   
0, 0, 0, 0
1, 0, 0, 0
2, 0, 0, 0
3, 0, 0, 0
4, 0, 0, 0
5, 0, 0, 0
6, 0, 0, 0
7, 0, 0, 0
8, 0, 0, 0
9, 0, 0, 0
10, 0, 0, 0
11, 0, 0, 0
12, 0, 0, 0
13, 0, 0, 0
14, 0, 0, 0
15, 0, 0, 0
16, 0, 0, 0
17, 0, 0, 0
18, 0, 0, 0
19, 0, 0, 0
20, 0, 0, 0
21, 0, 0, 0
22, 0, 0, 0
23, 0, 0, 0
24, 0, 0, 0
25, 0, 0, 0
26, 0, 0, 0
27, 0, 0, 0
28, 0, 0, 0
29, 0, 0, 0
30, 0, 0, 0
31, 0, 0, 0
32, 0, 0, 0
33, 0, 0, 0
34, 0, 0, 0
35, 0, 0, 0
36, 0, 0, 0
37, 0, 0, 0
38, 0, 0, 0
39, 0, 0, 0
40, 0, 0, 0
41, 0, 0, 0
42, 0, 0, 0
43, 0, 0, 0
44, 0, 0, 0
45, 0, 0, 0
46, 0, 0, 0
47, 0, 0, 0
48, 0, 0, 0
49, 0, 0, 0
50, 0, 0, 0
51, 0, 0, 0
52, 0, 0, 0
53, 0, 0, 0
54, 0, 0, 0
55, 0, 0, 0
56, 0, 0, 0
57, 0, 0, 0
58, 0, 0, 0
59, 0, 0, 0
60, 0, 0, 0
61, 0, 0, 0
62, 0, 0, 0
63, 0, 0, 0
64, 0, 0, 0
65, 0, 0, 0
66, 0, 0, 0
67, 0, 0, 9.110121726989746
68, 0, 0, 6.944906711578369
69, 0, 0, 11.30148220062256
70, 0, 0, 21.45749282836914
71, 0, 0, 82.39047241210938
72, 0, 0, 203.1805572509766
73, 0, 0, 308.0122375488281
74, 0, 0, 363.4302673339844
75, 0, 0, 361.3158569335938
76, 0, 0, 357.9382019042969
77, 0, 0, 307.1129760742188
78, 0, 0, 262.0651245117188
79, 0, 0, 235.8058929443359
80, 0, 0, 218.4437103271484
81, 0, 0, 203.10205078125
82, 0, 0, 192.5358123779297
83, 0, 0, 183.7524566650391
84, 0, 0, 176.6257019042969
85, 0, 0, 169.1453094482422
86, 0, 0, 160.8909301757812
87, 0, 0, 156.7028656005859
88, 0, 0, 151.7440032958984
89, 0, 0, 144.8078460693359
90, 0, 0, 144.4650115966797
91, 0, 0, 141.2876129150391
92, 0, 0, 135.3607482910156
93, 0, 0, 133.5051727294922
94, 0, 0, 129.7889251708984
95, 0, 0, 127.7592391967773
96, 0, 0, 126.954475402832
97, 0, 0, 123.1500015258789
98, 0, 0, 120.27099609375
99, 0, 0, 120.0483245849609
100, 0, 0, 117.6545944213867
101, 0, 0, 115.2031402587891
102, 0, 0, 113.364128112793
103, 0, 0, 112.6591644287109
104, 0, 0, 111.3387298583984
105, 0, 0, 107.7475204467773
106, 0, 0, 109.6027374267578
107, 0, 0, 107.3444747924805
108, 0, 0, 103.3250961303711
109, 0, 0, 102.2288284301758
110, 0, 0, 102.4541091918945
111, 0, 0, 100.2486419677734
112, 0, 0, 100.626335144043
113, 0, 0, 100.0922546386719
114, 0, 0, 97.57503509521484
115, 0, 0, 97.14036560058594
116, 0, 0, 94.55898284912109
117, 0, 0, 94.45350646972656
118, 0, 0, 95.990234375
119, 0, 0, 91.94669342041016
120, 0, 0, 92.75457000732422
121, 0, 0, 91.2811279296875
122, 0, 0, 91.19223785400391
123, 0, 0, 89.09481811523438
124, 0, 0, 90.453857421875
125, 0, 0, 89.66861724853516
126, 0, 0, 88.38793182373047
127, 0, 0, 86.73388671875
128, 0, 0, 84.99348449707031
129, 0, 0, 87.40459442138672
130, 0, 0, 85.51158142089844
131, 0, 0, 84.50970458984375
132, 0, 0, 84.26039886474609
133, 0, 0, 84.24977111816406
134, 0, 0, 84.37553405761719
135, 0, 0, 83.34033203125
136, 0, 0, 81.65562438964844
137, 0, 0, 80.9373779296875
138, 0, 0, 80.96224212646484
139, 0, 0, 80.95940399169922
140, 0, 0, 80.97999572753906
141, 0, 0, 80.87039184570312
142, 0, 0, 79.24947357177734
143, 0, 0, 80.38123321533203
144, 0, 0, 78.34165191650391
145, 0, 0, 77.52767944335938
146, 0, 0, 76.98349761962891
147, 0, 0, 75.91127014160156
148, 0, 0, 76.72675323486328
149, 0, 0, 75.59140777587891
150, 0, 0, 73.60256958007812
151, 0, 0, 76.32870483398438
152, 0, 0, 75.83467864990234
153, 0, 0, 73.25296783447266
154, 0, 0, 74.42174530029297
155, 0, 0, 72.91571044921875
156, 0, 0, 73.76711273193359
157, 0, 0, 71.15245819091797
158, 0, 0, 74.26756286621094
159, 0, 0, 71.92787170410156
160, 0, 0, 72.27243041992188
161, 0, 0, 70.97588348388672
162, 0, 0, 71.91260528564453
163, 0, 0, 69.44119262695312
164, 0, 0, 72.44142150878906
165, 0, 0, 70.01287078857422
166, 0, 0, 70.51553344726562
167, 0, 0, 71.29217529296875
168, 0, 0, 70.25797271728516
169, 0, 0, 70.82179260253906
170, 0, 0, 68.11141204833984
171, 0, 0, 68.51378631591797
172, 0, 0, 70.03538513183594
173, 0, 0, 67.59758758544922
174, 0, 0, 69.27961730957031
175, 0, 0, 68.23657989501953
176, 0, 0, 66.21925354003906
177, 0, 0, 67.31390380859375
178, 0, 0, 64.79613494873047
179, 0, 0, 64.78152465820312
