# TOPAS Version: 3.3.p1
# Parameter File: Test.txt
# Results for scorer MLIC_Scorer
# Scored in component: MLIC
# X in 180 bins of 0.177778 cm
# Y in 1 bin  of 10 cm
# Z in 1 bin  of 10 cm
# EnergyDeposit ( MeV ) : Sum   
0, 0, 0, 0
1, 0, 0, 0
2, 0, 0, 0
3, 0, 0, 0
4, 0, 0, 0
5, 0, 0, 0
6, 0, 0, 0
7, 0, 0, 0
8, 0, 0, 0
9, 0, 0, 0
10, 0, 0, 0
11, 0, 0, 0
12, 0, 0, 0
13, 0, 0, 0
14, 0, 0, 0
15, 0, 0, 0
16, 0, 0, 0
17, 0, 0, 0
18, 0, 0, 0
19, 0, 0, 0
20, 0, 0, 0
21, 0, 0, 0
22, 0, 0, 0
23, 0, 0, 0
24, 0, 0, 0
25, 0, 0, 0
26, 0, 0, 0
27, 0, 0, 0
28, 0, 0, 0
29, 0, 0, 0
30, 0, 0, 0
31, 0, 0, 0
32, 0, 0, 0
33, 0, 0, 0
34, 0, 0, 0
35, 0, 0, 0
36, 0, 0, 0
37, 0, 0, 0
38, 0, 0, 0
39, 0, 0, 0
40, 0, 0, 0
41, 0, 0, 0
42, 0, 0, 0
43, 0, 0, 0
44, 0, 0, 0
45, 0, 0, 0
46, 0, 0, 0
47, 0, 0, 0
48, 0, 0, 0
49, 0, 0, 0
50, 0, 0, 0
51, 0, 0, 0
52, 0, 0, 0
53, 0, 0, 0
54, 0, 0, 0
55, 0, 0, 0
56, 0, 0, 0
57, 0, 0, 0
58, 0, 0, 0
59, 0, 0, 0
60, 0, 0, 0
61, 0, 0, 0
62, 0, 0, 0
63, 0, 0, 0
64, 0, 0, 0
65, 0, 0, 0
66, 0, 0, 0
67, 0, 0, 0
68, 0, 0, 0
69, 0, 0, 0
70, 0, 0, 0
71, 0, 0, 0
72, 0, 0, 0
73, 0, 0, 0
74, 0, 0, 0
75, 0, 0, 0
76, 0, 0, 0
77, 0, 0, 0
78, 0, 0, 0
79, 0, 0, 0
80, 0, 0, 0
81, 0, 0, 0
82, 0, 0, 0
83, 0, 0, 0
84, 0, 0, 0
85, 0, 0, 0
86, 0, 0, 0
87, 0, 0, 0
88, 0, 0, 0
89, 0, 0, 0
90, 0, 0, 0
91, 0, 0, 0
92, 0, 0, 0
93, 0, 0, 0
94, 0, 0, 0
95, 0, 0, 0
96, 0, 0, 0
97, 0, 0, 0
98, 0, 0, 0
99, 0, 0, 0
100, 0, 0, 0
101, 0, 0, 0
102, 0, 0, 0
103, 0, 0, 0
104, 0, 0, 0
105, 0, 0, 0
106, 0, 0, 0
107, 0, 0, 0
108, 0, 0, 0
109, 0, 0, 0
110, 0, 0, 0
111, 0, 0, 0
112, 0, 0, 0
113, 0, 0, 0
114, 0, 0, 7.855196952819824
115, 0, 0, 23.51891326904297
116, 0, 0, 94.90966796875
117, 0, 0, 318.0291137695312
118, 0, 0, 379.632568359375
119, 0, 0, 488.1883239746094
120, 0, 0, 479.5437622070312
121, 0, 0, 414.6197204589844
122, 0, 0, 407.7695617675781
123, 0, 0, 343.9393310546875
124, 0, 0, 317.1309814453125
125, 0, 0, 292.2535400390625
126, 0, 0, 270.1727294921875
127, 0, 0, 254.9441223144531
128, 0, 0, 240.9237365722656
129, 0, 0, 232.3794555664062
130, 0, 0, 219.2408142089844
131, 0, 0, 214.6508178710938
132, 0, 0, 206.4699554443359
133, 0, 0, 199.8923187255859
134, 0, 0, 193.6482696533203
135, 0, 0, 188.4633636474609
136, 0, 0, 183.7381744384766
137, 0, 0, 180.7562103271484
138, 0, 0, 175.4445953369141
139, 0, 0, 171.6775817871094
140, 0, 0, 169.9902191162109
141, 0, 0, 163.2701263427734
142, 0, 0, 162.0077056884766
143, 0, 0, 159.0691986083984
144, 0, 0, 153.7845611572266
145, 0, 0, 154.5695037841797
146, 0, 0, 149.8187561035156
147, 0, 0, 148.7447814941406
148, 0, 0, 148.0305786132812
149, 0, 0, 144.3584136962891
150, 0, 0, 143.8385925292969
151, 0, 0, 141.9370574951172
152, 0, 0, 139.5720672607422
153, 0, 0, 137.9521179199219
154, 0, 0, 135.4790954589844
155, 0, 0, 135.5210418701172
156, 0, 0, 132.54296875
157, 0, 0, 130.5024566650391
158, 0, 0, 131.4006195068359
159, 0, 0, 129.6967468261719
160, 0, 0, 128.5615997314453
161, 0, 0, 124.8475189208984
162, 0, 0, 126.2754516601562
163, 0, 0, 121.9256973266602
164, 0, 0, 124.6558074951172
165, 0, 0, 119.0715484619141
166, 0, 0, 118.5255432128906
167, 0, 0, 120.650146484375
168, 0, 0, 115.6490859985352
169, 0, 0, 117.5293807983398
170, 0, 0, 115.8705596923828
171, 0, 0, 115.0860900878906
172, 0, 0, 113.5747833251953
173, 0, 0, 111.4974060058594
174, 0, 0, 110.9574737548828
175, 0, 0, 111.877311706543
176, 0, 0, 114.0092544555664
177, 0, 0, 110.8562393188477
178, 0, 0, 109.8778305053711
179, 0, 0, 109.5417251586914
