# TOPAS Version: 3.3.p1
# Parameter File: Test.txt
# Results for scorer MLIC_Scorer
# Scored in component: MLIC
# X in 180 bins of 0.177778 cm
# Y in 1 bin  of 10 cm
# Z in 1 bin  of 10 cm
# EnergyDeposit ( MeV ) : Sum   
0, 0, 0, 0
1, 0, 0, 0
2, 0, 0, 0
3, 0, 0, 0
4, 0, 0, 0
5, 0, 0, 0
6, 0, 0, 0
7, 0, 0, 0
8, 0, 0, 0
9, 0, 0, 0
10, 0, 0, 0
11, 0, 0, 0
12, 0, 0, 0
13, 0, 0, 0
14, 0, 0, 0
15, 0, 0, 0
16, 0, 0, 0
17, 0, 0, 0
18, 0, 0, 0
19, 0, 0, 0
20, 0, 0, 0
21, 0, 0, 0
22, 0, 0, 0
23, 0, 0, 0
24, 0, 0, 0
25, 0, 0, 0
26, 0, 0, 0
27, 0, 0, 0
28, 0, 0, 0
29, 0, 0, 0
30, 0, 0, 0
31, 0, 0, 0
32, 0, 0, 0
33, 0, 0, 0
34, 0, 0, 0
35, 0, 0, 0
36, 0, 0, 0
37, 0, 0, 0
38, 0, 0, 0
39, 0, 0, 0
40, 0, 0, 0
41, 0, 0, 0
42, 0, 0, 0
43, 0, 0, 0
44, 0, 0, 0
45, 0, 0, 0
46, 0, 0, 0
47, 0, 0, 0
48, 0, 0, 0
49, 0, 0, 0
50, 0, 0, 0
51, 0, 0, 0
52, 0, 0, 0
53, 0, 0, 0
54, 0, 0, 0
55, 0, 0, 0
56, 0, 0, 0
57, 0, 0, 0
58, 0, 0, 0
59, 0, 0, 0
60, 0, 0, 0
61, 0, 0, 0
62, 0, 0, 0
63, 0, 0, 0
64, 0, 0, 0
65, 0, 0, 0
66, 0, 0, 0
67, 0, 0, 0
68, 0, 0, 0
69, 0, 0, 0
70, 0, 0, 0
71, 0, 0, 0
72, 0, 0, 0
73, 0, 0, 0
74, 0, 0, 0
75, 0, 0, 0
76, 0, 0, 0
77, 0, 0, 0
78, 0, 0, 0
79, 0, 0, 0
80, 0, 0, 0
81, 0, 0, 0
82, 0, 0, 0
83, 0, 0, 0
84, 0, 0, 0
85, 0, 0, 0
86, 0, 0, 0
87, 0, 0, 0
88, 0, 0, 0
89, 0, 0, 0
90, 0, 0, 9.659015655517578
91, 0, 0, 72.57943725585938
92, 0, 0, 109.2596435546875
93, 0, 0, 203.4817352294922
94, 0, 0, 289.6127624511719
95, 0, 0, 337.2545166015625
96, 0, 0, 388.4079284667969
97, 0, 0, 358.1929931640625
98, 0, 0, 318.8214111328125
99, 0, 0, 293.1205139160156
100, 0, 0, 256.1897277832031
101, 0, 0, 233.2211303710938
102, 0, 0, 216.7160949707031
103, 0, 0, 206.2095642089844
104, 0, 0, 195.6984405517578
105, 0, 0, 186.2926940917969
106, 0, 0, 179.0362091064453
107, 0, 0, 171.9028472900391
108, 0, 0, 170.2746124267578
109, 0, 0, 159.8706665039062
110, 0, 0, 156.4437255859375
111, 0, 0, 149.5843353271484
112, 0, 0, 148.4699554443359
113, 0, 0, 144.0493469238281
114, 0, 0, 140.7172088623047
115, 0, 0, 137.7596588134766
116, 0, 0, 135.8233947753906
117, 0, 0, 132.7094573974609
118, 0, 0, 131.8840026855469
119, 0, 0, 126.7800827026367
120, 0, 0, 126.9151306152344
121, 0, 0, 123.9008865356445
122, 0, 0, 121.8375015258789
123, 0, 0, 118.9860000610352
124, 0, 0, 118.7587051391602
125, 0, 0, 115.4133224487305
126, 0, 0, 115.221076965332
127, 0, 0, 115.7872772216797
128, 0, 0, 110.6410827636719
129, 0, 0, 111.2984466552734
130, 0, 0, 110.0095901489258
131, 0, 0, 108.3956298828125
132, 0, 0, 107.1396636962891
133, 0, 0, 105.3365325927734
134, 0, 0, 104.6293334960938
135, 0, 0, 102.4858245849609
136, 0, 0, 100.827766418457
137, 0, 0, 101.4988174438477
138, 0, 0, 103.7423706054688
139, 0, 0, 100.9309997558594
140, 0, 0, 98.37111663818359
141, 0, 0, 97.96146392822266
142, 0, 0, 96.56910705566406
143, 0, 0, 93.70428466796875
144, 0, 0, 93.88276672363281
145, 0, 0, 93.21626281738281
146, 0, 0, 95.36064147949219
147, 0, 0, 91.67052459716797
148, 0, 0, 91.27835083007812
149, 0, 0, 90.7244873046875
150, 0, 0, 93.41302490234375
151, 0, 0, 88.31500244140625
152, 0, 0, 88.22388458251953
153, 0, 0, 88.90655517578125
154, 0, 0, 88.48711395263672
155, 0, 0, 88.21107482910156
156, 0, 0, 87.04903411865234
157, 0, 0, 88.19390869140625
158, 0, 0, 86.32778167724609
159, 0, 0, 87.21335601806641
160, 0, 0, 83.61961364746094
161, 0, 0, 81.99185180664062
162, 0, 0, 84.07913970947266
163, 0, 0, 85.40975189208984
164, 0, 0, 80.35202789306641
165, 0, 0, 82.74654388427734
166, 0, 0, 81.02390289306641
167, 0, 0, 82.19184875488281
168, 0, 0, 79.10506439208984
169, 0, 0, 80.34120941162109
170, 0, 0, 79.09198760986328
171, 0, 0, 79.52470397949219
172, 0, 0, 78.35416412353516
173, 0, 0, 77.57649230957031
174, 0, 0, 77.8765869140625
175, 0, 0, 75.17079925537109
176, 0, 0, 77.53572845458984
177, 0, 0, 76.65481567382812
178, 0, 0, 76.71876525878906
179, 0, 0, 75.0928955078125
