# TOPAS Version: 3.3.p1
# Parameter File: Test.txt
# Results for scorer MLIC_Scorer
# Scored in component: MLIC
# X in 180 bins of 0.222222 cm
# Y in 1 bin  of 10 cm
# Z in 1 bin  of 10 cm
# EnergyDeposit ( MeV ) : Sum   
0, 0, 0, 0
1, 0, 0, 0
2, 0, 0, 0
3, 0, 0, 0
4, 0, 0, 0
5, 0, 0, 0
6, 0, 0, 0
7, 0, 0, 0
8, 0, 0, 0.05102251097559929
9, 0, 0, 0
10, 0, 0, 0
11, 0, 0, 0
12, 0, 0, 0
13, 0, 0, 0
14, 0, 0, 0
15, 0, 0, 0
16, 0, 0, 0
17, 0, 0, 0
18, 0, 0, 0
19, 0, 0, 0
20, 0, 0, 0
21, 0, 0, 0
22, 0, 0, 0
23, 0, 0, 0
24, 0, 0, 0
25, 0, 0, 0
26, 0, 0, 0
27, 0, 0, 0
28, 0, 0, 0
29, 0, 0, 0
30, 0, 0, 0
31, 0, 0, 0
32, 0, 0, 0
33, 0, 0, 0
34, 0, 0, 0
35, 0, 0, 0
36, 0, 0, 0
37, 0, 0, 0
38, 0, 0, 0
39, 0, 0, 0
40, 0, 0, 0
41, 0, 0, 19.34973526000977
42, 0, 0, 169.9207916259766
43, 0, 0, 831.5475463867188
44, 0, 0, 2078.259033203125
45, 0, 0, 4380.142578125
46, 0, 0, 5999.853515625
47, 0, 0, 6262.45849609375
48, 0, 0, 5464.39013671875
49, 0, 0, 4716.26416015625
50, 0, 0, 4090.721435546875
51, 0, 0, 3667.591796875
52, 0, 0, 3379.174560546875
53, 0, 0, 3157.27392578125
54, 0, 0, 2988.774658203125
55, 0, 0, 2827.649169921875
56, 0, 0, 2716.375732421875
57, 0, 0, 2585.725830078125
58, 0, 0, 2503.10888671875
59, 0, 0, 2421.8017578125
60, 0, 0, 2338.128173828125
61, 0, 0, 2283.790771484375
62, 0, 0, 2215.115966796875
63, 0, 0, 2157.58984375
64, 0, 0, 2096.87548828125
65, 0, 0, 2058.129150390625
66, 0, 0, 2014.219970703125
67, 0, 0, 1973.929931640625
68, 0, 0, 1939.509887695312
69, 0, 0, 1896.175903320312
70, 0, 0, 1874.31982421875
71, 0, 0, 1841.762573242188
72, 0, 0, 1809.655517578125
73, 0, 0, 1783.46923828125
74, 0, 0, 1759.97607421875
75, 0, 0, 1724.250366210938
76, 0, 0, 1701.155517578125
77, 0, 0, 1675.887573242188
78, 0, 0, 1662.58984375
79, 0, 0, 1642.463012695312
80, 0, 0, 1631.930541992188
81, 0, 0, 1605.819946289062
82, 0, 0, 1582.044555664062
83, 0, 0, 1570.17626953125
84, 0, 0, 1538.223510742188
85, 0, 0, 1526.566162109375
86, 0, 0, 1519.029907226562
87, 0, 0, 1502.299682617188
88, 0, 0, 1485.981323242188
89, 0, 0, 1467.798095703125
90, 0, 0, 1456.463745117188
91, 0, 0, 1448.723754882812
92, 0, 0, 1436.486694335938
93, 0, 0, 1410.044189453125
94, 0, 0, 1401.365478515625
95, 0, 0, 1396.585083007812
96, 0, 0, 1387.47412109375
97, 0, 0, 1369.569091796875
98, 0, 0, 1362.005981445312
99, 0, 0, 1349.208740234375
100, 0, 0, 1338.912719726562
101, 0, 0, 1329.425048828125
102, 0, 0, 1319.61865234375
103, 0, 0, 1314.052001953125
104, 0, 0, 1296.417358398438
105, 0, 0, 1296.770141601562
106, 0, 0, 1289.330322265625
107, 0, 0, 1274.813232421875
108, 0, 0, 1255.31884765625
109, 0, 0, 1256.432373046875
110, 0, 0, 1252.068481445312
111, 0, 0, 1248.4228515625
112, 0, 0, 1242.615234375
113, 0, 0, 1231.1044921875
114, 0, 0, 1221.259033203125
115, 0, 0, 1202.69580078125
116, 0, 0, 1203.312133789062
117, 0, 0, 1197.360961914062
118, 0, 0, 1199.192138671875
119, 0, 0, 1192.357177734375
120, 0, 0, 1185.315307617188
121, 0, 0, 1165.646728515625
122, 0, 0, 1163.08984375
123, 0, 0, 1158.29541015625
124, 0, 0, 1159.570678710938
125, 0, 0, 1150.218017578125
126, 0, 0, 1138.93017578125
127, 0, 0, 1147.491943359375
128, 0, 0, 1138.725463867188
129, 0, 0, 1130.481323242188
130, 0, 0, 1123.8642578125
131, 0, 0, 1126.18798828125
132, 0, 0, 1118.71142578125
133, 0, 0, 1101.275512695312
134, 0, 0, 1104.514038085938
135, 0, 0, 1103.61279296875
136, 0, 0, 1096.562744140625
137, 0, 0, 1082.84765625
138, 0, 0, 1093.770751953125
139, 0, 0, 1076.7822265625
140, 0, 0, 1067.319946289062
141, 0, 0, 1079.355102539062
142, 0, 0, 1068.972778320312
143, 0, 0, 1071.113647460938
144, 0, 0, 1065.686157226562
145, 0, 0, 1050.755859375
146, 0, 0, 1047.003051757812
147, 0, 0, 1051.279541015625
148, 0, 0, 1045.872802734375
149, 0, 0, 1038.457397460938
150, 0, 0, 1047.587158203125
151, 0, 0, 1035.219604492188
152, 0, 0, 1028.735473632812
153, 0, 0, 1025.662231445312
154, 0, 0, 1020.323974609375
155, 0, 0, 1019.019897460938
156, 0, 0, 1013.1123046875
157, 0, 0, 1016.410461425781
158, 0, 0, 1014.112182617188
159, 0, 0, 1008.154235839844
160, 0, 0, 995.1990966796875
161, 0, 0, 997.832275390625
162, 0, 0, 997.4530029296875
163, 0, 0, 991.6994018554688
164, 0, 0, 996.4380493164062
165, 0, 0, 989.1222534179688
166, 0, 0, 981.9937133789062
167, 0, 0, 981.6318969726562
168, 0, 0, 978.9825439453125
169, 0, 0, 972.1221313476562
170, 0, 0, 969.2434692382812
171, 0, 0, 967.1162719726562
172, 0, 0, 963.102783203125
173, 0, 0, 962.6986083984375
174, 0, 0, 958.0695190429688
175, 0, 0, 957.9075927734375
176, 0, 0, 954.1173095703125
177, 0, 0, 950.6015625
178, 0, 0, 944.6958618164062
179, 0, 0, 953.037841796875
