# TOPAS Version: 3.3.p1
# Parameter File: Test.txt
# Results for scorer MLIC_Scorer
# Scored in component: MLIC
# X in 180 bins of 0.183333 cm
# Y in 1 bin  of 10 cm
# Z in 1 bin  of 10 cm
# EnergyDeposit ( MeV ) : Sum   
0, 0, 0, 0
1, 0, 0, 0
2, 0, 0, 0
3, 0, 0, 0
4, 0, 0, 0
5, 0, 0, 0
6, 0, 0, 0
7, 0, 0, 0
8, 0, 0, 0
9, 0, 0, 0
10, 0, 0, 0
11, 0, 0, 0
12, 0, 0, 0
13, 0, 0, 0
14, 0, 0, 0
15, 0, 0, 0
16, 0, 0, 0
17, 0, 0, 0
18, 0, 0, 0
19, 0, 0, 0
20, 0, 0, 0
21, 0, 0, 0
22, 0, 0, 0
23, 0, 0, 0
24, 0, 0, 0
25, 0, 0, 0
26, 0, 0, 0
27, 0, 0, 0
28, 0, 0, 0
29, 0, 0, 0
30, 0, 0, 0
31, 0, 0, 0
32, 0, 0, 0
33, 0, 0, 0
34, 0, 0, 0
35, 0, 0, 0
36, 0, 0, 0
37, 0, 0, 0
38, 0, 0, 0
39, 0, 0, 0
40, 0, 0, 0
41, 0, 0, 0
42, 0, 0, 0
43, 0, 0, 0
44, 0, 0, 0
45, 0, 0, 0
46, 0, 0, 0
47, 0, 0, 0
48, 0, 0, 0
49, 0, 0, 0
50, 0, 0, 0
51, 0, 0, 0
52, 0, 0, 0
53, 0, 0, 0
54, 0, 0, 0
55, 0, 0, 0
56, 0, 0, 0
57, 0, 0, 0
58, 0, 0, 0
59, 0, 0, 0
60, 0, 0, 0
61, 0, 0, 0
62, 0, 0, 0
63, 0, 0, 7.04155445098877
64, 0, 0, 63.28673934936523
65, 0, 0, 246.952880859375
66, 0, 0, 590.14697265625
67, 0, 0, 1621.307250976562
68, 0, 0, 3120.16357421875
69, 0, 0, 4316.03369140625
70, 0, 0, 5099.80322265625
71, 0, 0, 4963.03173828125
72, 0, 0, 4598.693359375
73, 0, 0, 3975.045654296875
74, 0, 0, 3558.038818359375
75, 0, 0, 3213.10302734375
76, 0, 0, 2961.4853515625
77, 0, 0, 2783.99560546875
78, 0, 0, 2623.603515625
79, 0, 0, 2500.272216796875
80, 0, 0, 2391.571044921875
81, 0, 0, 2295.31396484375
82, 0, 0, 2213.46435546875
83, 0, 0, 2142.816162109375
84, 0, 0, 2079.84765625
85, 0, 0, 2023.305541992188
86, 0, 0, 1964.742065429688
87, 0, 0, 1923.917602539062
88, 0, 0, 1875.612548828125
89, 0, 0, 1834.065307617188
90, 0, 0, 1791.797485351562
91, 0, 0, 1757.320678710938
92, 0, 0, 1723.311279296875
93, 0, 0, 1688.012084960938
94, 0, 0, 1660.20849609375
95, 0, 0, 1626.741455078125
96, 0, 0, 1609.379028320312
97, 0, 0, 1584.929931640625
98, 0, 0, 1553.84130859375
99, 0, 0, 1535.363525390625
100, 0, 0, 1512.516845703125
101, 0, 0, 1499.263671875
102, 0, 0, 1481.471313476562
103, 0, 0, 1457.801879882812
104, 0, 0, 1439.714477539062
105, 0, 0, 1421.447143554688
106, 0, 0, 1402.473876953125
107, 0, 0, 1388.219848632812
108, 0, 0, 1377.98583984375
109, 0, 0, 1359.679931640625
110, 0, 0, 1345.734375
111, 0, 0, 1336.825073242188
112, 0, 0, 1314.49267578125
113, 0, 0, 1304.435668945312
114, 0, 0, 1295.018676757812
115, 0, 0, 1285.432250976562
116, 0, 0, 1274.131225585938
117, 0, 0, 1258.543212890625
118, 0, 0, 1247.766235351562
119, 0, 0, 1241.131469726562
120, 0, 0, 1226.889770507812
121, 0, 0, 1222.128295898438
122, 0, 0, 1207.25634765625
123, 0, 0, 1200.705200195312
124, 0, 0, 1192.45654296875
125, 0, 0, 1181.172119140625
126, 0, 0, 1174.369506835938
127, 0, 0, 1167.705444335938
128, 0, 0, 1157.320190429688
129, 0, 0, 1152.481201171875
130, 0, 0, 1141.2275390625
131, 0, 0, 1135.589965820312
132, 0, 0, 1129.948852539062
133, 0, 0, 1120.205932617188
134, 0, 0, 1112.307250976562
135, 0, 0, 1110.312866210938
136, 0, 0, 1100.858764648438
137, 0, 0, 1092.174560546875
138, 0, 0, 1092.105102539062
139, 0, 0, 1072.16259765625
140, 0, 0, 1065.888916015625
141, 0, 0, 1067.214721679688
142, 0, 0, 1065.279052734375
143, 0, 0, 1056.211303710938
144, 0, 0, 1049.107055664062
145, 0, 0, 1039.92041015625
146, 0, 0, 1043.367553710938
147, 0, 0, 1034.969970703125
148, 0, 0, 1030.169921875
149, 0, 0, 1023.450256347656
150, 0, 0, 1025.689697265625
151, 0, 0, 1011.490295410156
152, 0, 0, 1001.614074707031
153, 0, 0, 1007.540283203125
154, 0, 0, 1002.145446777344
155, 0, 0, 993.1207885742188
156, 0, 0, 988.9388427734375
157, 0, 0, 991.6788940429688
158, 0, 0, 979.5971069335938
159, 0, 0, 979.839111328125
160, 0, 0, 971.7608642578125
161, 0, 0, 967.2178344726562
162, 0, 0, 963.67578125
163, 0, 0, 955.9779052734375
164, 0, 0, 959.1483154296875
165, 0, 0, 955.70751953125
166, 0, 0, 947.3494873046875
167, 0, 0, 945.9486694335938
168, 0, 0, 945.5723266601562
169, 0, 0, 934.0639038085938
170, 0, 0, 932.8346557617188
171, 0, 0, 930.9146728515625
172, 0, 0, 920.7947998046875
173, 0, 0, 931.218017578125
174, 0, 0, 928.575927734375
175, 0, 0, 915.3244018554688
176, 0, 0, 912.46826171875
177, 0, 0, 905.3023071289062
178, 0, 0, 912.6509399414062
179, 0, 0, 900.2547607421875
