# TOPAS Version: 3.3.p1
# Parameter File: Test.txt
# Results for scorer MLIC_Scorer
# Scored in component: MLIC
# X in 180 bins of 0.177778 cm
# Y in 1 bin  of 10 cm
# Z in 1 bin  of 10 cm
# EnergyDeposit ( MeV ) : Sum   
0, 0, 0, 0
1, 0, 0, 0
2, 0, 0, 0
3, 0, 0, 0
4, 0, 0, 0
5, 0, 0, 0
6, 0, 0, 0
7, 0, 0, 0
8, 0, 0, 0
9, 0, 0, 0
10, 0, 0, 0
11, 0, 0, 0
12, 0, 0, 0
13, 0, 0, 0
14, 0, 0, 0
15, 0, 0, 0
16, 0, 0, 0
17, 0, 0, 0
18, 0, 0, 0
19, 0, 0, 0
20, 0, 0, 0
21, 0, 0, 0
22, 0, 0, 0
23, 0, 0, 0
24, 0, 0, 0
25, 0, 0, 0
26, 0, 0, 0
27, 0, 0, 0
28, 0, 0, 0
29, 0, 0, 0
30, 0, 0, 0
31, 0, 0, 0
32, 0, 0, 0
33, 0, 0, 0
34, 0, 0, 0
35, 0, 0, 0
36, 0, 0, 0
37, 0, 0, 0
38, 0, 0, 0
39, 0, 0, 0
40, 0, 0, 0
41, 0, 0, 0
42, 0, 0, 0
43, 0, 0, 0
44, 0, 0, 0
45, 0, 0, 0
46, 0, 0, 0
47, 0, 0, 0
48, 0, 0, 0
49, 0, 0, 0
50, 0, 0, 0
51, 0, 0, 0
52, 0, 0, 0
53, 0, 0, 0
54, 0, 0, 0
55, 0, 0, 0
56, 0, 0, 0
57, 0, 0, 0
58, 0, 0, 0
59, 0, 0, 0
60, 0, 0, 0
61, 0, 0, 0
62, 0, 0, 0
63, 0, 0, 0
64, 0, 0, 0
65, 0, 0, 0
66, 0, 0, 0
67, 0, 0, 0
68, 0, 0, 0
69, 0, 0, 0
70, 0, 0, 0
71, 0, 0, 0
72, 0, 0, 0
73, 0, 0, 0
74, 0, 0, 0
75, 0, 0, 0
76, 0, 0, 0
77, 0, 0, 0
78, 0, 0, 0
79, 0, 0, 0
80, 0, 0, 0
81, 0, 0, 0.03562447428703308
82, 0, 0, 0
83, 0, 0, 10.08813762664795
84, 0, 0, 6.455187797546387
85, 0, 0, 33.32797241210938
86, 0, 0, 330.2007751464844
87, 0, 0, 1129.849365234375
88, 0, 0, 2328.31591796875
89, 0, 0, 3863.15673828125
90, 0, 0, 4893.396484375
91, 0, 0, 5064.60546875
92, 0, 0, 4708.8603515625
93, 0, 0, 4142.5908203125
94, 0, 0, 3657.53759765625
95, 0, 0, 3279.099853515625
96, 0, 0, 2997.060302734375
97, 0, 0, 2794.4833984375
98, 0, 0, 2631.7294921875
99, 0, 0, 2505.992431640625
100, 0, 0, 2389.930908203125
101, 0, 0, 2296.552490234375
102, 0, 0, 2211.9208984375
103, 0, 0, 2130.887451171875
104, 0, 0, 2064.08984375
105, 0, 0, 2009.60791015625
106, 0, 0, 1950.71435546875
107, 0, 0, 1899.692626953125
108, 0, 0, 1851.632446289062
109, 0, 0, 1810.901977539062
110, 0, 0, 1786.19580078125
111, 0, 0, 1739.645874023438
112, 0, 0, 1706.07470703125
113, 0, 0, 1677.113647460938
114, 0, 0, 1650.101684570312
115, 0, 0, 1619.329956054688
116, 0, 0, 1591.626953125
117, 0, 0, 1571.862426757812
118, 0, 0, 1540.8935546875
119, 0, 0, 1518.331665039062
120, 0, 0, 1491.76025390625
121, 0, 0, 1485.165405273438
122, 0, 0, 1448.986572265625
123, 0, 0, 1437.104370117188
124, 0, 0, 1424.016235351562
125, 0, 0, 1398.97900390625
126, 0, 0, 1388.426147460938
127, 0, 0, 1374.264892578125
128, 0, 0, 1355.235595703125
129, 0, 0, 1346.00830078125
130, 0, 0, 1327.59033203125
131, 0, 0, 1324.039672851562
132, 0, 0, 1300.832153320312
133, 0, 0, 1287.770874023438
134, 0, 0, 1278.338989257812
135, 0, 0, 1261.662353515625
136, 0, 0, 1246.726928710938
137, 0, 0, 1247.127685546875
138, 0, 0, 1225.925903320312
139, 0, 0, 1218.265991210938
140, 0, 0, 1212.477661132812
141, 0, 0, 1198.661499023438
142, 0, 0, 1193.051391601562
143, 0, 0, 1175.868286132812
144, 0, 0, 1178.189697265625
145, 0, 0, 1169.27734375
146, 0, 0, 1153.099853515625
147, 0, 0, 1150.546752929688
148, 0, 0, 1133.887084960938
149, 0, 0, 1135.280883789062
150, 0, 0, 1119.970336914062
151, 0, 0, 1118.996459960938
152, 0, 0, 1110.86328125
153, 0, 0, 1097.423461914062
154, 0, 0, 1089.348388671875
155, 0, 0, 1088.0546875
156, 0, 0, 1085.861938476562
157, 0, 0, 1079.851928710938
158, 0, 0, 1078.465209960938
159, 0, 0, 1060.879028320312
160, 0, 0, 1062.318969726562
161, 0, 0, 1052.795532226562
162, 0, 0, 1048.67724609375
163, 0, 0, 1035.139526367188
164, 0, 0, 1028.71435546875
165, 0, 0, 1032.438842773438
166, 0, 0, 1030.79833984375
167, 0, 0, 1014.668884277344
168, 0, 0, 1015.846374511719
169, 0, 0, 1009.50537109375
170, 0, 0, 1001.136108398438
171, 0, 0, 993.3070678710938
172, 0, 0, 993.3202514648438
173, 0, 0, 982.8438110351562
174, 0, 0, 988.8526611328125
175, 0, 0, 976.7762451171875
176, 0, 0, 973.0317993164062
177, 0, 0, 964.7061767578125
178, 0, 0, 965.8348999023438
179, 0, 0, 958.6796875
