# TOPAS Version: 3.3.p1
# Parameter File: Test.txt
# Results for scorer MLIC_Scorer
# Scored in component: MLIC
# X in 180 bins of 0.183333 cm
# Y in 1 bin  of 10 cm
# Z in 1 bin  of 10 cm
# EnergyDeposit ( MeV ) : Sum   
0, 0, 0, 0
1, 0, 0, 0
2, 0, 0, 0
3, 0, 0, 0
4, 0, 0, 0
5, 0, 0, 0
6, 0, 0, 0
7, 0, 0, 0
8, 0, 0, 0
9, 0, 0, 0
10, 0, 0, 0
11, 0, 0, 0
12, 0, 0, 0
13, 0, 0, 0
14, 0, 0, 0
15, 0, 0, 0
16, 0, 0, 0
17, 0, 0, 0
18, 0, 0, 0
19, 0, 0, 0
20, 0, 0, 0
21, 0, 0, 0
22, 0, 0, 0
23, 0, 0, 0
24, 0, 0, 0
25, 0, 0, 0.02967524155974388
26, 0, 0, 0
27, 0, 0, 0
28, 0, 0, 0
29, 0, 0, 0
30, 0, 0, 0
31, 0, 0, 0
32, 0, 0, 0
33, 0, 0, 0
34, 0, 0, 0
35, 0, 0, 0
36, 0, 0, 0
37, 0, 0, 9.38740062713623
38, 0, 0, 44.40742492675781
39, 0, 0, 266.5502014160156
40, 0, 0, 882.744873046875
41, 0, 0, 1954.862915039062
42, 0, 0, 3341.408203125
43, 0, 0, 4727.9189453125
44, 0, 0, 5196.83251953125
45, 0, 0, 4950.3720703125
46, 0, 0, 4494.72216796875
47, 0, 0, 3832.235595703125
48, 0, 0, 3420.434814453125
49, 0, 0, 3124.6455078125
50, 0, 0, 2896.689208984375
51, 0, 0, 2729.08447265625
52, 0, 0, 2582.91259765625
53, 0, 0, 2460.4384765625
54, 0, 0, 2357.578125
55, 0, 0, 2279.503662109375
56, 0, 0, 2196.2509765625
57, 0, 0, 2118.85009765625
58, 0, 0, 2063.434814453125
59, 0, 0, 1997.513671875
60, 0, 0, 1946.726440429688
61, 0, 0, 1900.4638671875
62, 0, 0, 1856.117797851562
63, 0, 0, 1821.455322265625
64, 0, 0, 1787.709716796875
65, 0, 0, 1739.27685546875
66, 0, 0, 1719.927734375
67, 0, 0, 1682.140258789062
68, 0, 0, 1649.420166015625
69, 0, 0, 1618.923583984375
70, 0, 0, 1601.429931640625
71, 0, 0, 1570.57275390625
72, 0, 0, 1547.908325195312
73, 0, 0, 1539.773803710938
74, 0, 0, 1512.848876953125
75, 0, 0, 1488.557373046875
76, 0, 0, 1463.139404296875
77, 0, 0, 1454.855590820312
78, 0, 0, 1437.460083007812
79, 0, 0, 1415.468872070312
80, 0, 0, 1398.645629882812
81, 0, 0, 1383.564697265625
82, 0, 0, 1369.863037109375
83, 0, 0, 1359.926635742188
84, 0, 0, 1345.585693359375
85, 0, 0, 1329.36328125
86, 0, 0, 1320.763427734375
87, 0, 0, 1304.874267578125
88, 0, 0, 1297.054077148438
89, 0, 0, 1282.943481445312
90, 0, 0, 1272.333618164062
91, 0, 0, 1257.767822265625
92, 0, 0, 1244.07080078125
93, 0, 0, 1239.288330078125
94, 0, 0, 1221.849365234375
95, 0, 0, 1214.511962890625
96, 0, 0, 1203.21142578125
97, 0, 0, 1201.402709960938
98, 0, 0, 1193.132934570312
99, 0, 0, 1183.955322265625
100, 0, 0, 1161.244873046875
101, 0, 0, 1160.87939453125
102, 0, 0, 1155.679809570312
103, 0, 0, 1153.703002929688
104, 0, 0, 1136.025634765625
105, 0, 0, 1130.5283203125
106, 0, 0, 1118.2333984375
107, 0, 0, 1119.188110351562
108, 0, 0, 1110.593994140625
109, 0, 0, 1102.591674804688
110, 0, 0, 1094.682495117188
111, 0, 0, 1090.156494140625
112, 0, 0, 1083.579956054688
113, 0, 0, 1073.90771484375
114, 0, 0, 1070.425415039062
115, 0, 0, 1069.767700195312
116, 0, 0, 1052.751220703125
117, 0, 0, 1057.163940429688
118, 0, 0, 1051.31201171875
119, 0, 0, 1037.746704101562
120, 0, 0, 1037.74755859375
121, 0, 0, 1035.243286132812
122, 0, 0, 1033.889770507812
123, 0, 0, 1015.252868652344
124, 0, 0, 1018.920959472656
125, 0, 0, 1011.962585449219
126, 0, 0, 1004.857360839844
127, 0, 0, 1007.196716308594
128, 0, 0, 987.2470092773438
129, 0, 0, 988.5465698242188
130, 0, 0, 989.2392578125
131, 0, 0, 990.653076171875
132, 0, 0, 973.5712890625
133, 0, 0, 974.4811401367188
134, 0, 0, 977.1473388671875
135, 0, 0, 973.0048217773438
136, 0, 0, 955.2588500976562
137, 0, 0, 961.224365234375
138, 0, 0, 954.63232421875
139, 0, 0, 950.6272583007812
140, 0, 0, 946.4163818359375
141, 0, 0, 948.46142578125
142, 0, 0, 941.6950073242188
143, 0, 0, 934.8964233398438
144, 0, 0, 938.0823974609375
145, 0, 0, 924.787841796875
146, 0, 0, 925.4171142578125
147, 0, 0, 922.1431274414062
148, 0, 0, 919.0891723632812
149, 0, 0, 918.116943359375
150, 0, 0, 913.0701904296875
151, 0, 0, 902.5409545898438
152, 0, 0, 906.9698486328125
153, 0, 0, 901.260498046875
154, 0, 0, 904.58154296875
155, 0, 0, 891.2055053710938
156, 0, 0, 891.6486206054688
157, 0, 0, 885.0578002929688
158, 0, 0, 889.9452514648438
159, 0, 0, 875.9025268554688
160, 0, 0, 878.3643798828125
161, 0, 0, 877.5240478515625
162, 0, 0, 880.5762329101562
163, 0, 0, 878.0527954101562
164, 0, 0, 873.6561279296875
165, 0, 0, 865.4417724609375
166, 0, 0, 866.280029296875
167, 0, 0, 861.9597778320312
168, 0, 0, 858.4825439453125
169, 0, 0, 852.5036010742188
170, 0, 0, 848.8718872070312
171, 0, 0, 852.4392700195312
172, 0, 0, 843.58984375
173, 0, 0, 844.6914672851562
174, 0, 0, 845.9638061523438
175, 0, 0, 843.75341796875
176, 0, 0, 836.5177001953125
177, 0, 0, 835.3031005859375
178, 0, 0, 842.7902221679688
179, 0, 0, 835.1307373046875
