# TOPAS Version: 3.3.p1
# Parameter File: Test.txt
# Results for scorer MLIC_Scorer
# Scored in component: MLIC
# X in 180 bins of 0.183333 cm
# Y in 1 bin  of 10 cm
# Z in 1 bin  of 10 cm
# EnergyDeposit ( MeV ) : Sum   
0, 0, 0, 0
1, 0, 0, 0
2, 0, 0, 0
3, 0, 0, 0
4, 0, 0, 0
5, 0, 0, 0
6, 0, 0, 0
7, 0, 0, 0
8, 0, 0, 0
9, 0, 0, 0
10, 0, 0, 0
11, 0, 0, 0
12, 0, 0, 0
13, 0, 0, 0
14, 0, 0, 0
15, 0, 0, 0
16, 0, 0, 0
17, 0, 0, 0
18, 0, 0, 0
19, 0, 0, 0
20, 0, 0, 0
21, 0, 0, 0
22, 0, 0, 0
23, 0, 0, 0
24, 0, 0, 0
25, 0, 0, 0
26, 0, 0, 0
27, 0, 0, 0
28, 0, 0, 0
29, 0, 0, 0
30, 0, 0, 0
31, 0, 0, 0
32, 0, 0, 0
33, 0, 0, 0
34, 0, 0, 0
35, 0, 0, 0
36, 0, 0, 0
37, 0, 0, 0
38, 0, 0, 0
39, 0, 0, 0
40, 0, 0, 0
41, 0, 0, 0
42, 0, 0, 0
43, 0, 0, 0
44, 0, 0, 0
45, 0, 0, 0
46, 0, 0, 0
47, 0, 0, 0
48, 0, 0, 0
49, 0, 0, 0
50, 0, 0, 0
51, 0, 0, 0
52, 0, 0, 0
53, 0, 0, 0
54, 0, 0, 0
55, 0, 0, 0
56, 0, 0, 0
57, 0, 0, 0
58, 0, 0, 0
59, 0, 0, 0
60, 0, 0, 0
61, 0, 0, 0
62, 0, 0, 0
63, 0, 0, 0
64, 0, 0, 0
65, 0, 0, 0
66, 0, 0, 0
67, 0, 0, 0
68, 0, 0, 0
69, 0, 0, 0
70, 0, 0, 0
71, 0, 0, 0
72, 0, 0, 0
73, 0, 0, 0
74, 0, 0, 0
75, 0, 0, 0
76, 0, 0, 0
77, 0, 0, 0
78, 0, 0, 0
79, 0, 0, 0
80, 0, 0, 0
81, 0, 0, 0
82, 0, 0, 0
83, 0, 0, 0
84, 0, 0, 0
85, 0, 0, 0
86, 0, 0, 0
87, 0, 0, 0
88, 0, 0, 0.006747086998075247
89, 0, 0, 0
90, 0, 0, 0
91, 0, 0, 0
92, 0, 0, 0
93, 0, 0, 0
94, 0, 0, 3.989244222640991
95, 0, 0, 37.2076530456543
96, 0, 0, 302.4985656738281
97, 0, 0, 949.377197265625
98, 0, 0, 2230.658447265625
99, 0, 0, 3692.396484375
100, 0, 0, 4815.263671875
101, 0, 0, 5391.91845703125
102, 0, 0, 4958.48193359375
103, 0, 0, 4275.259765625
104, 0, 0, 3756.44287109375
105, 0, 0, 3342.546875
106, 0, 0, 3068.582763671875
107, 0, 0, 2861.228271484375
108, 0, 0, 2695.36328125
109, 0, 0, 2559.34521484375
110, 0, 0, 2440.284912109375
111, 0, 0, 2342.989013671875
112, 0, 0, 2256.537353515625
113, 0, 0, 2174.44482421875
114, 0, 0, 2113.891845703125
115, 0, 0, 2049.028076171875
116, 0, 0, 1989.4833984375
117, 0, 0, 1943.641723632812
118, 0, 0, 1892.213012695312
119, 0, 0, 1850.548461914062
120, 0, 0, 1815.4873046875
121, 0, 0, 1778.576782226562
122, 0, 0, 1738.901245117188
123, 0, 0, 1710.781127929688
124, 0, 0, 1673.180419921875
125, 0, 0, 1650.913330078125
126, 0, 0, 1619.41015625
127, 0, 0, 1591.355346679688
128, 0, 0, 1564.438720703125
129, 0, 0, 1549.359008789062
130, 0, 0, 1531.137939453125
131, 0, 0, 1503.822875976562
132, 0, 0, 1484.790161132812
133, 0, 0, 1466.640747070312
134, 0, 0, 1454.287719726562
135, 0, 0, 1427.65576171875
136, 0, 0, 1415.316040039062
137, 0, 0, 1402.349975585938
138, 0, 0, 1386.346801757812
139, 0, 0, 1370.637817382812
140, 0, 0, 1346.813720703125
141, 0, 0, 1342.210205078125
142, 0, 0, 1329.119506835938
143, 0, 0, 1307.858154296875
144, 0, 0, 1295.660888671875
145, 0, 0, 1290.275146484375
146, 0, 0, 1276.758422851562
147, 0, 0, 1262.411865234375
148, 0, 0, 1257.147827148438
149, 0, 0, 1242.30859375
150, 0, 0, 1238.783935546875
151, 0, 0, 1226.7607421875
152, 0, 0, 1208.55615234375
153, 0, 0, 1201.4580078125
154, 0, 0, 1195.386596679688
155, 0, 0, 1201.47705078125
156, 0, 0, 1175.747192382812
157, 0, 0, 1167.2080078125
158, 0, 0, 1162.49462890625
159, 0, 0, 1151.784545898438
160, 0, 0, 1148.581298828125
161, 0, 0, 1134.8291015625
162, 0, 0, 1133.28759765625
163, 0, 0, 1121.706665039062
164, 0, 0, 1116.9365234375
165, 0, 0, 1115.93017578125
166, 0, 0, 1102.9619140625
167, 0, 0, 1093.997436523438
168, 0, 0, 1086.250244140625
169, 0, 0, 1087.969116210938
170, 0, 0, 1079.336303710938
171, 0, 0, 1068.457641601562
172, 0, 0, 1062.606811523438
173, 0, 0, 1060.052734375
174, 0, 0, 1052.433837890625
175, 0, 0, 1044.617553710938
176, 0, 0, 1037.95751953125
177, 0, 0, 1038.964599609375
178, 0, 0, 1029.513427734375
179, 0, 0, 1022.391540527344
