# TOPAS Version: 3.3.p1
# Parameter File: Test.txt
# Results for scorer MLIC_Scorer
# Scored in component: MLIC
# X in 180 bins of 0.183333 cm
# Y in 1 bin  of 10 cm
# Z in 1 bin  of 10 cm
# EnergyDeposit ( MeV ) : Sum   
0, 0, 0, 0
1, 0, 0, 0
2, 0, 0, 0
3, 0, 0, 0
4, 0, 0, 0
5, 0, 0, 0
6, 0, 0, 0
7, 0, 0, 0
8, 0, 0, 0
9, 0, 0, 0
10, 0, 0, 0
11, 0, 0, 0
12, 0, 0, 0
13, 0, 0, 0
14, 0, 0, 0
15, 0, 0, 0
16, 0, 0, 0
17, 0, 0, 0
18, 0, 0, 0
19, 0, 0, 0
20, 0, 0, 0
21, 0, 0, 0
22, 0, 0, 0
23, 0, 0, 0
24, 0, 0, 0
25, 0, 0, 0
26, 0, 0, 0
27, 0, 0, 0
28, 0, 0, 0
29, 0, 0, 0
30, 0, 0, 0
31, 0, 0, 0
32, 0, 0, 0
33, 0, 0, 0
34, 0, 0, 0
35, 0, 0, 0
36, 0, 0, 0
37, 0, 0, 0
38, 0, 0, 0
39, 0, 0, 0
40, 0, 0, 0
41, 0, 0, 0
42, 0, 0, 0
43, 0, 0, 0
44, 0, 0, 0
45, 0, 0, 0
46, 0, 0, 0
47, 0, 0, 0
48, 0, 0, 0
49, 0, 0, 0
50, 0, 0, 0
51, 0, 0, 0
52, 0, 0, 0
53, 0, 0, 0
54, 0, 0, 0
55, 0, 0, 0
56, 0, 0, 0.003746332135051489
57, 0, 0, 31.8425407409668
58, 0, 0, 104.9212112426758
59, 0, 0, 474.3446350097656
60, 0, 0, 1039.131469726562
61, 0, 0, 2376.081787109375
62, 0, 0, 3898.27978515625
63, 0, 0, 4973.34619140625
64, 0, 0, 5152.181640625
65, 0, 0, 4779.22607421875
66, 0, 0, 4210.47265625
67, 0, 0, 3694.000732421875
68, 0, 0, 3339.466552734375
69, 0, 0, 3057.75439453125
70, 0, 0, 2845.216064453125
71, 0, 0, 2684.19384765625
72, 0, 0, 2550.65185546875
73, 0, 0, 2428.87646484375
74, 0, 0, 2330.8447265625
75, 0, 0, 2244.7763671875
76, 0, 0, 2170.358154296875
77, 0, 0, 2108.490234375
78, 0, 0, 2042.687255859375
79, 0, 0, 1982.166625976562
80, 0, 0, 1938.891845703125
81, 0, 0, 1898.728515625
82, 0, 0, 1848.170288085938
83, 0, 0, 1808.30029296875
84, 0, 0, 1762.419067382812
85, 0, 0, 1734.506225585938
86, 0, 0, 1705.713500976562
87, 0, 0, 1671.146850585938
88, 0, 0, 1644.57958984375
89, 0, 0, 1617.76904296875
90, 0, 0, 1593.438110351562
91, 0, 0, 1563.399536132812
92, 0, 0, 1546.386108398438
93, 0, 0, 1527.760864257812
94, 0, 0, 1502.639770507812
95, 0, 0, 1483.101684570312
96, 0, 0, 1451.819702148438
97, 0, 0, 1442.815795898438
98, 0, 0, 1426.412231445312
99, 0, 0, 1410.693725585938
100, 0, 0, 1394.535766601562
101, 0, 0, 1388.469604492188
102, 0, 0, 1366.680053710938
103, 0, 0, 1351.285278320312
104, 0, 0, 1338.508544921875
105, 0, 0, 1326.3154296875
106, 0, 0, 1310.9228515625
107, 0, 0, 1302.699462890625
108, 0, 0, 1286.4150390625
109, 0, 0, 1267.934204101562
110, 0, 0, 1266.55517578125
111, 0, 0, 1255.279418945312
112, 0, 0, 1242.182983398438
113, 0, 0, 1238.193115234375
114, 0, 0, 1223.064331054688
115, 0, 0, 1213.369995117188
116, 0, 0, 1208.037353515625
117, 0, 0, 1187.469360351562
118, 0, 0, 1186.727294921875
119, 0, 0, 1174.871459960938
120, 0, 0, 1170.463134765625
121, 0, 0, 1166.031860351562
122, 0, 0, 1154.246704101562
123, 0, 0, 1141.57763671875
124, 0, 0, 1133.605834960938
125, 0, 0, 1133.062866210938
126, 0, 0, 1125.599853515625
127, 0, 0, 1115.031494140625
128, 0, 0, 1111.351196289062
129, 0, 0, 1103.019897460938
130, 0, 0, 1101.342407226562
131, 0, 0, 1088.586669921875
132, 0, 0, 1080.969360351562
133, 0, 0, 1076.848266601562
134, 0, 0, 1065.957397460938
135, 0, 0, 1061.800903320312
136, 0, 0, 1055.50341796875
137, 0, 0, 1048.043090820312
138, 0, 0, 1046.469116210938
139, 0, 0, 1043.518920898438
140, 0, 0, 1032.508056640625
141, 0, 0, 1029.22216796875
142, 0, 0, 1023.492248535156
143, 0, 0, 1027.26513671875
144, 0, 0, 1019.78564453125
145, 0, 0, 1011.904418945312
146, 0, 0, 1012.711975097656
147, 0, 0, 998.9491577148438
148, 0, 0, 992.3519897460938
149, 0, 0, 993.0918579101562
150, 0, 0, 990.1969604492188
151, 0, 0, 981.9389038085938
152, 0, 0, 980.1232299804688
153, 0, 0, 981.1438598632812
154, 0, 0, 968.5083618164062
155, 0, 0, 974.2822875976562
156, 0, 0, 964.2569580078125
157, 0, 0, 958.7091064453125
158, 0, 0, 954.9224243164062
159, 0, 0, 949.938720703125
160, 0, 0, 949.3939819335938
161, 0, 0, 944.3827514648438
162, 0, 0, 936.5260620117188
163, 0, 0, 925.8233032226562
164, 0, 0, 932.2135009765625
165, 0, 0, 923.9441528320312
166, 0, 0, 926.03369140625
167, 0, 0, 920.4420776367188
168, 0, 0, 918.798583984375
169, 0, 0, 921.2431030273438
170, 0, 0, 911.14208984375
171, 0, 0, 914.1803588867188
172, 0, 0, 904.1166381835938
173, 0, 0, 898.5855102539062
174, 0, 0, 901.2318115234375
175, 0, 0, 898.0792846679688
176, 0, 0, 890.337890625
177, 0, 0, 891.5308227539062
178, 0, 0, 886.3248291015625
179, 0, 0, 892.0164794921875
