# TOPAS Version: 3.3.p1
# Parameter File: Test.txt
# Results for scorer MLIC_Scorer
# Scored in component: MLIC
# X in 180 bins of 0.177778 cm
# Y in 1 bin  of 10 cm
# Z in 1 bin  of 10 cm
# EnergyDeposit ( MeV ) : Sum   
0, 0, 0, 0
1, 0, 0, 0
2, 0, 0, 0
3, 0, 0, 0
4, 0, 0, 0
5, 0, 0, 0
6, 0, 0, 0
7, 0, 0, 0
8, 0, 0, 0
9, 0, 0, 0
10, 0, 0, 0
11, 0, 0, 0
12, 0, 0, 0
13, 0, 0, 0
14, 0, 0, 0
15, 0, 0, 0
16, 0, 0, 0
17, 0, 0, 0
18, 0, 0, 0
19, 0, 0, 0
20, 0, 0, 0
21, 0, 0, 0
22, 0, 0, 0
23, 0, 0, 0
24, 0, 0, 0
25, 0, 0, 0
26, 0, 0, 0
27, 0, 0, 0
28, 0, 0, 0
29, 0, 0, 0
30, 0, 0, 0
31, 0, 0, 0
32, 0, 0, 0
33, 0, 0, 0.01663904637098312
34, 0, 0, 0
35, 0, 0, 0
36, 0, 0, 0
37, 0, 0, 11.70347595214844
38, 0, 0, 17.33241081237793
39, 0, 0, 124.5394973754883
40, 0, 0, 495.8866882324219
41, 0, 0, 1233.82958984375
42, 0, 0, 2560.640380859375
43, 0, 0, 3707.730224609375
44, 0, 0, 4810.20751953125
45, 0, 0, 5012.88037109375
46, 0, 0, 4635.3466796875
47, 0, 0, 4101.490234375
48, 0, 0, 3660.51025390625
49, 0, 0, 3273.405517578125
50, 0, 0, 2985.957275390625
51, 0, 0, 2785.35546875
52, 0, 0, 2623.94091796875
53, 0, 0, 2491.142578125
54, 0, 0, 2379.122314453125
55, 0, 0, 2288.637939453125
56, 0, 0, 2199.579833984375
57, 0, 0, 2125.59228515625
58, 0, 0, 2059.437744140625
59, 0, 0, 2005.34814453125
60, 0, 0, 1957.1142578125
61, 0, 0, 1904.775390625
62, 0, 0, 1852.164428710938
63, 0, 0, 1815.280395507812
64, 0, 0, 1781.78955078125
65, 0, 0, 1739.054931640625
66, 0, 0, 1705.4189453125
67, 0, 0, 1675.52685546875
68, 0, 0, 1645.007690429688
69, 0, 0, 1610.586791992188
70, 0, 0, 1591.180541992188
71, 0, 0, 1561.48486328125
72, 0, 0, 1542.683959960938
73, 0, 0, 1517.754150390625
74, 0, 0, 1492.65625
75, 0, 0, 1476.498657226562
76, 0, 0, 1453.8203125
77, 0, 0, 1449.836791992188
78, 0, 0, 1420.782470703125
79, 0, 0, 1405.07373046875
80, 0, 0, 1389.868530273438
81, 0, 0, 1369.130737304688
82, 0, 0, 1359.424194335938
83, 0, 0, 1343.302734375
84, 0, 0, 1331.28466796875
85, 0, 0, 1318.641357421875
86, 0, 0, 1303.481079101562
87, 0, 0, 1291.342041015625
88, 0, 0, 1275.854370117188
89, 0, 0, 1258.601196289062
90, 0, 0, 1250.704467773438
91, 0, 0, 1241.958862304688
92, 0, 0, 1230.313720703125
93, 0, 0, 1217.811889648438
94, 0, 0, 1205.507690429688
95, 0, 0, 1201.4912109375
96, 0, 0, 1192.1103515625
97, 0, 0, 1186.815307617188
98, 0, 0, 1176.030029296875
99, 0, 0, 1168.494873046875
100, 0, 0, 1159.858032226562
101, 0, 0, 1148.060913085938
102, 0, 0, 1137.840087890625
103, 0, 0, 1128.987426757812
104, 0, 0, 1125.522827148438
105, 0, 0, 1118.889282226562
106, 0, 0, 1114.568237304688
107, 0, 0, 1102.015869140625
108, 0, 0, 1089.509887695312
109, 0, 0, 1085.444580078125
110, 0, 0, 1083.585815429688
111, 0, 0, 1072.02587890625
112, 0, 0, 1070.763793945312
113, 0, 0, 1056.266479492188
114, 0, 0, 1055.626708984375
115, 0, 0, 1054.276000976562
116, 0, 0, 1044.364013671875
117, 0, 0, 1042.749633789062
118, 0, 0, 1026.228759765625
119, 0, 0, 1028.895629882812
120, 0, 0, 1021.429504394531
121, 0, 0, 1010.18408203125
122, 0, 0, 1008.395385742188
123, 0, 0, 1002.410034179688
124, 0, 0, 1011.513977050781
125, 0, 0, 1000.495849609375
126, 0, 0, 990.906982421875
127, 0, 0, 982.878662109375
128, 0, 0, 979.2223510742188
129, 0, 0, 978.9506225585938
130, 0, 0, 972.3384399414062
131, 0, 0, 969.9940185546875
132, 0, 0, 973.2752075195312
133, 0, 0, 961.0449829101562
134, 0, 0, 951.8370971679688
135, 0, 0, 957.7291870117188
136, 0, 0, 952.669921875
137, 0, 0, 945.8942260742188
138, 0, 0, 939.2725830078125
139, 0, 0, 938.014892578125
140, 0, 0, 930.1922607421875
141, 0, 0, 929.6173095703125
142, 0, 0, 931.664794921875
143, 0, 0, 926.153076171875
144, 0, 0, 919.6940307617188
145, 0, 0, 918.0867919921875
146, 0, 0, 916.349609375
147, 0, 0, 908.8236083984375
148, 0, 0, 906.287109375
149, 0, 0, 903.9677124023438
150, 0, 0, 897.216064453125
151, 0, 0, 893.2685546875
152, 0, 0, 889.4229736328125
153, 0, 0, 886.3563842773438
154, 0, 0, 875.681640625
155, 0, 0, 883.351318359375
156, 0, 0, 884.3250732421875
157, 0, 0, 876.7176513671875
158, 0, 0, 867.9724731445312
159, 0, 0, 869.5064086914062
160, 0, 0, 873.1256103515625
161, 0, 0, 866.0591430664062
162, 0, 0, 861.683349609375
163, 0, 0, 862.1641845703125
164, 0, 0, 851.8878173828125
165, 0, 0, 850.2236938476562
166, 0, 0, 848.0821533203125
167, 0, 0, 852.6710205078125
168, 0, 0, 846.2943115234375
169, 0, 0, 846.5007934570312
170, 0, 0, 837.6728515625
171, 0, 0, 847.87109375
172, 0, 0, 831.7800903320312
173, 0, 0, 831.7708129882812
174, 0, 0, 838.492431640625
175, 0, 0, 833.580810546875
176, 0, 0, 823.6361694335938
177, 0, 0, 820.3577270507812
178, 0, 0, 823.4904174804688
179, 0, 0, 815.5166015625
