# TOPAS Version: 3.3.p1
# Parameter File: Test.txt
# Results for scorer MLIC_Scorer
# Scored in component: MLIC
# X in 180 bins of 0.177778 cm
# Y in 1 bin  of 10 cm
# Z in 1 bin  of 10 cm
# EnergyDeposit ( MeV ) : Sum   
0, 0, 0, 0
1, 0, 0, 0
2, 0, 0, 0
3, 0, 0, 0
4, 0, 0, 0
5, 0, 0, 0
6, 0, 0, 0
7, 0, 0, 0
8, 0, 0, 0
9, 0, 0, 0
10, 0, 0, 0
11, 0, 0, 0
12, 0, 0, 0
13, 0, 0, 0
14, 0, 0, 0
15, 0, 0, 0
16, 0, 0, 0
17, 0, 0, 0
18, 0, 0, 0
19, 0, 0, 0
20, 0, 0, 0
21, 0, 0, 0
22, 0, 0, 0
23, 0, 0, 0
24, 0, 0, 0
25, 0, 0, 0
26, 0, 0, 0
27, 0, 0, 0
28, 0, 0, 0
29, 0, 0, 0
30, 0, 0, 0
31, 0, 0, 0
32, 0, 0, 0
33, 0, 0, 0
34, 0, 0, 0
35, 0, 0, 0
36, 0, 0, 0
37, 0, 0, 0
38, 0, 0, 0
39, 0, 0, 0
40, 0, 0, 0
41, 0, 0, 0
42, 0, 0, 0
43, 0, 0, 0
44, 0, 0, 0
45, 0, 0, 0
46, 0, 0, 0
47, 0, 0, 0
48, 0, 0, 0
49, 0, 0, 0
50, 0, 0, 0
51, 0, 0, 0
52, 0, 0, 0
53, 0, 0, 0
54, 0, 0, 0
55, 0, 0, 0
56, 0, 0, 0
57, 0, 0, 8.221468925476074
58, 0, 0, 49.32428359985352
59, 0, 0, 153.9354248046875
60, 0, 0, 263.2491455078125
61, 0, 0, 249.4239654541016
62, 0, 0, 275.8071594238281
63, 0, 0, 313.4704895019531
64, 0, 0, 271.3579406738281
65, 0, 0, 236.70263671875
66, 0, 0, 220.6572418212891
67, 0, 0, 197.2219848632812
68, 0, 0, 180.2376098632812
69, 0, 0, 170.08984375
70, 0, 0, 159.5330505371094
71, 0, 0, 152.8264770507812
72, 0, 0, 147.9071350097656
73, 0, 0, 139.9038238525391
74, 0, 0, 137.3576354980469
75, 0, 0, 130.8938751220703
76, 0, 0, 128.2742919921875
77, 0, 0, 125.0552673339844
78, 0, 0, 120.2138366699219
79, 0, 0, 116.5366058349609
80, 0, 0, 113.1016387939453
81, 0, 0, 115.1771697998047
82, 0, 0, 111.8294525146484
83, 0, 0, 110.0653076171875
84, 0, 0, 105.0652008056641
85, 0, 0, 104.3995132446289
86, 0, 0, 101.3145141601562
87, 0, 0, 100.4224166870117
88, 0, 0, 99.76845550537109
89, 0, 0, 95.95609283447266
90, 0, 0, 97.12568664550781
91, 0, 0, 94.46096038818359
92, 0, 0, 93.60283660888672
93, 0, 0, 92.47591400146484
94, 0, 0, 88.48069763183594
95, 0, 0, 90.12405395507812
96, 0, 0, 89.31598663330078
97, 0, 0, 87.09020233154297
98, 0, 0, 87.47919464111328
99, 0, 0, 87.40189361572266
100, 0, 0, 84.94326782226562
101, 0, 0, 83.86497497558594
102, 0, 0, 83.69626617431641
103, 0, 0, 81.78849029541016
104, 0, 0, 83.19521331787109
105, 0, 0, 79.99710845947266
106, 0, 0, 81.08343505859375
107, 0, 0, 78.77278137207031
108, 0, 0, 77.50216674804688
109, 0, 0, 77.60643768310547
110, 0, 0, 75.66165924072266
111, 0, 0, 75.94785308837891
112, 0, 0, 76.57492065429688
113, 0, 0, 77.27273559570312
114, 0, 0, 75.49423217773438
115, 0, 0, 72.78190612792969
116, 0, 0, 73.77635955810547
117, 0, 0, 73.35994720458984
118, 0, 0, 71.63777160644531
119, 0, 0, 72.18506622314453
120, 0, 0, 70.70331573486328
121, 0, 0, 70.33656311035156
122, 0, 0, 69.92946624755859
123, 0, 0, 69.61876678466797
124, 0, 0, 69.44670867919922
125, 0, 0, 69.05942535400391
126, 0, 0, 66.72632598876953
127, 0, 0, 69.0054931640625
128, 0, 0, 68.15621185302734
129, 0, 0, 66.28610992431641
130, 0, 0, 66.20452880859375
131, 0, 0, 66.82310485839844
132, 0, 0, 66.39262390136719
133, 0, 0, 66.28500366210938
134, 0, 0, 67.36920166015625
135, 0, 0, 65.27035522460938
136, 0, 0, 64.10329437255859
137, 0, 0, 65.07376861572266
138, 0, 0, 63.88779067993164
139, 0, 0, 63.9486083984375
140, 0, 0, 62.36650085449219
141, 0, 0, 62.67599105834961
142, 0, 0, 61.72109603881836
143, 0, 0, 64.55615997314453
144, 0, 0, 62.62631607055664
145, 0, 0, 63.56352233886719
146, 0, 0, 61.66270065307617
147, 0, 0, 61.11208343505859
148, 0, 0, 64.26015472412109
149, 0, 0, 61.28624725341797
150, 0, 0, 60.16277694702148
151, 0, 0, 61.40676498413086
152, 0, 0, 59.37222671508789
153, 0, 0, 59.70188903808594
154, 0, 0, 59.64788436889648
155, 0, 0, 60.10247039794922
156, 0, 0, 60.08585357666016
157, 0, 0, 60.55614852905273
158, 0, 0, 59.03147506713867
159, 0, 0, 59.74883270263672
160, 0, 0, 57.92676162719727
161, 0, 0, 56.27656936645508
162, 0, 0, 56.68803787231445
163, 0, 0, 57.87164688110352
164, 0, 0, 57.00566864013672
165, 0, 0, 58.59476852416992
166, 0, 0, 56.39140319824219
167, 0, 0, 55.53987121582031
168, 0, 0, 55.93034362792969
169, 0, 0, 55.90327453613281
170, 0, 0, 54.35250854492188
171, 0, 0, 54.66666030883789
172, 0, 0, 57.48454666137695
173, 0, 0, 56.86635589599609
174, 0, 0, 53.69565582275391
175, 0, 0, 54.01895904541016
176, 0, 0, 54.68045043945312
177, 0, 0, 55.60237884521484
178, 0, 0, 54.8735237121582
179, 0, 0, 54.60926818847656
