# TOPAS Version: 3.3.p1
# Parameter File: Test.txt
# Results for scorer MLIC_Scorer
# Scored in component: MLIC
# X in 180 bins of 0.177778 cm
# Y in 1 bin  of 10 cm
# Z in 1 bin  of 10 cm
# EnergyDeposit ( MeV ) : Sum   
0, 0, 0, 0
1, 0, 0, 0
2, 0, 0, 0
3, 0, 0, 0
4, 0, 0, 0
5, 0, 0, 0
6, 0, 0, 0
7, 0, 0, 0
8, 0, 0, 0
9, 0, 0, 0
10, 0, 0, 0
11, 0, 0, 0
12, 0, 0, 0
13, 0, 0, 0
14, 0, 0, 0
15, 0, 0, 0
16, 0, 0, 0
17, 0, 0, 0
18, 0, 0, 0
19, 0, 0, 0
20, 0, 0, 0
21, 0, 0, 0
22, 0, 0, 0
23, 0, 0, 0
24, 0, 0, 0
25, 0, 0, 0
26, 0, 0, 0
27, 0, 0, 0
28, 0, 0, 0
29, 0, 0, 0
30, 0, 0, 0
31, 0, 0, 0
32, 0, 0, 0
33, 0, 0, 0
34, 0, 0, 0
35, 0, 0, 0
36, 0, 0, 0
37, 0, 0, 0
38, 0, 0, 0
39, 0, 0, 0
40, 0, 0, 0
41, 0, 0, 0
42, 0, 0, 0
43, 0, 0, 0
44, 0, 0, 0
45, 0, 0, 0
46, 0, 0, 0
47, 0, 0, 0
48, 0, 0, 0
49, 0, 0, 0
50, 0, 0, 0
51, 0, 0, 0
52, 0, 0, 0
53, 0, 0, 0
54, 0, 0, 0
55, 0, 0, 0
56, 0, 0, 0
57, 0, 0, 0
58, 0, 0, 0
59, 0, 0, 0
60, 0, 0, 0
61, 0, 0, 0
62, 0, 0, 16.60671424865723
63, 0, 0, 63.00907516479492
64, 0, 0, 180.5527801513672
65, 0, 0, 273.3892211914062
66, 0, 0, 345.343994140625
67, 0, 0, 402.1693420410156
68, 0, 0, 353.9691467285156
69, 0, 0, 335.3827819824219
70, 0, 0, 291.1734008789062
71, 0, 0, 259.4268493652344
72, 0, 0, 244.3617248535156
73, 0, 0, 224.5147552490234
74, 0, 0, 209.7752227783203
75, 0, 0, 198.4730987548828
76, 0, 0, 191.5090637207031
77, 0, 0, 181.45654296875
78, 0, 0, 174.8369445800781
79, 0, 0, 169.4147491455078
80, 0, 0, 164.2548828125
81, 0, 0, 159.3594818115234
82, 0, 0, 154.8059844970703
83, 0, 0, 148.9886322021484
84, 0, 0, 145.3832244873047
85, 0, 0, 142.2249450683594
86, 0, 0, 139.5325317382812
87, 0, 0, 135.6173248291016
88, 0, 0, 132.3846435546875
89, 0, 0, 133.1840057373047
90, 0, 0, 129.1537475585938
91, 0, 0, 125.5652542114258
92, 0, 0, 124.8711547851562
93, 0, 0, 123.4289398193359
94, 0, 0, 119.677734375
95, 0, 0, 118.4577484130859
96, 0, 0, 118.9728622436523
97, 0, 0, 116.4272613525391
98, 0, 0, 114.1380310058594
99, 0, 0, 113.7700576782227
100, 0, 0, 109.0939102172852
101, 0, 0, 109.0223770141602
102, 0, 0, 109.7800674438477
103, 0, 0, 107.3153686523438
104, 0, 0, 106.3218841552734
105, 0, 0, 105.9707565307617
106, 0, 0, 103.6560592651367
107, 0, 0, 102.8720474243164
108, 0, 0, 102.5500793457031
109, 0, 0, 101.6529769897461
110, 0, 0, 101.7547988891602
111, 0, 0, 99.45162200927734
112, 0, 0, 98.69852447509766
113, 0, 0, 97.83290100097656
114, 0, 0, 94.91101837158203
115, 0, 0, 97.10935211181641
116, 0, 0, 93.23485565185547
117, 0, 0, 95.35507965087891
118, 0, 0, 93.38407897949219
119, 0, 0, 91.92654418945312
120, 0, 0, 92.77848052978516
121, 0, 0, 91.63786315917969
122, 0, 0, 89.47034454345703
123, 0, 0, 89.994384765625
124, 0, 0, 89.72275543212891
125, 0, 0, 87.22374725341797
126, 0, 0, 86.66273498535156
127, 0, 0, 86.92118072509766
128, 0, 0, 89.09750366210938
129, 0, 0, 85.59459686279297
130, 0, 0, 86.16904449462891
131, 0, 0, 86.12037658691406
132, 0, 0, 83.40766906738281
133, 0, 0, 83.90427398681641
134, 0, 0, 83.7591552734375
135, 0, 0, 84.07913208007812
136, 0, 0, 84.53710174560547
137, 0, 0, 84.97106170654297
138, 0, 0, 80.83403778076172
139, 0, 0, 80.89082336425781
140, 0, 0, 79.06063079833984
141, 0, 0, 81.10658264160156
142, 0, 0, 79.87909698486328
143, 0, 0, 78.96262359619141
144, 0, 0, 77.58815002441406
145, 0, 0, 78.07148742675781
146, 0, 0, 77.39646911621094
147, 0, 0, 77.97930908203125
148, 0, 0, 77.34705352783203
149, 0, 0, 76.9954833984375
150, 0, 0, 75.27539825439453
151, 0, 0, 75.61318206787109
152, 0, 0, 76.62263488769531
153, 0, 0, 76.09220886230469
154, 0, 0, 75.51420593261719
155, 0, 0, 75.19129943847656
156, 0, 0, 73.91749572753906
157, 0, 0, 74.23971557617188
158, 0, 0, 73.41869354248047
159, 0, 0, 73.56835174560547
160, 0, 0, 74.42568969726562
161, 0, 0, 73.46988677978516
162, 0, 0, 69.37427520751953
163, 0, 0, 71.78997039794922
164, 0, 0, 72.86994934082031
165, 0, 0, 70.78178405761719
166, 0, 0, 71.60984039306641
167, 0, 0, 69.21925354003906
168, 0, 0, 71.57920074462891
169, 0, 0, 69.78479766845703
170, 0, 0, 72.55031585693359
171, 0, 0, 73.33808898925781
172, 0, 0, 69.58049774169922
173, 0, 0, 69.56845855712891
174, 0, 0, 69.85249328613281
175, 0, 0, 68.39398956298828
176, 0, 0, 67.74397277832031
177, 0, 0, 69.41437530517578
178, 0, 0, 67.63003540039062
179, 0, 0, 67.97077941894531
