# TOPAS Version: 3.3.p1
# Parameter File: Test.txt
# Results for scorer MLIC_Scorer
# Scored in component: MLIC
# X in 180 bins of 0.183333 cm
# Y in 1 bin  of 10 cm
# Z in 1 bin  of 10 cm
# EnergyDeposit ( MeV ) : Sum   
0, 0, 0, 0
1, 0, 0, 0
2, 0, 0, 0
3, 0, 0, 0
4, 0, 0, 0
5, 0, 0, 0
6, 0, 0, 0
7, 0, 0, 0
8, 0, 0, 0
9, 0, 0, 0
10, 0, 0, 0
11, 0, 0, 0
12, 0, 0, 0
13, 0, 0, 0
14, 0, 0, 0
15, 0, 0, 0
16, 0, 0, 0
17, 0, 0, 0
18, 0, 0, 0
19, 0, 0, 0
20, 0, 0, 0
21, 0, 0, 0
22, 0, 0, 0
23, 0, 0, 0
24, 0, 0, 0
25, 0, 0, 0.01129275094717741
26, 0, 0, 0
27, 0, 0, 0
28, 0, 0, 0
29, 0, 0, 0
30, 0, 0, 0
31, 0, 0, 0.05218544602394104
32, 0, 0, 0
33, 0, 0, 0
34, 0, 0, 0
35, 0, 0, 0
36, 0, 0, 0
37, 0, 0, 0
38, 0, 0, 0
39, 0, 0, 0
40, 0, 0, 0
41, 0, 0, 0
42, 0, 0, 0
43, 0, 0, 0
44, 0, 0, 0
45, 0, 0, 0
46, 0, 0, 0
47, 0, 0, 0
48, 0, 0, 0
49, 0, 0, 0
50, 0, 0, 0
51, 0, 0, 0
52, 0, 0, 0
53, 0, 0, 0
54, 0, 0, 0
55, 0, 0, 0
56, 0, 0, 0
57, 0, 0, 0
58, 0, 0, 0
59, 0, 0, 0
60, 0, 0, 0
61, 0, 0, 0
62, 0, 0, 0
63, 0, 0, 0
64, 0, 0, 0
65, 0, 0, 0
66, 0, 0, 0
67, 0, 0, 0
68, 0, 0, 0
69, 0, 0, 0
70, 0, 0, 0
71, 0, 0, 0
72, 0, 0, 0
73, 0, 0, 0
74, 0, 0, 0
75, 0, 0, 0
76, 0, 0, 0
77, 0, 0, 0
78, 0, 0, 0.04692587628960609
79, 0, 0, 0
80, 0, 0, 0
81, 0, 0, 0
82, 0, 0, 0
83, 0, 0, 0
84, 0, 0, 0
85, 0, 0, 46.95836639404297
86, 0, 0, 269.2055053710938
87, 0, 0, 819.5323486328125
88, 0, 0, 1957.69091796875
89, 0, 0, 3381.703857421875
90, 0, 0, 4846.56640625
91, 0, 0, 5247.4443359375
92, 0, 0, 5018.357421875
93, 0, 0, 4343.3466796875
94, 0, 0, 3833.138671875
95, 0, 0, 3420.726806640625
96, 0, 0, 3114.215576171875
97, 0, 0, 2901.3212890625
98, 0, 0, 2722.574462890625
99, 0, 0, 2582.714111328125
100, 0, 0, 2457.551025390625
101, 0, 0, 2362.68408203125
102, 0, 0, 2262.677978515625
103, 0, 0, 2190.925048828125
104, 0, 0, 2121.309326171875
105, 0, 0, 2055.489501953125
106, 0, 0, 2007.480346679688
107, 0, 0, 1946.163818359375
108, 0, 0, 1905.471557617188
109, 0, 0, 1858.007690429688
110, 0, 0, 1821.097900390625
111, 0, 0, 1783.14990234375
112, 0, 0, 1742.998413085938
113, 0, 0, 1717.640258789062
114, 0, 0, 1676.540893554688
115, 0, 0, 1649.715576171875
116, 0, 0, 1631.769897460938
117, 0, 0, 1601.95849609375
118, 0, 0, 1577.62060546875
119, 0, 0, 1549.296630859375
120, 0, 0, 1531.115234375
121, 0, 0, 1509.556396484375
122, 0, 0, 1493.375854492188
123, 0, 0, 1466.249877929688
124, 0, 0, 1458.117919921875
125, 0, 0, 1442.415893554688
126, 0, 0, 1420.644165039062
127, 0, 0, 1398.962036132812
128, 0, 0, 1382.0107421875
129, 0, 0, 1378.788818359375
130, 0, 0, 1357.906982421875
131, 0, 0, 1344.918701171875
132, 0, 0, 1331.055786132812
133, 0, 0, 1311.139892578125
134, 0, 0, 1303.7548828125
135, 0, 0, 1285.603759765625
136, 0, 0, 1277.309814453125
137, 0, 0, 1270.430297851562
138, 0, 0, 1252.027709960938
139, 0, 0, 1250.653076171875
140, 0, 0, 1237.76416015625
141, 0, 0, 1231.583374023438
142, 0, 0, 1215.286010742188
143, 0, 0, 1205.036865234375
144, 0, 0, 1199.818725585938
145, 0, 0, 1195.744018554688
146, 0, 0, 1175.813720703125
147, 0, 0, 1166.325927734375
148, 0, 0, 1157.220825195312
149, 0, 0, 1153.426635742188
150, 0, 0, 1149.269165039062
151, 0, 0, 1138.052856445312
152, 0, 0, 1125.240478515625
153, 0, 0, 1121.615478515625
154, 0, 0, 1114.5693359375
155, 0, 0, 1113.391235351562
156, 0, 0, 1100.92431640625
157, 0, 0, 1099.527709960938
158, 0, 0, 1081.406494140625
159, 0, 0, 1081.4814453125
160, 0, 0, 1076.153564453125
161, 0, 0, 1076.360107421875
162, 0, 0, 1069.802368164062
163, 0, 0, 1063.673706054688
164, 0, 0, 1061.483642578125
165, 0, 0, 1049.009643554688
166, 0, 0, 1047.040161132812
167, 0, 0, 1040.739624023438
168, 0, 0, 1029.812133789062
169, 0, 0, 1029.21923828125
170, 0, 0, 1014.419860839844
171, 0, 0, 1024.669311523438
172, 0, 0, 1021.559509277344
173, 0, 0, 1007.942993164062
174, 0, 0, 1007.688659667969
175, 0, 0, 998.370849609375
176, 0, 0, 988.115234375
177, 0, 0, 985.3271484375
178, 0, 0, 985.1597900390625
179, 0, 0, 982.0244750976562
