# TOPAS Version: 3.3.p1
# Parameter File: Test.txt
# Results for scorer MLIC_Scorer
# Scored in component: MLIC
# X in 180 bins of 0.183333 cm
# Y in 1 bin  of 10 cm
# Z in 1 bin  of 10 cm
# EnergyDeposit ( MeV ) : Sum   
0, 0, 0, 0
1, 0, 0, 0
2, 0, 0, 0
3, 0, 0, 0
4, 0, 0, 0
5, 0, 0, 0
6, 0, 0, 0
7, 0, 0, 0
8, 0, 0, 0
9, 0, 0, 0
10, 0, 0, 0
11, 0, 0, 0
12, 0, 0, 0
13, 0, 0, 0
14, 0, 0, 0
15, 0, 0, 0
16, 0, 0, 0
17, 0, 0, 0
18, 0, 0, 0
19, 0, 0, 0
20, 0, 0, 0
21, 0, 0, 0
22, 0, 0, 0
23, 0, 0, 0
24, 0, 0, 0
25, 0, 0, 0
26, 0, 0, 0
27, 0, 0, 0
28, 0, 0, 3.792038440704346
29, 0, 0, 16.89008903503418
30, 0, 0, 142.9001312255859
31, 0, 0, 680.139892578125
32, 0, 0, 1651.646850585938
33, 0, 0, 3001.803466796875
34, 0, 0, 4250.43701171875
35, 0, 0, 5173.91162109375
36, 0, 0, 5092.11083984375
37, 0, 0, 4578.76025390625
38, 0, 0, 4024.305908203125
39, 0, 0, 3527.082275390625
40, 0, 0, 3215.28759765625
41, 0, 0, 2960.098388671875
42, 0, 0, 2771.6328125
43, 0, 0, 2625.34130859375
44, 0, 0, 2486.330810546875
45, 0, 0, 2392.328125
46, 0, 0, 2301.999755859375
47, 0, 0, 2212.78857421875
48, 0, 0, 2144.5166015625
49, 0, 0, 2074.63671875
50, 0, 0, 2027.837036132812
51, 0, 0, 1971.082153320312
52, 0, 0, 1916.31884765625
53, 0, 0, 1867.021484375
54, 0, 0, 1830.289672851562
55, 0, 0, 1795.857666015625
56, 0, 0, 1758.260375976562
57, 0, 0, 1723.32421875
58, 0, 0, 1692.262817382812
59, 0, 0, 1664.288696289062
60, 0, 0, 1636.18603515625
61, 0, 0, 1607.02099609375
62, 0, 0, 1571.487548828125
63, 0, 0, 1561.4892578125
64, 0, 0, 1528.762573242188
65, 0, 0, 1505.935180664062
66, 0, 0, 1492.793334960938
67, 0, 0, 1471.109619140625
68, 0, 0, 1454.544311523438
69, 0, 0, 1445.459716796875
70, 0, 0, 1426.854736328125
71, 0, 0, 1410.487915039062
72, 0, 0, 1383.711791992188
73, 0, 0, 1372.697265625
74, 0, 0, 1363.825073242188
75, 0, 0, 1343.936645507812
76, 0, 0, 1338.810546875
77, 0, 0, 1321.985595703125
78, 0, 0, 1311.139892578125
79, 0, 0, 1292.396362304688
80, 0, 0, 1280.9462890625
81, 0, 0, 1274.40283203125
82, 0, 0, 1264.37109375
83, 0, 0, 1248.810913085938
84, 0, 0, 1241.542358398438
85, 0, 0, 1231.979248046875
86, 0, 0, 1224.21826171875
87, 0, 0, 1204.169677734375
88, 0, 0, 1202.700805664062
89, 0, 0, 1193.464721679688
90, 0, 0, 1180.548583984375
91, 0, 0, 1165.16357421875
92, 0, 0, 1159.8486328125
93, 0, 0, 1158.848266601562
94, 0, 0, 1148.765625
95, 0, 0, 1144.45556640625
96, 0, 0, 1131.43359375
97, 0, 0, 1128.00830078125
98, 0, 0, 1117.921752929688
99, 0, 0, 1110.533081054688
100, 0, 0, 1107.319091796875
101, 0, 0, 1094.992431640625
102, 0, 0, 1092.489990234375
103, 0, 0, 1088.544921875
104, 0, 0, 1075.963745117188
105, 0, 0, 1069.317016601562
106, 0, 0, 1071.19384765625
107, 0, 0, 1054.834716796875
108, 0, 0, 1053.458374023438
109, 0, 0, 1049.715576171875
110, 0, 0, 1050.58203125
111, 0, 0, 1039.1162109375
112, 0, 0, 1026.528686523438
113, 0, 0, 1034.245971679688
114, 0, 0, 1024.209228515625
115, 0, 0, 1019.793823242188
116, 0, 0, 1011.945983886719
117, 0, 0, 1001.069458007812
118, 0, 0, 1004.200439453125
119, 0, 0, 997.156005859375
120, 0, 0, 1000.577087402344
121, 0, 0, 989.387451171875
122, 0, 0, 985.0757446289062
123, 0, 0, 985.654541015625
124, 0, 0, 970.8946533203125
125, 0, 0, 973.7188110351562
126, 0, 0, 960.6851196289062
127, 0, 0, 960.9746704101562
128, 0, 0, 958.0819091796875
129, 0, 0, 958.578369140625
130, 0, 0, 956.0964965820312
131, 0, 0, 944.1551513671875
132, 0, 0, 944.7623901367188
133, 0, 0, 936.2923583984375
134, 0, 0, 939.8085327148438
135, 0, 0, 934.4267578125
136, 0, 0, 930.5142822265625
137, 0, 0, 920.4202270507812
138, 0, 0, 929.081298828125
139, 0, 0, 923.5301513671875
140, 0, 0, 910.6956787109375
141, 0, 0, 911.6642456054688
142, 0, 0, 915.5184936523438
143, 0, 0, 912.2693481445312
144, 0, 0, 898.6609497070312
145, 0, 0, 903.4910278320312
146, 0, 0, 890.3572387695312
147, 0, 0, 897.9559326171875
148, 0, 0, 886.38623046875
149, 0, 0, 884.2117309570312
150, 0, 0, 879.260009765625
151, 0, 0, 877.5941162109375
152, 0, 0, 878.9099731445312
153, 0, 0, 875.6102294921875
154, 0, 0, 871.2468872070312
155, 0, 0, 868.9174194335938
156, 0, 0, 866.1619262695312
157, 0, 0, 861.0233764648438
158, 0, 0, 863.4188842773438
159, 0, 0, 856.8253784179688
160, 0, 0, 861.1790161132812
161, 0, 0, 854.4973754882812
162, 0, 0, 849.8654174804688
163, 0, 0, 851.341796875
164, 0, 0, 850.7529907226562
165, 0, 0, 848.0448608398438
166, 0, 0, 848.8157348632812
167, 0, 0, 844.5827026367188
168, 0, 0, 844.0145263671875
169, 0, 0, 840.90869140625
170, 0, 0, 829.888916015625
171, 0, 0, 839.1714477539062
172, 0, 0, 831.8466186523438
173, 0, 0, 822.9688720703125
174, 0, 0, 824.3833618164062
175, 0, 0, 830.25537109375
176, 0, 0, 819.58251953125
177, 0, 0, 820.7268676757812
178, 0, 0, 813.36083984375
179, 0, 0, 809.494384765625
