# TOPAS Version: 3.3.p1
# Parameter File: Test.txt
# Results for scorer MLIC_Scorer
# Scored in component: MLIC
# X in 180 bins of 0.177778 cm
# Y in 1 bin  of 10 cm
# Z in 1 bin  of 10 cm
# EnergyDeposit ( MeV ) : Sum   
0, 0, 0, 0
1, 0, 0, 0
2, 0, 0, 0
3, 0, 0, 0
4, 0, 0, 0
5, 0, 0, 0
6, 0, 0, 0
7, 0, 0, 0
8, 0, 0, 0
9, 0, 0, 0
10, 0, 0, 0
11, 0, 0, 0
12, 0, 0, 0
13, 0, 0, 0
14, 0, 0, 0
15, 0, 0, 0
16, 0, 0, 0
17, 0, 0, 0
18, 0, 0, 0
19, 0, 0, 0
20, 0, 0, 0
21, 0, 0, 0
22, 0, 0, 0
23, 0, 0, 0
24, 0, 0, 0
25, 0, 0, 0
26, 0, 0, 0
27, 0, 0, 0
28, 0, 0, 0
29, 0, 0, 0
30, 0, 0, 0
31, 0, 0, 0
32, 0, 0, 0
33, 0, 0, 0
34, 0, 0, 0
35, 0, 0, 0
36, 0, 0, 0
37, 0, 0, 0
38, 0, 0, 0
39, 0, 0, 0
40, 0, 0, 0
41, 0, 0, 0
42, 0, 0, 0
43, 0, 0, 0
44, 0, 0, 0
45, 0, 0, 0
46, 0, 0, 0
47, 0, 0, 0
48, 0, 0, 0
49, 0, 0, 0
50, 0, 0, 0
51, 0, 0, 0
52, 0, 0, 0
53, 0, 0, 0
54, 0, 0, 0
55, 0, 0, 0
56, 0, 0, 0
57, 0, 0, 0
58, 0, 0, 0
59, 0, 0, 0
60, 0, 0, 0
61, 0, 0, 0
62, 0, 0, 0
63, 0, 0, 0
64, 0, 0, 0
65, 0, 0, 0
66, 0, 0, 0
67, 0, 0, 0
68, 0, 0, 0
69, 0, 0, 0
70, 0, 0, 0
71, 0, 0, 0
72, 0, 0, 0
73, 0, 0, 0
74, 0, 0, 0
75, 0, 0, 0
76, 0, 0, 0
77, 0, 0, 0
78, 0, 0, 19.16802978515625
79, 0, 0, 31.82970428466797
80, 0, 0, 107.1691436767578
81, 0, 0, 195.7260894775391
82, 0, 0, 277.5627746582031
83, 0, 0, 378.635498046875
84, 0, 0, 333.7560424804688
85, 0, 0, 287.41064453125
86, 0, 0, 247.1285552978516
87, 0, 0, 220.0186309814453
88, 0, 0, 200.9261322021484
89, 0, 0, 184.0021514892578
90, 0, 0, 174.8095245361328
91, 0, 0, 165.5342102050781
92, 0, 0, 157.1377716064453
93, 0, 0, 152.218505859375
94, 0, 0, 144.7987060546875
95, 0, 0, 140.7662048339844
96, 0, 0, 136.6085815429688
97, 0, 0, 131.8378448486328
98, 0, 0, 129.7567749023438
99, 0, 0, 125.0132293701172
100, 0, 0, 122.4208679199219
101, 0, 0, 118.2267227172852
102, 0, 0, 115.5260391235352
103, 0, 0, 115.2942657470703
104, 0, 0, 111.9606323242188
105, 0, 0, 110.8926467895508
106, 0, 0, 107.6172027587891
107, 0, 0, 104.4491882324219
108, 0, 0, 104.4011611938477
109, 0, 0, 101.0662231445312
110, 0, 0, 101.6996078491211
111, 0, 0, 100.0783004760742
112, 0, 0, 96.36061859130859
113, 0, 0, 94.52711486816406
114, 0, 0, 94.88315582275391
115, 0, 0, 95.91780090332031
116, 0, 0, 93.78408050537109
117, 0, 0, 89.93195343017578
118, 0, 0, 90.64870452880859
119, 0, 0, 88.78920745849609
120, 0, 0, 88.03546142578125
121, 0, 0, 86.07345581054688
122, 0, 0, 87.66316223144531
123, 0, 0, 86.30585479736328
124, 0, 0, 84.82749938964844
125, 0, 0, 85.80020904541016
126, 0, 0, 82.92509460449219
127, 0, 0, 80.6116943359375
128, 0, 0, 81.3050537109375
129, 0, 0, 81.0650634765625
130, 0, 0, 80.15720367431641
131, 0, 0, 81.0640869140625
132, 0, 0, 81.61811065673828
133, 0, 0, 76.8603515625
134, 0, 0, 77.90033721923828
135, 0, 0, 77.62478637695312
136, 0, 0, 76.54000091552734
137, 0, 0, 77.02390289306641
138, 0, 0, 75.15134429931641
139, 0, 0, 75.3458251953125
140, 0, 0, 76.19144439697266
141, 0, 0, 73.81821441650391
142, 0, 0, 74.59347534179688
143, 0, 0, 72.62129211425781
144, 0, 0, 71.27443695068359
145, 0, 0, 72.33535003662109
146, 0, 0, 71.65508270263672
147, 0, 0, 70.53248596191406
148, 0, 0, 69.73069763183594
149, 0, 0, 70.09786987304688
150, 0, 0, 68.45523834228516
151, 0, 0, 67.90277099609375
152, 0, 0, 68.84042358398438
153, 0, 0, 68.62629699707031
154, 0, 0, 66.94136810302734
155, 0, 0, 67.04607391357422
156, 0, 0, 67.77291107177734
157, 0, 0, 66.93519592285156
158, 0, 0, 67.01611328125
159, 0, 0, 65.43531036376953
160, 0, 0, 66.99822235107422
161, 0, 0, 65.46633148193359
162, 0, 0, 64.93767547607422
163, 0, 0, 66.81212615966797
164, 0, 0, 64.96788024902344
165, 0, 0, 65.49985504150391
166, 0, 0, 64.31076812744141
167, 0, 0, 64.12515258789062
168, 0, 0, 62.60322952270508
169, 0, 0, 63.65728378295898
170, 0, 0, 63.88843536376953
171, 0, 0, 62.13734436035156
172, 0, 0, 61.67198181152344
173, 0, 0, 62.2713508605957
174, 0, 0, 59.8189582824707
175, 0, 0, 61.00828170776367
176, 0, 0, 61.64179229736328
177, 0, 0, 62.46086502075195
178, 0, 0, 60.57088088989258
179, 0, 0, 59.72781372070312
