# TOPAS Version: 3.3.p1
# Parameter File: Test.txt
# Results for scorer MLIC_Scorer
# Scored in component: MLIC
# X in 180 bins of 0.183333 cm
# Y in 1 bin  of 10 cm
# Z in 1 bin  of 10 cm
# EnergyDeposit ( MeV ) : Sum   
0, 0, 0, 0
1, 0, 0, 0
2, 0, 0, 0
3, 0, 0, 0
4, 0, 0, 0
5, 0, 0, 0
6, 0, 0, 0
7, 0, 0, 0
8, 0, 0, 0
9, 0, 0, 0
10, 0, 0, 0
11, 0, 0, 0
12, 0, 0, 0
13, 0, 0, 0
14, 0, 0, 0
15, 0, 0, 0
16, 0, 0, 0
17, 0, 0, 0
18, 0, 0, 0
19, 0, 0, 0
20, 0, 0, 0
21, 0, 0, 0
22, 0, 0, 0
23, 0, 0, 0
24, 0, 0, 0
25, 0, 0, 0
26, 0, 0, 0
27, 0, 0, 0
28, 0, 0, 0
29, 0, 0, 0
30, 0, 0, 0
31, 0, 0, 0.04153813794255257
32, 0, 0, 0
33, 0, 0, 0
34, 0, 0, 0
35, 0, 0, 0
36, 0, 0, 0
37, 0, 0, 0.00159254134632647
38, 0, 0, 0
39, 0, 0, 0.0262496005743742
40, 0, 0, 21.79947471618652
41, 0, 0, 161.8357849121094
42, 0, 0, 784.6029663085938
43, 0, 0, 1698.16259765625
44, 0, 0, 3200.312255859375
45, 0, 0, 4587.56201171875
46, 0, 0, 5235.626953125
47, 0, 0, 5108.185546875
48, 0, 0, 4381.4306640625
49, 0, 0, 3916.873779296875
50, 0, 0, 3484.77197265625
51, 0, 0, 3166.51220703125
52, 0, 0, 2934.066650390625
53, 0, 0, 2757.895263671875
54, 0, 0, 2606.72509765625
55, 0, 0, 2478.734619140625
56, 0, 0, 2377.47998046875
57, 0, 0, 2283.107421875
58, 0, 0, 2210.5712890625
59, 0, 0, 2135.306640625
60, 0, 0, 2065.704345703125
61, 0, 0, 2017.841430664062
62, 0, 0, 1963.72607421875
63, 0, 0, 1908.244262695312
64, 0, 0, 1869.801635742188
65, 0, 0, 1818.2060546875
66, 0, 0, 1782.7880859375
67, 0, 0, 1750.390380859375
68, 0, 0, 1717.30078125
69, 0, 0, 1684.3857421875
70, 0, 0, 1657.248901367188
71, 0, 0, 1628.844970703125
72, 0, 0, 1606.268188476562
73, 0, 0, 1578.056396484375
74, 0, 0, 1547.565795898438
75, 0, 0, 1534.693481445312
76, 0, 0, 1509.687133789062
77, 0, 0, 1490.406860351562
78, 0, 0, 1474.500244140625
79, 0, 0, 1451.689208984375
80, 0, 0, 1435.467041015625
81, 0, 0, 1423.324584960938
82, 0, 0, 1402.910034179688
83, 0, 0, 1384.63427734375
84, 0, 0, 1371.071533203125
85, 0, 0, 1358.420654296875
86, 0, 0, 1347.1044921875
87, 0, 0, 1335.162841796875
88, 0, 0, 1317.578002929688
89, 0, 0, 1313.996948242188
90, 0, 0, 1293.59619140625
91, 0, 0, 1283.292846679688
92, 0, 0, 1269.581909179688
93, 0, 0, 1258.259765625
94, 0, 0, 1255.3818359375
95, 0, 0, 1238.97021484375
96, 0, 0, 1228.1787109375
97, 0, 0, 1226.969848632812
98, 0, 0, 1210.246459960938
99, 0, 0, 1202.909301757812
100, 0, 0, 1191.87939453125
101, 0, 0, 1171.513549804688
102, 0, 0, 1173.072509765625
103, 0, 0, 1155.051879882812
104, 0, 0, 1162.689086914062
105, 0, 0, 1152.57177734375
106, 0, 0, 1139.67822265625
107, 0, 0, 1134.640380859375
108, 0, 0, 1121.868286132812
109, 0, 0, 1117.908935546875
110, 0, 0, 1104.985717773438
111, 0, 0, 1108.980224609375
112, 0, 0, 1093.107055664062
113, 0, 0, 1089.942504882812
114, 0, 0, 1079.725463867188
115, 0, 0, 1083.677124023438
116, 0, 0, 1068.010864257812
117, 0, 0, 1060.493041992188
118, 0, 0, 1056.242431640625
119, 0, 0, 1049.651000976562
120, 0, 0, 1050.739990234375
121, 0, 0, 1043.662109375
122, 0, 0, 1045.27783203125
123, 0, 0, 1030.04541015625
124, 0, 0, 1032.056640625
125, 0, 0, 1036.533325195312
126, 0, 0, 1016.433044433594
127, 0, 0, 1019.319152832031
128, 0, 0, 1001.371337890625
129, 0, 0, 994.3807983398438
130, 0, 0, 1000.075256347656
131, 0, 0, 993.0935668945312
132, 0, 0, 991.6554565429688
133, 0, 0, 983.0728149414062
134, 0, 0, 975.5399780273438
135, 0, 0, 968.7740478515625
136, 0, 0, 977.1832885742188
137, 0, 0, 965.8350830078125
138, 0, 0, 961.0160522460938
139, 0, 0, 960.5159301757812
140, 0, 0, 951.2925415039062
141, 0, 0, 951.1483764648438
142, 0, 0, 949.2315673828125
143, 0, 0, 944.1682739257812
144, 0, 0, 939.6090698242188
145, 0, 0, 935.5390625
146, 0, 0, 930.3826293945312
147, 0, 0, 923.465087890625
148, 0, 0, 926.07421875
149, 0, 0, 917.3157958984375
150, 0, 0, 917.2693481445312
151, 0, 0, 913.479248046875
152, 0, 0, 914.4119873046875
153, 0, 0, 913.8031616210938
154, 0, 0, 911.0125732421875
155, 0, 0, 899.7051391601562
156, 0, 0, 899.5296630859375
157, 0, 0, 899.1349487304688
158, 0, 0, 887.8775634765625
159, 0, 0, 886.2626342773438
160, 0, 0, 888.0227661132812
161, 0, 0, 882.9559326171875
162, 0, 0, 878.1314697265625
163, 0, 0, 881.990478515625
164, 0, 0, 880.3023071289062
165, 0, 0, 870.515625
166, 0, 0, 869.1788940429688
167, 0, 0, 870.4464721679688
168, 0, 0, 867.41455078125
169, 0, 0, 869.4962768554688
170, 0, 0, 862.2063598632812
171, 0, 0, 859.3260498046875
172, 0, 0, 860.3556518554688
173, 0, 0, 860.0189208984375
174, 0, 0, 849.822998046875
175, 0, 0, 853.2509155273438
176, 0, 0, 840.4156494140625
177, 0, 0, 836.0372314453125
178, 0, 0, 837.3448486328125
179, 0, 0, 833.3944702148438
