# TOPAS Version: 3.3.p1
# Parameter File: Test.txt
# Results for scorer MLIC_Scorer
# Scored in component: MLIC
# X in 180 bins of 0.183333 cm
# Y in 1 bin  of 10 cm
# Z in 1 bin  of 10 cm
# EnergyDeposit ( MeV ) : Sum   
0, 0, 0, 0
1, 0, 0, 0
2, 0, 0, 0
3, 0, 0, 0
4, 0, 0, 0
5, 0, 0, 0
6, 0, 0, 0.001890246290713549
7, 0, 0, 0
8, 0, 0, 0
9, 0, 0, 0
10, 0, 0, 0
11, 0, 0, 0
12, 0, 0, 0
13, 0, 0, 0.01042396295815706
14, 0, 0, 0
15, 0, 0, 0.005338083021342754
16, 0, 0, 0
17, 0, 0, 0
18, 0, 0, 0.5746012926101685
19, 0, 0, 93.19601440429688
20, 0, 0, 481.3582458496094
21, 0, 0, 1367.8515625
22, 0, 0, 3050.0771484375
23, 0, 0, 4383.2294921875
24, 0, 0, 5015.07373046875
25, 0, 0, 5167.751953125
26, 0, 0, 4608.49560546875
27, 0, 0, 4079.015869140625
28, 0, 0, 3551.1533203125
29, 0, 0, 3215.8974609375
30, 0, 0, 2973.98193359375
31, 0, 0, 2779.0224609375
32, 0, 0, 2623.458984375
33, 0, 0, 2494.562744140625
34, 0, 0, 2402.15869140625
35, 0, 0, 2306.316650390625
36, 0, 0, 2225.322265625
37, 0, 0, 2145.90283203125
38, 0, 0, 2078.064208984375
39, 0, 0, 2027.090454101562
40, 0, 0, 1968.602416992188
41, 0, 0, 1925.389038085938
42, 0, 0, 1884.433837890625
43, 0, 0, 1829.25048828125
44, 0, 0, 1788.651977539062
45, 0, 0, 1766.483032226562
46, 0, 0, 1727.199951171875
47, 0, 0, 1689.160766601562
48, 0, 0, 1668.23876953125
49, 0, 0, 1635.985595703125
50, 0, 0, 1616.681518554688
51, 0, 0, 1584.017211914062
52, 0, 0, 1559.75390625
53, 0, 0, 1533.417236328125
54, 0, 0, 1515.688110351562
55, 0, 0, 1499.436157226562
56, 0, 0, 1487.030517578125
57, 0, 0, 1457.463256835938
58, 0, 0, 1441.961547851562
59, 0, 0, 1420.126098632812
60, 0, 0, 1406.216552734375
61, 0, 0, 1395.107299804688
62, 0, 0, 1372.297485351562
63, 0, 0, 1357.926025390625
64, 0, 0, 1348.497924804688
65, 0, 0, 1340.399169921875
66, 0, 0, 1317.784545898438
67, 0, 0, 1302.44677734375
68, 0, 0, 1299.8466796875
69, 0, 0, 1283.484619140625
70, 0, 0, 1273.2646484375
71, 0, 0, 1258.648681640625
72, 0, 0, 1250.096557617188
73, 0, 0, 1246.464965820312
74, 0, 0, 1230.904907226562
75, 0, 0, 1216.034057617188
76, 0, 0, 1217.412719726562
77, 0, 0, 1199.163208007812
78, 0, 0, 1187.22998046875
79, 0, 0, 1175.327392578125
80, 0, 0, 1180.409912109375
81, 0, 0, 1165.383056640625
82, 0, 0, 1153.438232421875
83, 0, 0, 1153.19580078125
84, 0, 0, 1135.92431640625
85, 0, 0, 1123.632568359375
86, 0, 0, 1132.081420898438
87, 0, 0, 1120.41552734375
88, 0, 0, 1114.967651367188
89, 0, 0, 1103.523803710938
90, 0, 0, 1105.97216796875
91, 0, 0, 1087.207397460938
92, 0, 0, 1082.060180664062
93, 0, 0, 1080.840087890625
94, 0, 0, 1074.09326171875
95, 0, 0, 1062.672729492188
96, 0, 0, 1064.794189453125
97, 0, 0, 1057.477905273438
98, 0, 0, 1054.803588867188
99, 0, 0, 1048.3779296875
100, 0, 0, 1045.898559570312
101, 0, 0, 1037.015502929688
102, 0, 0, 1024.877197265625
103, 0, 0, 1030.053344726562
104, 0, 0, 1020.154357910156
105, 0, 0, 1016.462829589844
106, 0, 0, 1016.075500488281
107, 0, 0, 1005.578857421875
108, 0, 0, 998.55224609375
109, 0, 0, 993.7803344726562
110, 0, 0, 992.2308959960938
111, 0, 0, 979.3533935546875
112, 0, 0, 983.656005859375
113, 0, 0, 981.1444091796875
114, 0, 0, 970.4189453125
115, 0, 0, 967.9700317382812
116, 0, 0, 973.3391723632812
117, 0, 0, 960.1613159179688
118, 0, 0, 960.3430786132812
119, 0, 0, 952.6947631835938
120, 0, 0, 956.3565673828125
121, 0, 0, 942.15576171875
122, 0, 0, 947.482421875
123, 0, 0, 940.9462280273438
124, 0, 0, 928.3441162109375
125, 0, 0, 924.60791015625
126, 0, 0, 931.9330444335938
127, 0, 0, 918.3515014648438
128, 0, 0, 927.7645874023438
129, 0, 0, 920.79541015625
130, 0, 0, 909.3064575195312
131, 0, 0, 912.6466674804688
132, 0, 0, 902.831298828125
133, 0, 0, 898.8533935546875
134, 0, 0, 899.860107421875
135, 0, 0, 900.270263671875
136, 0, 0, 886.1454467773438
137, 0, 0, 896.56591796875
138, 0, 0, 889.4618530273438
139, 0, 0, 889.5614624023438
140, 0, 0, 887.919921875
141, 0, 0, 878.6035766601562
142, 0, 0, 878.33837890625
143, 0, 0, 871.833251953125
144, 0, 0, 870.163330078125
145, 0, 0, 874.2164916992188
146, 0, 0, 870.9686279296875
147, 0, 0, 865.823974609375
148, 0, 0, 853.8056640625
149, 0, 0, 848.5023803710938
150, 0, 0, 854.3430786132812
151, 0, 0, 853.1567993164062
152, 0, 0, 852.0377197265625
153, 0, 0, 844.072265625
154, 0, 0, 847.913330078125
155, 0, 0, 841.0354614257812
156, 0, 0, 836.1869506835938
157, 0, 0, 833.9066162109375
158, 0, 0, 839.1660766601562
159, 0, 0, 833.6140747070312
160, 0, 0, 830.6224975585938
161, 0, 0, 830.7130737304688
162, 0, 0, 822.8370971679688
163, 0, 0, 823.8656005859375
164, 0, 0, 816.7305297851562
165, 0, 0, 810.980224609375
166, 0, 0, 817.7933959960938
167, 0, 0, 821.0850219726562
168, 0, 0, 813.5380859375
169, 0, 0, 813.0254516601562
170, 0, 0, 813.0606689453125
171, 0, 0, 809.7021484375
172, 0, 0, 805.4383544921875
173, 0, 0, 794.3683471679688
174, 0, 0, 793.0669555664062
175, 0, 0, 802.2468872070312
176, 0, 0, 793.5234375
177, 0, 0, 793.5568237304688
178, 0, 0, 799.816650390625
179, 0, 0, 790.085205078125
