# TOPAS Version: 3.3.p1
# Parameter File: Test.txt
# Results for scorer MLIC_Scorer
# Scored in component: MLIC
# X in 180 bins of 0.177778 cm
# Y in 1 bin  of 10 cm
# Z in 1 bin  of 10 cm
# EnergyDeposit ( MeV ) : Sum   
0, 0, 0, 0
1, 0, 0, 0
2, 0, 0, 0
3, 0, 0, 0
4, 0, 0, 0
5, 0, 0, 0
6, 0, 0, 0
7, 0, 0, 0
8, 0, 0, 0
9, 0, 0, 0
10, 0, 0, 0
11, 0, 0, 0
12, 0, 0, 0
13, 0, 0, 0
14, 0, 0, 0
15, 0, 0, 0
16, 0, 0, 0
17, 0, 0, 0
18, 0, 0, 0
19, 0, 0, 0
20, 0, 0, 0
21, 0, 0, 0
22, 0, 0, 0
23, 0, 0, 0
24, 0, 0, 0
25, 0, 0, 0
26, 0, 0, 0
27, 0, 0, 0
28, 0, 0, 0
29, 0, 0, 0
30, 0, 0, 0
31, 0, 0, 0
32, 0, 0, 0
33, 0, 0, 0
34, 0, 0, 0
35, 0, 0, 0
36, 0, 0, 0
37, 0, 0, 0
38, 0, 0, 0
39, 0, 0, 0
40, 0, 0, 0
41, 0, 0, 0
42, 0, 0, 0
43, 0, 0, 0
44, 0, 0, 0
45, 0, 0, 0
46, 0, 0, 0
47, 0, 0, 0
48, 0, 0, 0
49, 0, 0, 0
50, 0, 0, 0
51, 0, 0, 0
52, 0, 0, 0
53, 0, 0, 0
54, 0, 0, 0
55, 0, 0, 0
56, 0, 0, 0
57, 0, 0, 0
58, 0, 0, 0
59, 0, 0, 0
60, 0, 0, 0
61, 0, 0, 0
62, 0, 0, 7.958866596221924
63, 0, 0, 21.40054130554199
64, 0, 0, 31.12824630737305
65, 0, 0, 104.3112716674805
66, 0, 0, 202.707763671875
67, 0, 0, 231.1334533691406
68, 0, 0, 340.55029296875
69, 0, 0, 335.5956115722656
70, 0, 0, 301.2781372070312
71, 0, 0, 246.0556030273438
72, 0, 0, 219.7527465820312
73, 0, 0, 210.8376770019531
74, 0, 0, 189.5367584228516
75, 0, 0, 176.9978637695312
76, 0, 0, 166.5171051025391
77, 0, 0, 161.2265777587891
78, 0, 0, 152.1329956054688
79, 0, 0, 146.7059783935547
80, 0, 0, 142.0575408935547
81, 0, 0, 137.5388488769531
82, 0, 0, 134.1832122802734
83, 0, 0, 129.0864715576172
84, 0, 0, 126.1987762451172
85, 0, 0, 123.9200668334961
86, 0, 0, 120.0064849853516
87, 0, 0, 116.9129409790039
88, 0, 0, 114.0496444702148
89, 0, 0, 110.9478149414062
90, 0, 0, 111.6179733276367
91, 0, 0, 107.6419982910156
92, 0, 0, 105.5262680053711
93, 0, 0, 105.6785583496094
94, 0, 0, 102.4145812988281
95, 0, 0, 102.6754531860352
96, 0, 0, 100.2172317504883
97, 0, 0, 99.47026824951172
98, 0, 0, 96.2371826171875
99, 0, 0, 95.57759857177734
100, 0, 0, 93.04299926757812
101, 0, 0, 91.43800354003906
102, 0, 0, 92.66347503662109
103, 0, 0, 91.74847412109375
104, 0, 0, 89.7296142578125
105, 0, 0, 88.21465301513672
106, 0, 0, 88.60145568847656
107, 0, 0, 85.33266448974609
108, 0, 0, 86.95699310302734
109, 0, 0, 85.11583709716797
110, 0, 0, 84.38752746582031
111, 0, 0, 84.30084991455078
112, 0, 0, 85.23066711425781
113, 0, 0, 81.27517700195312
114, 0, 0, 80.49919891357422
115, 0, 0, 79.29573822021484
116, 0, 0, 80.71727752685547
117, 0, 0, 78.16172790527344
118, 0, 0, 77.81948852539062
119, 0, 0, 79.522216796875
120, 0, 0, 77.67372131347656
121, 0, 0, 74.47768402099609
122, 0, 0, 76.12940216064453
123, 0, 0, 77.19387054443359
124, 0, 0, 74.28947448730469
125, 0, 0, 72.03715515136719
126, 0, 0, 74.09629821777344
127, 0, 0, 73.09914398193359
128, 0, 0, 73.27121734619141
129, 0, 0, 73.28170776367188
130, 0, 0, 72.154541015625
131, 0, 0, 71.03368377685547
132, 0, 0, 70.89420318603516
133, 0, 0, 71.66477966308594
134, 0, 0, 69.74148559570312
135, 0, 0, 68.86063385009766
136, 0, 0, 68.45387268066406
137, 0, 0, 69.31162261962891
138, 0, 0, 69.43272399902344
139, 0, 0, 69.33571624755859
140, 0, 0, 66.81082153320312
141, 0, 0, 66.98028564453125
142, 0, 0, 64.67046356201172
143, 0, 0, 66.51183319091797
144, 0, 0, 65.94350433349609
145, 0, 0, 67.35723114013672
146, 0, 0, 67.357177734375
147, 0, 0, 67.75190734863281
148, 0, 0, 65.72626495361328
149, 0, 0, 65.00936126708984
150, 0, 0, 65.25994110107422
151, 0, 0, 65.09058380126953
152, 0, 0, 63.46935653686523
153, 0, 0, 64.36179351806641
154, 0, 0, 62.2607307434082
155, 0, 0, 61.32939147949219
156, 0, 0, 63.83037567138672
157, 0, 0, 62.08039855957031
158, 0, 0, 59.54469680786133
159, 0, 0, 60.73387145996094
160, 0, 0, 61.48169708251953
161, 0, 0, 61.46011734008789
162, 0, 0, 61.25304794311523
163, 0, 0, 60.68152236938477
164, 0, 0, 61.112060546875
165, 0, 0, 59.31888961791992
166, 0, 0, 61.80090713500977
167, 0, 0, 59.93384170532227
168, 0, 0, 59.88805770874023
169, 0, 0, 60.64921188354492
170, 0, 0, 58.12815856933594
171, 0, 0, 56.47941589355469
172, 0, 0, 59.22396469116211
173, 0, 0, 57.60619735717773
174, 0, 0, 58.21662139892578
175, 0, 0, 59.84649276733398
176, 0, 0, 58.76364898681641
177, 0, 0, 58.07166290283203
178, 0, 0, 57.92330551147461
179, 0, 0, 55.94088363647461
