# TOPAS Version: 3.3.p1
# Parameter File: Test.txt
# Results for scorer MLIC_Scorer
# Scored in component: MLIC
# X in 180 bins of 0.177778 cm
# Y in 1 bin  of 10 cm
# Z in 1 bin  of 10 cm
# EnergyDeposit ( MeV ) : Sum   
0, 0, 0, 0
1, 0, 0, 0
2, 0, 0, 0
3, 0, 0, 0
4, 0, 0, 0
5, 0, 0, 0
6, 0, 0, 0
7, 0, 0, 0
8, 0, 0, 0
9, 0, 0, 0.003995730075985193
10, 0, 0, 0
11, 0, 0, 0
12, 0, 0, 0
13, 0, 0, 0
14, 0, 0, 0
15, 0, 0, 0
16, 0, 0, 0
17, 0, 0, 0
18, 0, 0, 0
19, 0, 0, 0
20, 0, 0, 0
21, 0, 0, 0
22, 0, 0, 0
23, 0, 0, 0
24, 0, 0, 0
25, 0, 0, 0
26, 0, 0, 0
27, 0, 0, 0
28, 0, 0, 0
29, 0, 0, 0
30, 0, 0, 0
31, 0, 0, 0
32, 0, 0, 0
33, 0, 0, 0
34, 0, 0, 0
35, 0, 0, 0
36, 0, 0, 0
37, 0, 0, 0
38, 0, 0, 0
39, 0, 0, 0
40, 0, 0, 0
41, 0, 0, 0
42, 0, 0, 0.0008534309454262257
43, 0, 0, 0
44, 0, 0, 0
45, 0, 0, 0
46, 0, 0, 0
47, 0, 0, 0
48, 0, 0, 0
49, 0, 0, 0
50, 0, 0, 0
51, 0, 0, 0
52, 0, 0, 0
53, 0, 0, 0
54, 0, 0, 0
55, 0, 0, 0
56, 0, 0, 0
57, 0, 0, 0
58, 0, 0, 18.33576965332031
59, 0, 0, 173.2597198486328
60, 0, 0, 658.2431640625
61, 0, 0, 1403.775146484375
62, 0, 0, 2552.523193359375
63, 0, 0, 3902.57373046875
64, 0, 0, 4844.33349609375
65, 0, 0, 5060.99365234375
66, 0, 0, 4685.9345703125
67, 0, 0, 4051.201416015625
68, 0, 0, 3587.998046875
69, 0, 0, 3211.077392578125
70, 0, 0, 2957.05517578125
71, 0, 0, 2758.233642578125
72, 0, 0, 2611.404296875
73, 0, 0, 2479.967529296875
74, 0, 0, 2365.426513671875
75, 0, 0, 2276.269775390625
76, 0, 0, 2192.002685546875
77, 0, 0, 2116.66748046875
78, 0, 0, 2055.50146484375
79, 0, 0, 2003.26123046875
80, 0, 0, 1949.288818359375
81, 0, 0, 1897.435791015625
82, 0, 0, 1850.729125976562
83, 0, 0, 1801.387573242188
84, 0, 0, 1768.792236328125
85, 0, 0, 1732.879272460938
86, 0, 0, 1700.217407226562
87, 0, 0, 1669.116455078125
88, 0, 0, 1636.07958984375
89, 0, 0, 1601.875122070312
90, 0, 0, 1585.095581054688
91, 0, 0, 1555.2568359375
92, 0, 0, 1529.89306640625
93, 0, 0, 1512.6025390625
94, 0, 0, 1489.682495117188
95, 0, 0, 1469.95166015625
96, 0, 0, 1453.102172851562
97, 0, 0, 1445.01025390625
98, 0, 0, 1420.02197265625
99, 0, 0, 1400.765502929688
100, 0, 0, 1375.511352539062
101, 0, 0, 1368.7138671875
102, 0, 0, 1355.326782226562
103, 0, 0, 1336.256958007812
104, 0, 0, 1319.466552734375
105, 0, 0, 1311.7119140625
106, 0, 0, 1298.517211914062
107, 0, 0, 1286.79736328125
108, 0, 0, 1268.95556640625
109, 0, 0, 1257.819946289062
110, 0, 0, 1255.629028320312
111, 0, 0, 1240.260986328125
112, 0, 0, 1226.6416015625
113, 0, 0, 1214.391235351562
114, 0, 0, 1213.234008789062
115, 0, 0, 1199.810546875
116, 0, 0, 1189.982543945312
117, 0, 0, 1184.039306640625
118, 0, 0, 1170.596557617188
119, 0, 0, 1165.174194335938
120, 0, 0, 1158.73486328125
121, 0, 0, 1150.490966796875
122, 0, 0, 1137.001220703125
123, 0, 0, 1128.739379882812
124, 0, 0, 1130.239013671875
125, 0, 0, 1119.29150390625
126, 0, 0, 1104.35791015625
127, 0, 0, 1101.295654296875
128, 0, 0, 1093.007446289062
129, 0, 0, 1093.680419921875
130, 0, 0, 1079.297485351562
131, 0, 0, 1067.75
132, 0, 0, 1068.067016601562
133, 0, 0, 1054.990966796875
134, 0, 0, 1049.038940429688
135, 0, 0, 1047.1103515625
136, 0, 0, 1040.424194335938
137, 0, 0, 1029.814453125
138, 0, 0, 1029.863159179688
139, 0, 0, 1025.553100585938
140, 0, 0, 1023.465515136719
141, 0, 0, 1009.2841796875
142, 0, 0, 1008.810546875
143, 0, 0, 1008.375244140625
144, 0, 0, 998.0271606445312
145, 0, 0, 999.44580078125
146, 0, 0, 996.2704467773438
147, 0, 0, 982.5399780273438
148, 0, 0, 978.3529663085938
149, 0, 0, 972.0702514648438
150, 0, 0, 976.8367309570312
151, 0, 0, 973.491943359375
152, 0, 0, 969.7499389648438
153, 0, 0, 965.851806640625
154, 0, 0, 958.7095947265625
155, 0, 0, 954.0105590820312
156, 0, 0, 948.7949829101562
157, 0, 0, 945.340576171875
158, 0, 0, 944.7724609375
159, 0, 0, 941.0510864257812
160, 0, 0, 931.2434692382812
161, 0, 0, 923.9730224609375
162, 0, 0, 921.63671875
163, 0, 0, 917.5656127929688
164, 0, 0, 915.9364013671875
165, 0, 0, 910.6381225585938
166, 0, 0, 910.2740478515625
167, 0, 0, 904.2337646484375
168, 0, 0, 901.205810546875
169, 0, 0, 895.42822265625
170, 0, 0, 888.2913208007812
171, 0, 0, 895.7658081054688
172, 0, 0, 883.7576293945312
173, 0, 0, 888.6499633789062
174, 0, 0, 881.5901489257812
175, 0, 0, 872.2913818359375
176, 0, 0, 880.390869140625
177, 0, 0, 873.920166015625
178, 0, 0, 872.1644897460938
179, 0, 0, 865.519775390625
