# TOPAS Version: 3.3.p1
# Parameter File: Test.txt
# Results for scorer MLIC_Scorer
# Scored in component: MLIC
# X in 180 bins of 0.177778 cm
# Y in 1 bin  of 10 cm
# Z in 1 bin  of 10 cm
# EnergyDeposit ( MeV ) : Sum   
0, 0, 0, 0
1, 0, 0, 0
2, 0, 0, 0
3, 0, 0, 0
4, 0, 0, 0
5, 0, 0, 0
6, 0, 0, 0
7, 0, 0, 0
8, 0, 0, 0
9, 0, 0, 0
10, 0, 0, 0
11, 0, 0, 0
12, 0, 0, 0
13, 0, 0, 0.03624187037348747
14, 0, 0, 0
15, 0, 0, 0.001755611738190055
16, 0, 0, 51.59660720825195
17, 0, 0, 234.5683288574219
18, 0, 0, 771.7543334960938
19, 0, 0, 1844.216064453125
20, 0, 0, 3156.53759765625
21, 0, 0, 4415.6044921875
22, 0, 0, 5069.20263671875
23, 0, 0, 4887.115234375
24, 0, 0, 4409.94287109375
25, 0, 0, 3885.78955078125
26, 0, 0, 3407.64501953125
27, 0, 0, 3105.622314453125
28, 0, 0, 2883.8408203125
29, 0, 0, 2705.952392578125
30, 0, 0, 2565.734130859375
31, 0, 0, 2440.70458984375
32, 0, 0, 2332.534423828125
33, 0, 0, 2247.267822265625
34, 0, 0, 2165.886962890625
35, 0, 0, 2090.29052734375
36, 0, 0, 2040.17724609375
37, 0, 0, 1975.735107421875
38, 0, 0, 1928.74658203125
39, 0, 0, 1874.604858398438
40, 0, 0, 1837.532104492188
41, 0, 0, 1792.015502929688
42, 0, 0, 1750.040283203125
43, 0, 0, 1728.369750976562
44, 0, 0, 1683.248046875
45, 0, 0, 1654.262939453125
46, 0, 0, 1620.752563476562
47, 0, 0, 1606.594970703125
48, 0, 0, 1576.221923828125
49, 0, 0, 1550.975830078125
50, 0, 0, 1528.725463867188
51, 0, 0, 1508.386840820312
52, 0, 0, 1485.884033203125
53, 0, 0, 1463.80712890625
54, 0, 0, 1448.89111328125
55, 0, 0, 1422.45751953125
56, 0, 0, 1411.494506835938
57, 0, 0, 1391.56201171875
58, 0, 0, 1380.669189453125
59, 0, 0, 1366.819580078125
60, 0, 0, 1353.08447265625
61, 0, 0, 1335.8046875
62, 0, 0, 1314.383911132812
63, 0, 0, 1311.249389648438
64, 0, 0, 1291.14013671875
65, 0, 0, 1285.347045898438
66, 0, 0, 1263.201171875
67, 0, 0, 1259.366943359375
68, 0, 0, 1252.394775390625
69, 0, 0, 1238.045532226562
70, 0, 0, 1222.935791015625
71, 0, 0, 1223.115112304688
72, 0, 0, 1198.531372070312
73, 0, 0, 1193.29638671875
74, 0, 0, 1179.587646484375
75, 0, 0, 1181.837890625
76, 0, 0, 1172.351196289062
77, 0, 0, 1162.528930664062
78, 0, 0, 1146.1806640625
79, 0, 0, 1148.952880859375
80, 0, 0, 1139.892822265625
81, 0, 0, 1129.922729492188
82, 0, 0, 1118.026977539062
83, 0, 0, 1110.56787109375
84, 0, 0, 1093.520385742188
85, 0, 0, 1101.263549804688
86, 0, 0, 1086.672241210938
87, 0, 0, 1082.10009765625
88, 0, 0, 1077.211303710938
89, 0, 0, 1068.672485351562
90, 0, 0, 1062.553100585938
91, 0, 0, 1062.83837890625
92, 0, 0, 1057.926635742188
93, 0, 0, 1049.670288085938
94, 0, 0, 1044.9814453125
95, 0, 0, 1038.44384765625
96, 0, 0, 1026.4482421875
97, 0, 0, 1026.724975585938
98, 0, 0, 1017.959655761719
99, 0, 0, 1010.332214355469
100, 0, 0, 1007.405883789062
101, 0, 0, 1004.909545898438
102, 0, 0, 997.0994262695312
103, 0, 0, 995.2451171875
104, 0, 0, 988.4885864257812
105, 0, 0, 990.2177124023438
106, 0, 0, 981.35791015625
107, 0, 0, 981.8678588867188
108, 0, 0, 963.7347412109375
109, 0, 0, 966.8864135742188
110, 0, 0, 963.8087158203125
111, 0, 0, 960.1767578125
112, 0, 0, 951.8604125976562
113, 0, 0, 954.1824951171875
114, 0, 0, 940.104248046875
115, 0, 0, 941.201416015625
116, 0, 0, 934.478271484375
117, 0, 0, 934.5416870117188
118, 0, 0, 931.18017578125
119, 0, 0, 929.6324462890625
120, 0, 0, 920.473876953125
121, 0, 0, 921.7734375
122, 0, 0, 919.0930786132812
123, 0, 0, 912.505615234375
124, 0, 0, 914.8041381835938
125, 0, 0, 906.8717041015625
126, 0, 0, 904.40380859375
127, 0, 0, 899.1510009765625
128, 0, 0, 904.3104248046875
129, 0, 0, 893.8214721679688
130, 0, 0, 888.2501831054688
131, 0, 0, 886.166748046875
132, 0, 0, 885.3202514648438
133, 0, 0, 876.9005737304688
134, 0, 0, 875.8841552734375
135, 0, 0, 874.435546875
136, 0, 0, 864.036865234375
137, 0, 0, 864.937744140625
138, 0, 0, 866.4185791015625
139, 0, 0, 863.8551025390625
140, 0, 0, 854.569580078125
141, 0, 0, 853.0447998046875
142, 0, 0, 855.99169921875
143, 0, 0, 851.2759399414062
144, 0, 0, 847.2666625976562
145, 0, 0, 850.0523071289062
146, 0, 0, 849.329345703125
147, 0, 0, 839.0536499023438
148, 0, 0, 846.5660400390625
149, 0, 0, 843.068603515625
150, 0, 0, 843.8759765625
151, 0, 0, 830.8763427734375
152, 0, 0, 830.3552856445312
153, 0, 0, 818.7050170898438
154, 0, 0, 827.5048828125
155, 0, 0, 817.1632080078125
156, 0, 0, 815.5776977539062
157, 0, 0, 816.399169921875
158, 0, 0, 812.2694091796875
159, 0, 0, 815.6843872070312
160, 0, 0, 810.725341796875
161, 0, 0, 802.1298828125
162, 0, 0, 804.1604614257812
163, 0, 0, 798.0232543945312
164, 0, 0, 812.9324340820312
165, 0, 0, 806.377685546875
166, 0, 0, 798.3980712890625
167, 0, 0, 793.3853759765625
168, 0, 0, 790.1891479492188
169, 0, 0, 794.4005737304688
170, 0, 0, 789.8328247070312
171, 0, 0, 791.7850952148438
172, 0, 0, 789.8021240234375
173, 0, 0, 786.7940673828125
174, 0, 0, 786.644775390625
175, 0, 0, 788.3399658203125
176, 0, 0, 784.4963989257812
177, 0, 0, 772.5148315429688
178, 0, 0, 772.7493286132812
179, 0, 0, 769.760498046875
