# TOPAS Version: 3.3.p1
# Parameter File: Test.txt
# Results for scorer MLIC_Scorer
# Scored in component: MLIC
# X in 180 bins of 0.183333 cm
# Y in 1 bin  of 10 cm
# Z in 1 bin  of 10 cm
# EnergyDeposit ( MeV ) : Sum   
0, 0, 0, 0
1, 0, 0, 0
2, 0, 0, 0
3, 0, 0, 0
4, 0, 0, 0.02575678378343582
5, 0, 0, 0
6, 0, 0, 0
7, 0, 0, 0
8, 0, 0, 0
9, 0, 0, 0
10, 0, 0, 0
11, 0, 0, 0
12, 0, 0, 0
13, 0, 0, 0
14, 0, 0, 0
15, 0, 0, 0
16, 0, 0, 0
17, 0, 0, 0
18, 0, 0, 0
19, 0, 0, 0
20, 0, 0, 0
21, 0, 0, 0
22, 0, 0, 0
23, 0, 0, 0
24, 0, 0, 0
25, 0, 0, 0
26, 0, 0, 0
27, 0, 0, 0
28, 0, 0, 0
29, 0, 0, 0
30, 0, 0, 0
31, 0, 0, 34.49040985107422
32, 0, 0, 167.3535461425781
33, 0, 0, 439.4512939453125
34, 0, 0, 1271.975708007812
35, 0, 0, 2723.083984375
36, 0, 0, 4231.55908203125
37, 0, 0, 5109.330078125
38, 0, 0, 5261.80322265625
39, 0, 0, 4636.0302734375
40, 0, 0, 4042.8818359375
41, 0, 0, 3602.721435546875
42, 0, 0, 3260.38671875
43, 0, 0, 3010.74462890625
44, 0, 0, 2804.2734375
45, 0, 0, 2648.99755859375
46, 0, 0, 2513.0673828125
47, 0, 0, 2415.12353515625
48, 0, 0, 2310.376220703125
49, 0, 0, 2233.890625
50, 0, 0, 2151.96240234375
51, 0, 0, 2088.7490234375
52, 0, 0, 2020.11767578125
53, 0, 0, 1977.796630859375
54, 0, 0, 1931.717895507812
55, 0, 0, 1880.006958007812
56, 0, 0, 1833.114135742188
57, 0, 0, 1799.7685546875
58, 0, 0, 1764.815063476562
59, 0, 0, 1720.323852539062
60, 0, 0, 1689.97265625
61, 0, 0, 1669.511596679688
62, 0, 0, 1639.008422851562
63, 0, 0, 1608.667236328125
64, 0, 0, 1594.0126953125
65, 0, 0, 1564.853637695312
66, 0, 0, 1543.20703125
67, 0, 0, 1520.38916015625
68, 0, 0, 1496.9267578125
69, 0, 0, 1477.60595703125
70, 0, 0, 1466.99365234375
71, 0, 0, 1436.978881835938
72, 0, 0, 1423.596069335938
73, 0, 0, 1418.186157226562
74, 0, 0, 1390.8095703125
75, 0, 0, 1380.232666015625
76, 0, 0, 1365.526123046875
77, 0, 0, 1344.850341796875
78, 0, 0, 1333.235961914062
79, 0, 0, 1318.117553710938
80, 0, 0, 1309.069946289062
81, 0, 0, 1297.228881835938
82, 0, 0, 1279.393676757812
83, 0, 0, 1269.910278320312
84, 0, 0, 1260.098754882812
85, 0, 0, 1253.343017578125
86, 0, 0, 1244.836303710938
87, 0, 0, 1222.205200195312
88, 0, 0, 1226.012084960938
89, 0, 0, 1210.717529296875
90, 0, 0, 1192.43896484375
91, 0, 0, 1192.06787109375
92, 0, 0, 1182.730346679688
93, 0, 0, 1172.824829101562
94, 0, 0, 1161.086059570312
95, 0, 0, 1168.886474609375
96, 0, 0, 1145.817016601562
97, 0, 0, 1140.03857421875
98, 0, 0, 1139.937377929688
99, 0, 0, 1125.507690429688
100, 0, 0, 1119.942993164062
101, 0, 0, 1115.271850585938
102, 0, 0, 1105.302856445312
103, 0, 0, 1105.038452148438
104, 0, 0, 1092.901123046875
105, 0, 0, 1092.271362304688
106, 0, 0, 1081.223388671875
107, 0, 0, 1082.368408203125
108, 0, 0, 1071.725830078125
109, 0, 0, 1064.013793945312
110, 0, 0, 1047.807250976562
111, 0, 0, 1043.597534179688
112, 0, 0, 1043.320434570312
113, 0, 0, 1038.92333984375
114, 0, 0, 1030.4091796875
115, 0, 0, 1025.639526367188
116, 0, 0, 1028.707763671875
117, 0, 0, 1020.313232421875
118, 0, 0, 1015.264343261719
119, 0, 0, 1010.958435058594
120, 0, 0, 1004.74169921875
121, 0, 0, 996.5065307617188
122, 0, 0, 995.60205078125
123, 0, 0, 989.4593505859375
124, 0, 0, 987.3579711914062
125, 0, 0, 985.0310668945312
126, 0, 0, 975.4143676757812
127, 0, 0, 971.037353515625
128, 0, 0, 970.6600341796875
129, 0, 0, 963.1196899414062
130, 0, 0, 960.1517944335938
131, 0, 0, 961.52490234375
132, 0, 0, 951.8206176757812
133, 0, 0, 947.4265747070312
134, 0, 0, 947.0585327148438
135, 0, 0, 942.0364379882812
136, 0, 0, 938.0029907226562
137, 0, 0, 926.403076171875
138, 0, 0, 930.4608764648438
139, 0, 0, 922.3732299804688
140, 0, 0, 927.3546752929688
141, 0, 0, 921.995361328125
142, 0, 0, 922.5664672851562
143, 0, 0, 919.1239013671875
144, 0, 0, 901.8139038085938
145, 0, 0, 905.6913452148438
146, 0, 0, 899.59423828125
147, 0, 0, 902.5300903320312
148, 0, 0, 892.1552734375
149, 0, 0, 895.1701049804688
150, 0, 0, 896.5087280273438
151, 0, 0, 887.144775390625
152, 0, 0, 879.25439453125
153, 0, 0, 887.1197509765625
154, 0, 0, 872.2249145507812
155, 0, 0, 873.5283813476562
156, 0, 0, 865.7179565429688
157, 0, 0, 872.2823486328125
158, 0, 0, 867.8737182617188
159, 0, 0, 864.4592895507812
160, 0, 0, 861.0594482421875
161, 0, 0, 858.9611206054688
162, 0, 0, 856.3858642578125
163, 0, 0, 855.8869018554688
164, 0, 0, 852.4146728515625
165, 0, 0, 849.8167114257812
166, 0, 0, 846.5401611328125
167, 0, 0, 848.000244140625
168, 0, 0, 844.88525390625
169, 0, 0, 838.7828979492188
170, 0, 0, 841.2493896484375
171, 0, 0, 833.3683471679688
172, 0, 0, 842.478271484375
173, 0, 0, 831.0517578125
174, 0, 0, 832.5140991210938
175, 0, 0, 835.4563598632812
176, 0, 0, 822.2061767578125
177, 0, 0, 823.1043701171875
178, 0, 0, 820.1798706054688
179, 0, 0, 821.9126586914062
