# TOPAS Version: 3.3.p1
# Parameter File: Test.txt
# Results for scorer MLIC_Scorer
# Scored in component: MLIC
# X in 180 bins of 0.177778 cm
# Y in 1 bin  of 10 cm
# Z in 1 bin  of 10 cm
# EnergyDeposit ( MeV ) : Sum   
0, 0, 0, 0
1, 0, 0, 0
2, 0, 0, 0
3, 0, 0, 11.73739624023438
4, 0, 0, 104.4531173706055
5, 0, 0, 370.96630859375
6, 0, 0, 1277.949951171875
7, 0, 0, 2524.942626953125
8, 0, 0, 4069.63037109375
9, 0, 0, 4841.1728515625
10, 0, 0, 5079.099609375
11, 0, 0, 4580.78125
12, 0, 0, 4112.7470703125
13, 0, 0, 3622.68408203125
14, 0, 0, 3240.3662109375
15, 0, 0, 2976.295166015625
16, 0, 0, 2774.389892578125
17, 0, 0, 2618.8798828125
18, 0, 0, 2491.89013671875
19, 0, 0, 2380.132080078125
20, 0, 0, 2286.607666015625
21, 0, 0, 2201.800048828125
22, 0, 0, 2123.916015625
23, 0, 0, 2066.466064453125
24, 0, 0, 2001.444458007812
25, 0, 0, 1949.809814453125
26, 0, 0, 1898.313842773438
27, 0, 0, 1857.615478515625
28, 0, 0, 1811.550048828125
29, 0, 0, 1778.0126953125
30, 0, 0, 1733.18017578125
31, 0, 0, 1702.390747070312
32, 0, 0, 1674.270874023438
33, 0, 0, 1646.7294921875
34, 0, 0, 1604.441284179688
35, 0, 0, 1600.913696289062
36, 0, 0, 1569.268188476562
37, 0, 0, 1539.391479492188
38, 0, 0, 1520.736938476562
39, 0, 0, 1492.374877929688
40, 0, 0, 1471.289428710938
41, 0, 0, 1449.403930664062
42, 0, 0, 1436.96435546875
43, 0, 0, 1419.664672851562
44, 0, 0, 1406.968017578125
45, 0, 0, 1386.802978515625
46, 0, 0, 1365.654052734375
47, 0, 0, 1350.966064453125
48, 0, 0, 1339.608642578125
49, 0, 0, 1325.262817382812
50, 0, 0, 1310.906982421875
51, 0, 0, 1293.999389648438
52, 0, 0, 1276.966796875
53, 0, 0, 1279.354248046875
54, 0, 0, 1259.476196289062
55, 0, 0, 1251.883666992188
56, 0, 0, 1243.050415039062
57, 0, 0, 1230.596435546875
58, 0, 0, 1217.248901367188
59, 0, 0, 1213.324096679688
60, 0, 0, 1199.500366210938
61, 0, 0, 1189.455200195312
62, 0, 0, 1179.498291015625
63, 0, 0, 1176.700805664062
64, 0, 0, 1166.185546875
65, 0, 0, 1152.176513671875
66, 0, 0, 1147.2998046875
67, 0, 0, 1138.956298828125
68, 0, 0, 1125.50244140625
69, 0, 0, 1121.604614257812
70, 0, 0, 1116.849243164062
71, 0, 0, 1110.889526367188
72, 0, 0, 1102.507446289062
73, 0, 0, 1093.811157226562
74, 0, 0, 1090.033935546875
75, 0, 0, 1079.563354492188
76, 0, 0, 1067.475219726562
77, 0, 0, 1070.132446289062
78, 0, 0, 1065.902221679688
79, 0, 0, 1062.216430664062
80, 0, 0, 1043.936401367188
81, 0, 0, 1047.242309570312
82, 0, 0, 1037.84130859375
83, 0, 0, 1027.74365234375
84, 0, 0, 1024.083129882812
85, 0, 0, 1024.10791015625
86, 0, 0, 1026.2568359375
87, 0, 0, 1012.968933105469
88, 0, 0, 1002.043273925781
89, 0, 0, 995.7941284179688
90, 0, 0, 1003.647888183594
91, 0, 0, 991.3446655273438
92, 0, 0, 988.093017578125
93, 0, 0, 974.3349609375
94, 0, 0, 971.8507690429688
95, 0, 0, 969.9109497070312
96, 0, 0, 966.4568481445312
97, 0, 0, 963.9353637695312
98, 0, 0, 956.6409912109375
99, 0, 0, 955.946044921875
100, 0, 0, 946.6848754882812
101, 0, 0, 955.198486328125
102, 0, 0, 940.7705688476562
103, 0, 0, 947.7527465820312
104, 0, 0, 935.93212890625
105, 0, 0, 931.539306640625
106, 0, 0, 930.1144409179688
107, 0, 0, 925.618408203125
108, 0, 0, 919.0579833984375
109, 0, 0, 922.9668579101562
110, 0, 0, 917.8617553710938
111, 0, 0, 903.2186889648438
112, 0, 0, 908.2066040039062
113, 0, 0, 901.9871826171875
114, 0, 0, 901.6055297851562
115, 0, 0, 896.7565307617188
116, 0, 0, 893.7216796875
117, 0, 0, 896.728759765625
118, 0, 0, 895.267822265625
119, 0, 0, 888.6082763671875
120, 0, 0, 890.0894775390625
121, 0, 0, 875.5047607421875
122, 0, 0, 868.7825317382812
123, 0, 0, 870.5823974609375
124, 0, 0, 880.9779052734375
125, 0, 0, 858.1478881835938
126, 0, 0, 860.5531005859375
127, 0, 0, 860.9014892578125
128, 0, 0, 854.0023193359375
129, 0, 0, 852.8756713867188
130, 0, 0, 851.684326171875
131, 0, 0, 849.7185668945312
132, 0, 0, 845.4883422851562
133, 0, 0, 838.4664916992188
134, 0, 0, 840.521240234375
135, 0, 0, 841.1937255859375
136, 0, 0, 841.80615234375
137, 0, 0, 833.061767578125
138, 0, 0, 834.9251708984375
139, 0, 0, 828.6174926757812
140, 0, 0, 828.8369750976562
141, 0, 0, 822.975830078125
142, 0, 0, 823.2993774414062
143, 0, 0, 822.6099243164062
144, 0, 0, 820.6778564453125
145, 0, 0, 814.6610107421875
146, 0, 0, 813.3738403320312
147, 0, 0, 812.9212646484375
148, 0, 0, 817.44140625
149, 0, 0, 810.9067993164062
150, 0, 0, 807.189453125
151, 0, 0, 800.6151123046875
152, 0, 0, 797.9982299804688
153, 0, 0, 799.2232055664062
154, 0, 0, 800.18017578125
155, 0, 0, 798.3787231445312
156, 0, 0, 793.3501586914062
157, 0, 0, 793.4569091796875
158, 0, 0, 787.6300048828125
159, 0, 0, 785.6007690429688
160, 0, 0, 779.2819213867188
161, 0, 0, 791.982421875
162, 0, 0, 785.1149291992188
163, 0, 0, 770.54052734375
164, 0, 0, 776.0926513671875
165, 0, 0, 773.938232421875
166, 0, 0, 774.7992553710938
167, 0, 0, 775.861328125
168, 0, 0, 767.283935546875
169, 0, 0, 771.0955200195312
170, 0, 0, 761.5780029296875
171, 0, 0, 763.0543212890625
172, 0, 0, 769.3506469726562
173, 0, 0, 764.4495239257812
174, 0, 0, 755.5570068359375
175, 0, 0, 755.8341674804688
176, 0, 0, 752.0918579101562
177, 0, 0, 754.391845703125
178, 0, 0, 761.86279296875
179, 0, 0, 749.3973999023438
