# TOPAS Version: 3.3.p1
# Parameter File: Test.txt
# Results for scorer MLIC_Scorer
# Scored in component: MLIC
# X in 180 bins of 0.177778 cm
# Y in 1 bin  of 10 cm
# Z in 1 bin  of 10 cm
# EnergyDeposit ( MeV ) : Sum   
0, 0, 0, 0
1, 0, 0, 0
2, 0, 0, 0
3, 0, 0, 0
4, 0, 0, 0
5, 0, 0, 0
6, 0, 0, 0
7, 0, 0, 0
8, 0, 0, 0
9, 0, 0, 0
10, 0, 0, 0
11, 0, 0, 0
12, 0, 0, 0
13, 0, 0, 0
14, 0, 0, 0
15, 0, 0, 0
16, 0, 0, 0
17, 0, 0, 0
18, 0, 0, 0
19, 0, 0, 0
20, 0, 0, 0
21, 0, 0, 0
22, 0, 0, 0
23, 0, 0, 0
24, 0, 0, 0
25, 0, 0, 0
26, 0, 0, 0
27, 0, 0, 0
28, 0, 0, 0
29, 0, 0, 0
30, 0, 0, 0
31, 0, 0, 0
32, 0, 0, 0.01926151290535927
33, 0, 0, 0
34, 0, 0, 0
35, 0, 0, 0
36, 0, 0, 0
37, 0, 0, 0
38, 0, 0, 0
39, 0, 0, 0
40, 0, 0, 0.04271472617983818
41, 0, 0, 0
42, 0, 0, 0
43, 0, 0, 0
44, 0, 0, 0
45, 0, 0, 0
46, 0, 0, 1.261208057403564
47, 0, 0, 21.26725769042969
48, 0, 0, 177.6906127929688
49, 0, 0, 680.24169921875
50, 0, 0, 1649.779418945312
51, 0, 0, 2909.8251953125
52, 0, 0, 4507.3994140625
53, 0, 0, 5167.232421875
54, 0, 0, 4854.9111328125
55, 0, 0, 4387.72802734375
56, 0, 0, 3926.600341796875
57, 0, 0, 3441.42333984375
58, 0, 0, 3138.742919921875
59, 0, 0, 2908.308837890625
60, 0, 0, 2723.366455078125
61, 0, 0, 2581.467529296875
62, 0, 0, 2448.114990234375
63, 0, 0, 2343.623046875
64, 0, 0, 2251.1708984375
65, 0, 0, 2168.799072265625
66, 0, 0, 2104.041748046875
67, 0, 0, 2032.401245117188
68, 0, 0, 1975.667602539062
69, 0, 0, 1928.2822265625
70, 0, 0, 1881.185180664062
71, 0, 0, 1836.52490234375
72, 0, 0, 1797.612548828125
73, 0, 0, 1760.686157226562
74, 0, 0, 1729.61181640625
75, 0, 0, 1694.149047851562
76, 0, 0, 1663.5224609375
77, 0, 0, 1631.041259765625
78, 0, 0, 1602.984497070312
79, 0, 0, 1581.675048828125
80, 0, 0, 1553.367065429688
81, 0, 0, 1525.014038085938
82, 0, 0, 1518.08447265625
83, 0, 0, 1487.468017578125
84, 0, 0, 1472.0263671875
85, 0, 0, 1445.057006835938
86, 0, 0, 1427.684204101562
87, 0, 0, 1407.294189453125
88, 0, 0, 1398.572387695312
89, 0, 0, 1372.740234375
90, 0, 0, 1361.13623046875
91, 0, 0, 1348.100463867188
92, 0, 0, 1333.464721679688
93, 0, 0, 1318.713134765625
94, 0, 0, 1307.58837890625
95, 0, 0, 1292.200805664062
96, 0, 0, 1281.6982421875
97, 0, 0, 1269.6220703125
98, 0, 0, 1253.347045898438
99, 0, 0, 1249.140747070312
100, 0, 0, 1234.108154296875
101, 0, 0, 1221.881225585938
102, 0, 0, 1217.34521484375
103, 0, 0, 1209.5556640625
104, 0, 0, 1198.07763671875
105, 0, 0, 1184.3056640625
106, 0, 0, 1170.817993164062
107, 0, 0, 1167.511474609375
108, 0, 0, 1155.255249023438
109, 0, 0, 1155.214721679688
110, 0, 0, 1137.164672851562
111, 0, 0, 1137.232543945312
112, 0, 0, 1124.658325195312
113, 0, 0, 1119.015869140625
114, 0, 0, 1116.512329101562
115, 0, 0, 1102.81396484375
116, 0, 0, 1095.920043945312
117, 0, 0, 1089.599975585938
118, 0, 0, 1086.173583984375
119, 0, 0, 1080.565551757812
120, 0, 0, 1068.470336914062
121, 0, 0, 1071.894409179688
122, 0, 0, 1057.661254882812
123, 0, 0, 1047.259399414062
124, 0, 0, 1048.030029296875
125, 0, 0, 1047.630981445312
126, 0, 0, 1035.9951171875
127, 0, 0, 1035.5712890625
128, 0, 0, 1018.92919921875
129, 0, 0, 1018.277221679688
130, 0, 0, 1016.841735839844
131, 0, 0, 1011.307250976562
132, 0, 0, 1008.92138671875
133, 0, 0, 1001.866882324219
134, 0, 0, 995.9352416992188
135, 0, 0, 996.018798828125
136, 0, 0, 978.3329467773438
137, 0, 0, 980.4653930664062
138, 0, 0, 976.4387817382812
139, 0, 0, 977.8427734375
140, 0, 0, 965.8978881835938
141, 0, 0, 964.2631225585938
142, 0, 0, 958.1143188476562
143, 0, 0, 957.6593017578125
144, 0, 0, 951.9471435546875
145, 0, 0, 944.2889404296875
146, 0, 0, 942.945068359375
147, 0, 0, 938.4256591796875
148, 0, 0, 934.1866455078125
149, 0, 0, 931.5322875976562
150, 0, 0, 927.5122680664062
151, 0, 0, 920.8992309570312
152, 0, 0, 918.7838134765625
153, 0, 0, 908.289306640625
154, 0, 0, 914.2820434570312
155, 0, 0, 916.3897094726562
156, 0, 0, 899.1976928710938
157, 0, 0, 897.87158203125
158, 0, 0, 898.9070434570312
159, 0, 0, 888.8526611328125
160, 0, 0, 890.8761596679688
161, 0, 0, 885.4153442382812
162, 0, 0, 888.3384399414062
163, 0, 0, 883.2440185546875
164, 0, 0, 882.3758544921875
165, 0, 0, 884.80908203125
166, 0, 0, 876.1069946289062
167, 0, 0, 875.2664184570312
168, 0, 0, 867.0965576171875
169, 0, 0, 860.2124633789062
170, 0, 0, 860.715087890625
171, 0, 0, 867.1510009765625
172, 0, 0, 861.5134887695312
173, 0, 0, 857.5464477539062
174, 0, 0, 852.2181396484375
175, 0, 0, 847.0247802734375
176, 0, 0, 849.1932373046875
177, 0, 0, 841.2880859375
178, 0, 0, 839.6271362304688
179, 0, 0, 865.26904296875
