# TOPAS Version: 3.3.p1
# Parameter File: Test.txt
# Results for scorer MLIC_Scorer
# Scored in component: MLIC
# X in 180 bins of 0.177778 cm
# Y in 1 bin  of 10 cm
# Z in 1 bin  of 10 cm
# EnergyDeposit ( MeV ) : Sum   
0, 0, 0, 0
1, 0, 0, 0
2, 0, 0, 0
3, 0, 0, 0
4, 0, 0, 0
5, 0, 0, 0
6, 0, 0, 0
7, 0, 0, 0
8, 0, 0, 0
9, 0, 0, 0
10, 0, 0, 0
11, 0, 0, 0
12, 0, 0, 0
13, 0, 0, 0
14, 0, 0, 0
15, 0, 0, 0
16, 0, 0, 0
17, 0, 0, 0
18, 0, 0, 0
19, 0, 0, 0
20, 0, 0, 0
21, 0, 0, 0
22, 0, 0, 0
23, 0, 0, 0
24, 0, 0, 0
25, 0, 0, 0
26, 0, 0, 0
27, 0, 0, 0
28, 0, 0, 0
29, 0, 0, 0
30, 0, 0, 0
31, 0, 0, 0
32, 0, 0, 0
33, 0, 0, 0
34, 0, 0, 0
35, 0, 0, 0
36, 0, 0, 0
37, 0, 0, 0
38, 0, 0, 0
39, 0, 0, 0
40, 0, 0, 0
41, 0, 0, 0
42, 0, 0, 0
43, 0, 0, 0
44, 0, 0, 0
45, 0, 0, 0.01695596426725388
46, 0, 0, 0
47, 0, 0, 0
48, 0, 0, 0
49, 0, 0, 0
50, 0, 0, 0
51, 0, 0, 0
52, 0, 0, 0
53, 0, 0, 0
54, 0, 0, 0
55, 0, 0, 0
56, 0, 0, 0
57, 0, 0, 0
58, 0, 0, 0
59, 0, 0, 0
60, 0, 0, 0
61, 0, 0, 0
62, 0, 0, 0
63, 0, 0, 0
64, 0, 0, 0.00216927332803607
65, 0, 0, 0
66, 0, 0, 0
67, 0, 0, 0
68, 0, 0, 2.662575244903564
69, 0, 0, 36.43759155273438
70, 0, 0, 114.807243347168
71, 0, 0, 442.3872680664062
72, 0, 0, 1171.78466796875
73, 0, 0, 2281.00146484375
74, 0, 0, 3767.567138671875
75, 0, 0, 4730.16064453125
76, 0, 0, 5112.26025390625
77, 0, 0, 4673.07470703125
78, 0, 0, 4154.02587890625
79, 0, 0, 3652.56005859375
80, 0, 0, 3300.18896484375
81, 0, 0, 3007.237548828125
82, 0, 0, 2805.224609375
83, 0, 0, 2636.4208984375
84, 0, 0, 2511.220947265625
85, 0, 0, 2387.13134765625
86, 0, 0, 2293.617919921875
87, 0, 0, 2212.00341796875
88, 0, 0, 2140.965576171875
89, 0, 0, 2074.189697265625
90, 0, 0, 2003.322143554688
91, 0, 0, 1950.05322265625
92, 0, 0, 1904.165893554688
93, 0, 0, 1862.628295898438
94, 0, 0, 1819.39453125
95, 0, 0, 1774.510375976562
96, 0, 0, 1746.974731445312
97, 0, 0, 1709.203491210938
98, 0, 0, 1680.014404296875
99, 0, 0, 1644.962158203125
100, 0, 0, 1624.8623046875
101, 0, 0, 1597.206420898438
102, 0, 0, 1564.704345703125
103, 0, 0, 1543.821044921875
104, 0, 0, 1515.980712890625
105, 0, 0, 1492.521240234375
106, 0, 0, 1473.720825195312
107, 0, 0, 1455.591674804688
108, 0, 0, 1431.243774414062
109, 0, 0, 1430.096923828125
110, 0, 0, 1402.105346679688
111, 0, 0, 1387.668579101562
112, 0, 0, 1359.5859375
113, 0, 0, 1352.953125
114, 0, 0, 1340.718994140625
115, 0, 0, 1332.478515625
116, 0, 0, 1313.082275390625
117, 0, 0, 1300.162231445312
118, 0, 0, 1288.539184570312
119, 0, 0, 1279.587646484375
120, 0, 0, 1263.262329101562
121, 0, 0, 1250.871215820312
122, 0, 0, 1248.733642578125
123, 0, 0, 1239.204833984375
124, 0, 0, 1220.066772460938
125, 0, 0, 1214.2841796875
126, 0, 0, 1200.864990234375
127, 0, 0, 1189.625366210938
128, 0, 0, 1184.720947265625
129, 0, 0, 1170.845336914062
130, 0, 0, 1161.169799804688
131, 0, 0, 1157.37841796875
132, 0, 0, 1147.715454101562
133, 0, 0, 1137.3046875
134, 0, 0, 1129.76025390625
135, 0, 0, 1128.968017578125
136, 0, 0, 1118.98046875
137, 0, 0, 1103.198852539062
138, 0, 0, 1099.720336914062
139, 0, 0, 1100.847045898438
140, 0, 0, 1085.095825195312
141, 0, 0, 1085.312866210938
142, 0, 0, 1076.188720703125
143, 0, 0, 1071.286376953125
144, 0, 0, 1061.201049804688
145, 0, 0, 1051.236328125
146, 0, 0, 1056.709838867188
147, 0, 0, 1045.965576171875
148, 0, 0, 1040.528076171875
149, 0, 0, 1034.94384765625
150, 0, 0, 1026.103759765625
151, 0, 0, 1025.144653320312
152, 0, 0, 1020.968078613281
153, 0, 0, 1012.392150878906
154, 0, 0, 1007.767761230469
155, 0, 0, 1000.280700683594
156, 0, 0, 992.0484619140625
157, 0, 0, 994.7783813476562
158, 0, 0, 989.9928588867188
159, 0, 0, 987.8754272460938
160, 0, 0, 981.3189697265625
161, 0, 0, 969.273193359375
162, 0, 0, 968.2987670898438
163, 0, 0, 962.7317504882812
164, 0, 0, 957.4468994140625
165, 0, 0, 957.7490234375
166, 0, 0, 951.4757690429688
167, 0, 0, 945.30517578125
168, 0, 0, 945.5643310546875
169, 0, 0, 935.590576171875
170, 0, 0, 939.6924438476562
171, 0, 0, 935.19873046875
172, 0, 0, 934.7115478515625
173, 0, 0, 926.2423706054688
174, 0, 0, 925.8707885742188
175, 0, 0, 909.997802734375
176, 0, 0, 916.6573486328125
177, 0, 0, 906.7322998046875
178, 0, 0, 908.6767578125
179, 0, 0, 898.5369262695312
