# TOPAS Version: 3.3.p1
# Parameter File: Test.txt
# Results for scorer MLIC_Scorer
# Scored in component: MLIC
# X in 180 bins of 0.177778 cm
# Y in 1 bin  of 10 cm
# Z in 1 bin  of 10 cm
# EnergyDeposit ( MeV ) : Sum   
0, 0, 0, 0
1, 0, 0, 0
2, 0, 0, 0
3, 0, 0, 0
4, 0, 0, 0
5, 0, 0, 0
6, 0, 0, 0
7, 0, 0, 0
8, 0, 0, 0
9, 0, 0, 0
10, 0, 0, 0
11, 0, 0, 0
12, 0, 0, 0
13, 0, 0, 0.004604287445545197
14, 0, 0, 0
15, 0, 0, 0
16, 0, 0, 0.002263437258079648
17, 0, 0, 0
18, 0, 0, 0
19, 0, 0, 0.009237146936357021
20, 0, 0, 0
21, 0, 0, 0
22, 0, 0, 0.004953624680638313
23, 0, 0, 0
24, 0, 0, 0
25, 0, 0, 0
26, 0, 0, 0
27, 0, 0, 0.0003605085948947817
28, 0, 0, 0
29, 0, 0, 0.04632427170872688
30, 0, 0, 0
31, 0, 0, 0
32, 0, 0, 0
33, 0, 0, 0
34, 0, 0, 0
35, 0, 0, 0.0007944661192595959
36, 0, 0, 53.32868957519531
37, 0, 0, 320.0117797851562
38, 0, 0, 773.2753295898438
39, 0, 0, 1948.3212890625
40, 0, 0, 3234.75634765625
41, 0, 0, 4412.52783203125
42, 0, 0, 4987.4169921875
43, 0, 0, 4923.431640625
44, 0, 0, 4342.32861328125
45, 0, 0, 3808.92578125
46, 0, 0, 3436.24658203125
47, 0, 0, 3111.802001953125
48, 0, 0, 2883.114501953125
49, 0, 0, 2701.64111328125
50, 0, 0, 2558.614013671875
51, 0, 0, 2435.75048828125
52, 0, 0, 2335.762451171875
53, 0, 0, 2240.228515625
54, 0, 0, 2165.7216796875
55, 0, 0, 2096.1337890625
56, 0, 0, 2031.828491210938
57, 0, 0, 1976.105712890625
58, 0, 0, 1921.401245117188
59, 0, 0, 1863.620361328125
60, 0, 0, 1832.216552734375
61, 0, 0, 1791.418334960938
62, 0, 0, 1760.553833007812
63, 0, 0, 1719.671875
64, 0, 0, 1684.351196289062
65, 0, 0, 1652.11572265625
66, 0, 0, 1625.193481445312
67, 0, 0, 1594.814697265625
68, 0, 0, 1571.971313476562
69, 0, 0, 1548.451416015625
70, 0, 0, 1528.65869140625
71, 0, 0, 1511.158935546875
72, 0, 0, 1481.05615234375
73, 0, 0, 1465.646240234375
74, 0, 0, 1437.265747070312
75, 0, 0, 1423.3935546875
76, 0, 0, 1417.083129882812
77, 0, 0, 1390.817626953125
78, 0, 0, 1375.580444335938
79, 0, 0, 1357.568725585938
80, 0, 0, 1352.088623046875
81, 0, 0, 1326.5654296875
82, 0, 0, 1321.275634765625
83, 0, 0, 1306.799682617188
84, 0, 0, 1289.343627929688
85, 0, 0, 1275.860229492188
86, 0, 0, 1268.973510742188
87, 0, 0, 1250.852905273438
88, 0, 0, 1249.451171875
89, 0, 0, 1236.483520507812
90, 0, 0, 1226.570678710938
91, 0, 0, 1222.844604492188
92, 0, 0, 1201.549682617188
93, 0, 0, 1195.544067382812
94, 0, 0, 1188.515991210938
95, 0, 0, 1173.8046875
96, 0, 0, 1169.12158203125
97, 0, 0, 1155.335327148438
98, 0, 0, 1160.22119140625
99, 0, 0, 1143.7314453125
100, 0, 0, 1131.734497070312
101, 0, 0, 1126.31005859375
102, 0, 0, 1116.81005859375
103, 0, 0, 1113.282104492188
104, 0, 0, 1100.020141601562
105, 0, 0, 1093.248046875
106, 0, 0, 1088.654052734375
107, 0, 0, 1085.181640625
108, 0, 0, 1083.35791015625
109, 0, 0, 1067.635131835938
110, 0, 0, 1072.778686523438
111, 0, 0, 1056.500610351562
112, 0, 0, 1053.502319335938
113, 0, 0, 1045.763061523438
114, 0, 0, 1035.355102539062
115, 0, 0, 1040.45751953125
116, 0, 0, 1027.436645507812
117, 0, 0, 1020.288269042969
118, 0, 0, 1018.97216796875
119, 0, 0, 1017.662231445312
120, 0, 0, 1009.063842773438
121, 0, 0, 1003.357666015625
122, 0, 0, 994.0514526367188
123, 0, 0, 997.177734375
124, 0, 0, 987.3081665039062
125, 0, 0, 976.6012573242188
126, 0, 0, 978.9248657226562
127, 0, 0, 976.2040405273438
128, 0, 0, 972.7401123046875
129, 0, 0, 963.0117797851562
130, 0, 0, 957.3521118164062
131, 0, 0, 956.40478515625
132, 0, 0, 955.2066650390625
133, 0, 0, 951.1294555664062
134, 0, 0, 942.9883422851562
135, 0, 0, 940.2416381835938
136, 0, 0, 941.3334350585938
137, 0, 0, 933.4668579101562
138, 0, 0, 930.8023681640625
139, 0, 0, 932.7088012695312
140, 0, 0, 927.4556274414062
141, 0, 0, 913.150634765625
142, 0, 0, 914.57080078125
143, 0, 0, 910.4957885742188
144, 0, 0, 911.0737915039062
145, 0, 0, 906.142578125
146, 0, 0, 901.6138305664062
147, 0, 0, 896.7608032226562
148, 0, 0, 892.8682250976562
149, 0, 0, 891.0518798828125
150, 0, 0, 890.735595703125
151, 0, 0, 885.4815673828125
152, 0, 0, 890.8268432617188
153, 0, 0, 880.1183471679688
154, 0, 0, 881.23388671875
155, 0, 0, 882.1025390625
156, 0, 0, 875.6805419921875
157, 0, 0, 867.9503784179688
158, 0, 0, 871.9220581054688
159, 0, 0, 857.7965087890625
160, 0, 0, 852.274658203125
161, 0, 0, 858.6647338867188
162, 0, 0, 852.2582397460938
163, 0, 0, 858.0980224609375
164, 0, 0, 857.0035400390625
165, 0, 0, 843.6209716796875
166, 0, 0, 847.6282348632812
167, 0, 0, 839.7799072265625
168, 0, 0, 836.9921875
169, 0, 0, 841.4644165039062
170, 0, 0, 835.3902587890625
171, 0, 0, 827.5726318359375
172, 0, 0, 834.6581420898438
173, 0, 0, 828.871826171875
174, 0, 0, 826.8893432617188
175, 0, 0, 826.5840454101562
176, 0, 0, 816.6085205078125
177, 0, 0, 812.2685546875
178, 0, 0, 812.1292114257812
179, 0, 0, 817.6288452148438
