# TOPAS Version: 3.3.p1
# Parameter File: Test.txt
# Results for scorer MLIC_Scorer
# Scored in component: MLIC
# X in 180 bins of 0.177778 cm
# Y in 1 bin  of 10 cm
# Z in 1 bin  of 10 cm
# EnergyDeposit ( MeV ) : Sum   
0, 0, 0, 0
1, 0, 0, 0
2, 0, 0, 0
3, 0, 0, 0
4, 0, 0, 0
5, 0, 0, 0
6, 0, 0, 0
7, 0, 0, 0
8, 0, 0, 0
9, 0, 0, 0
10, 0, 0, 0
11, 0, 0, 0
12, 0, 0, 0
13, 0, 0, 0
14, 0, 0, 0
15, 0, 0, 0
16, 0, 0, 0
17, 0, 0, 0
18, 0, 0, 0
19, 0, 0, 0
20, 0, 0, 0
21, 0, 0, 0
22, 0, 0, 0
23, 0, 0, 0
24, 0, 0, 0
25, 0, 0, 0
26, 0, 0, 0
27, 0, 0, 0
28, 0, 0, 0
29, 0, 0, 0
30, 0, 0, 0
31, 0, 0, 0
32, 0, 0, 0
33, 0, 0, 0
34, 0, 0, 0
35, 0, 0, 0
36, 0, 0, 0
37, 0, 0, 0
38, 0, 0, 0
39, 0, 0, 0
40, 0, 0, 0
41, 0, 0, 0
42, 0, 0, 0
43, 0, 0, 0
44, 0, 0, 0
45, 0, 0, 0
46, 0, 0, 0
47, 0, 0, 0
48, 0, 0, 0
49, 0, 0, 0
50, 0, 0, 0
51, 0, 0, 0
52, 0, 0, 0.02602779306471348
53, 0, 0, 0
54, 0, 0, 0
55, 0, 0, 0
56, 0, 0, 0
57, 0, 0, 0
58, 0, 0, 0
59, 0, 0, 0
60, 0, 0, 0
61, 0, 0, 9.403195381164551
62, 0, 0, 9.634453773498535
63, 0, 0, 39.77339553833008
64, 0, 0, 167.2746124267578
65, 0, 0, 599.1950073242188
66, 0, 0, 1480.950561523438
67, 0, 0, 2573.0234375
68, 0, 0, 3832.517578125
69, 0, 0, 4841.08349609375
70, 0, 0, 5000.94677734375
71, 0, 0, 4616.71044921875
72, 0, 0, 4011.486083984375
73, 0, 0, 3611.973388671875
74, 0, 0, 3214.932373046875
75, 0, 0, 2971.5576171875
76, 0, 0, 2778.100341796875
77, 0, 0, 2617.527587890625
78, 0, 0, 2489.02490234375
79, 0, 0, 2378.918701171875
80, 0, 0, 2281.671630859375
81, 0, 0, 2196.819091796875
82, 0, 0, 2133.159423828125
83, 0, 0, 2060.8466796875
84, 0, 0, 1997.265014648438
85, 0, 0, 1947.2958984375
86, 0, 0, 1900.075561523438
87, 0, 0, 1855.359741210938
88, 0, 0, 1805.288208007812
89, 0, 0, 1764.272216796875
90, 0, 0, 1737.649291992188
91, 0, 0, 1704.404052734375
92, 0, 0, 1673.010375976562
93, 0, 0, 1637.395629882812
94, 0, 0, 1612.28369140625
95, 0, 0, 1583.568603515625
96, 0, 0, 1558.845947265625
97, 0, 0, 1533.2666015625
98, 0, 0, 1517.387573242188
99, 0, 0, 1496.603149414062
100, 0, 0, 1466.244262695312
101, 0, 0, 1448.618286132812
102, 0, 0, 1424.5126953125
103, 0, 0, 1415.025146484375
104, 0, 0, 1399.891723632812
105, 0, 0, 1384.39208984375
106, 0, 0, 1371.5947265625
107, 0, 0, 1348.074584960938
108, 0, 0, 1343.290771484375
109, 0, 0, 1327.58154296875
110, 0, 0, 1315.662963867188
111, 0, 0, 1305.734985351562
112, 0, 0, 1289.693237304688
113, 0, 0, 1269.996826171875
114, 0, 0, 1259.541625976562
115, 0, 0, 1260.549682617188
116, 0, 0, 1237.172241210938
117, 0, 0, 1221.649291992188
118, 0, 0, 1222.428100585938
119, 0, 0, 1216.40185546875
120, 0, 0, 1202.013671875
121, 0, 0, 1185.2578125
122, 0, 0, 1182.911743164062
123, 0, 0, 1164.453002929688
124, 0, 0, 1163.199951171875
125, 0, 0, 1151.104736328125
126, 0, 0, 1148.636840820312
127, 0, 0, 1136.8583984375
128, 0, 0, 1134.328247070312
129, 0, 0, 1117.583129882812
130, 0, 0, 1106.215087890625
131, 0, 0, 1112.067260742188
132, 0, 0, 1104.249389648438
133, 0, 0, 1088.020141601562
134, 0, 0, 1083.293212890625
135, 0, 0, 1076.937866210938
136, 0, 0, 1065.154907226562
137, 0, 0, 1067.492309570312
138, 0, 0, 1061.098999023438
139, 0, 0, 1056.005004882812
140, 0, 0, 1051.909545898438
141, 0, 0, 1050.0751953125
142, 0, 0, 1039.711181640625
143, 0, 0, 1033.248413085938
144, 0, 0, 1024.918212890625
145, 0, 0, 1022.944030761719
146, 0, 0, 1013.247314453125
147, 0, 0, 1011.6767578125
148, 0, 0, 1005.235656738281
149, 0, 0, 998.205078125
150, 0, 0, 991.2628784179688
151, 0, 0, 988.8773803710938
152, 0, 0, 985.1831665039062
153, 0, 0, 975.3690795898438
154, 0, 0, 971.7284545898438
155, 0, 0, 967.7239990234375
156, 0, 0, 970.9815673828125
157, 0, 0, 965.7066650390625
158, 0, 0, 960.3228149414062
159, 0, 0, 960.1961669921875
160, 0, 0, 952.0800170898438
161, 0, 0, 955.4614868164062
162, 0, 0, 938.6150512695312
163, 0, 0, 943.7984619140625
164, 0, 0, 941.0220336914062
165, 0, 0, 931.4662475585938
166, 0, 0, 930.1243896484375
167, 0, 0, 924.1109008789062
168, 0, 0, 922.2014770507812
169, 0, 0, 916.8017578125
170, 0, 0, 910.9042358398438
171, 0, 0, 908.9678955078125
172, 0, 0, 905.5338134765625
173, 0, 0, 903.705078125
174, 0, 0, 902.7722778320312
175, 0, 0, 899.3312377929688
176, 0, 0, 888.017822265625
177, 0, 0, 894.1204833984375
178, 0, 0, 883.5206298828125
179, 0, 0, 882.3642578125
