# TOPAS Version: 3.3.p1
# Parameter File: Test.txt
# Results for scorer MLIC_Scorer
# Scored in component: MLIC
# X in 165 bins of 0.2 cm
# Y in 1 bin  of 10 cm
# Z in 1 bin  of 10 cm
# EnergyDeposit ( MeV ) : Sum   
0, 0, 0, 0
1, 0, 0, 0
2, 0, 0, 0
3, 0, 0, 0
4, 0, 0, 0
5, 0, 0, 0
6, 0, 0, 0
7, 0, 0, 0
8, 0, 0, 0
9, 0, 0, 0
10, 0, 0, 0
11, 0, 0, 0
12, 0, 0, 0
13, 0, 0, 0
14, 0, 0, 0
15, 0, 0, 0
16, 0, 0, 0
17, 0, 0, 0
18, 0, 0, 0
19, 0, 0, 0
20, 0, 0, 0
21, 0, 0, 0
22, 0, 0, 0
23, 0, 0, 0
24, 0, 0, 0
25, 0, 0, 0
26, 0, 0, 0
27, 0, 0, 0
28, 0, 0, 0
29, 0, 0, 0
30, 0, 0, 0
31, 0, 0, 0
32, 0, 0, 0
33, 0, 0, 0
34, 0, 0, 0
35, 0, 0, 0
36, 0, 0, 0
37, 0, 0, 0
38, 0, 0, 0
39, 0, 0, 0
40, 0, 0, 0
41, 0, 0, 0
42, 0, 0, 0
43, 0, 0, 0
44, 0, 0, 0
45, 0, 0, 0
46, 0, 0, 0
47, 0, 0, 0
48, 0, 0, 0
49, 0, 0, 0
50, 0, 0, 0
51, 0, 0, 0
52, 0, 0, 0
53, 0, 0, 0
54, 0, 0, 0
55, 0, 0, 0
56, 0, 0, 0
57, 0, 0, 0
58, 0, 0, 0
59, 0, 0, 0
60, 0, 0, 0
61, 0, 0, 0
62, 0, 0, 13.32121849060059
63, 0, 0, 105.6222534179688
64, 0, 0, 496.2691040039062
65, 0, 0, 1233.888427734375
66, 0, 0, 2840.822021484375
67, 0, 0, 4445.94873046875
68, 0, 0, 5389.75244140625
69, 0, 0, 5542.71435546875
70, 0, 0, 4888.84765625
71, 0, 0, 4232.3056640625
72, 0, 0, 3798.431640625
73, 0, 0, 3413.70068359375
74, 0, 0, 3147.5390625
75, 0, 0, 2944.76123046875
76, 0, 0, 2775.94677734375
77, 0, 0, 2639.760009765625
78, 0, 0, 2525.924072265625
79, 0, 0, 2427.93603515625
80, 0, 0, 2343.71044921875
81, 0, 0, 2264.898193359375
82, 0, 0, 2193.678955078125
83, 0, 0, 2130.9609375
84, 0, 0, 2074.533203125
85, 0, 0, 2023.2626953125
86, 0, 0, 1971.75146484375
87, 0, 0, 1932.188354492188
88, 0, 0, 1889.68603515625
89, 0, 0, 1848.081176757812
90, 0, 0, 1818.378662109375
91, 0, 0, 1786.549438476562
92, 0, 0, 1751.659057617188
93, 0, 0, 1726.61376953125
94, 0, 0, 1689.3896484375
95, 0, 0, 1668.610229492188
96, 0, 0, 1646.484252929688
97, 0, 0, 1620.193481445312
98, 0, 0, 1603.362548828125
99, 0, 0, 1576.33203125
100, 0, 0, 1558.11376953125
101, 0, 0, 1523.351440429688
102, 0, 0, 1518.601440429688
103, 0, 0, 1499.968383789062
104, 0, 0, 1485.55615234375
105, 0, 0, 1463.7421875
106, 0, 0, 1442.781127929688
107, 0, 0, 1431.631103515625
108, 0, 0, 1419.060546875
109, 0, 0, 1405.2041015625
110, 0, 0, 1391.274536132812
111, 0, 0, 1371.290161132812
112, 0, 0, 1360.078002929688
113, 0, 0, 1354.964233398438
114, 0, 0, 1342.092529296875
115, 0, 0, 1324.949096679688
116, 0, 0, 1315.401611328125
117, 0, 0, 1305.327758789062
118, 0, 0, 1300.498779296875
119, 0, 0, 1289.145751953125
120, 0, 0, 1274.034301757812
121, 0, 0, 1267.748779296875
122, 0, 0, 1250.891967773438
123, 0, 0, 1246.526123046875
124, 0, 0, 1242.732177734375
125, 0, 0, 1223.889526367188
126, 0, 0, 1218.54150390625
127, 0, 0, 1212.026000976562
128, 0, 0, 1196.075805664062
129, 0, 0, 1197.466796875
130, 0, 0, 1190.76171875
131, 0, 0, 1174.57666015625
132, 0, 0, 1179.92041015625
133, 0, 0, 1163.562866210938
134, 0, 0, 1165.434692382812
135, 0, 0, 1150.1220703125
136, 0, 0, 1151.741333007812
137, 0, 0, 1136.246459960938
138, 0, 0, 1136.245849609375
139, 0, 0, 1126.902465820312
140, 0, 0, 1124.10986328125
141, 0, 0, 1113.443603515625
142, 0, 0, 1102.937133789062
143, 0, 0, 1100.566528320312
144, 0, 0, 1092.574584960938
145, 0, 0, 1086.579223632812
146, 0, 0, 1088.191162109375
147, 0, 0, 1083.066284179688
148, 0, 0, 1080.1767578125
149, 0, 0, 1071.8427734375
150, 0, 0, 1056.907104492188
151, 0, 0, 1053.929931640625
152, 0, 0, 1059.237182617188
153, 0, 0, 1052.43701171875
154, 0, 0, 1050.7548828125
155, 0, 0, 1048.711181640625
156, 0, 0, 1030.293579101562
157, 0, 0, 1026.705444335938
158, 0, 0, 1026.760864257812
159, 0, 0, 1017.158325195312
160, 0, 0, 1018.995666503906
161, 0, 0, 1022.473205566406
162, 0, 0, 1005.284240722656
163, 0, 0, 1011.14111328125
164, 0, 0, 1006.440002441406
