# TOPAS Version: 3.3.p1
# Parameter File: Test.txt
# Results for scorer MLIC_Scorer
# Scored in component: MLIC
# X in 180 bins of 0.177778 cm
# Y in 1 bin  of 10 cm
# Z in 1 bin  of 10 cm
# EnergyDeposit ( MeV ) : Sum   
0, 0, 0, 0
1, 0, 0, 0
2, 0, 0, 0
3, 0, 0, 0
4, 0, 0, 0
5, 0, 0, 0
6, 0, 0, 0
7, 0, 0, 0
8, 0, 0, 0
9, 0, 0, 0
10, 0, 0, 0
11, 0, 0, 0
12, 0, 0, 0
13, 0, 0, 0
14, 0, 0, 0
15, 0, 0, 0
16, 0, 0, 0
17, 0, 0, 0
18, 0, 0, 0
19, 0, 0, 0
20, 0, 0, 0
21, 0, 0, 0
22, 0, 0, 0
23, 0, 0, 0.02850530669093132
24, 0, 0, 0
25, 0, 0, 0
26, 0, 0, 0
27, 0, 0, 0
28, 0, 0, 0
29, 0, 0, 0
30, 0, 0, 0
31, 0, 0, 6.985446929931641
32, 0, 0, 32.90295028686523
33, 0, 0, 171.3645935058594
34, 0, 0, 605.2698364257812
35, 0, 0, 1538.946533203125
36, 0, 0, 2973.09765625
37, 0, 0, 4256.01611328125
38, 0, 0, 5100.2626953125
39, 0, 0, 4975.486328125
40, 0, 0, 4533.8310546875
41, 0, 0, 3894.80810546875
42, 0, 0, 3479.92578125
43, 0, 0, 3156.291748046875
44, 0, 0, 2907.71044921875
45, 0, 0, 2734.580322265625
46, 0, 0, 2574.567138671875
47, 0, 0, 2467.219970703125
48, 0, 0, 2355.190185546875
49, 0, 0, 2258.30859375
50, 0, 0, 2179.880859375
51, 0, 0, 2106.93212890625
52, 0, 0, 2042.792358398438
53, 0, 0, 1992.181518554688
54, 0, 0, 1929.0224609375
55, 0, 0, 1887.755004882812
56, 0, 0, 1840.093505859375
57, 0, 0, 1797.765014648438
58, 0, 0, 1757.302490234375
59, 0, 0, 1729.914794921875
60, 0, 0, 1698.8427734375
61, 0, 0, 1668.973266601562
62, 0, 0, 1637.91796875
63, 0, 0, 1605.383178710938
64, 0, 0, 1584.063110351562
65, 0, 0, 1555.103759765625
66, 0, 0, 1534.21337890625
67, 0, 0, 1508.364013671875
68, 0, 0, 1496.374145507812
69, 0, 0, 1471.553955078125
70, 0, 0, 1450.551635742188
71, 0, 0, 1433.911743164062
72, 0, 0, 1414.312377929688
73, 0, 0, 1386.618286132812
74, 0, 0, 1378.034423828125
75, 0, 0, 1365.28076171875
76, 0, 0, 1348.433227539062
77, 0, 0, 1338.756713867188
78, 0, 0, 1319.967651367188
79, 0, 0, 1307.881591796875
80, 0, 0, 1299.00048828125
81, 0, 0, 1283.894287109375
82, 0, 0, 1266.573364257812
83, 0, 0, 1263.343383789062
84, 0, 0, 1244.837890625
85, 0, 0, 1233.179321289062
86, 0, 0, 1230.162353515625
87, 0, 0, 1221.019653320312
88, 0, 0, 1204.341552734375
89, 0, 0, 1190.145751953125
90, 0, 0, 1181.441040039062
91, 0, 0, 1179.5146484375
92, 0, 0, 1165.045166015625
93, 0, 0, 1159.68115234375
94, 0, 0, 1154.012817382812
95, 0, 0, 1143.185791015625
96, 0, 0, 1131.123901367188
97, 0, 0, 1129.718139648438
98, 0, 0, 1124.297241210938
99, 0, 0, 1110.76171875
100, 0, 0, 1108.7998046875
101, 0, 0, 1103.43798828125
102, 0, 0, 1081.986206054688
103, 0, 0, 1085.957275390625
104, 0, 0, 1084.623657226562
105, 0, 0, 1075.117553710938
106, 0, 0, 1064.85009765625
107, 0, 0, 1058.525024414062
108, 0, 0, 1053.728759765625
109, 0, 0, 1051.553955078125
110, 0, 0, 1038.406860351562
111, 0, 0, 1040.4462890625
112, 0, 0, 1033.044189453125
113, 0, 0, 1024.866821289062
114, 0, 0, 1018.265319824219
115, 0, 0, 1015.603271484375
116, 0, 0, 1007.018981933594
117, 0, 0, 1006.468688964844
118, 0, 0, 998.2632446289062
119, 0, 0, 991.8806762695312
120, 0, 0, 993.0810546875
121, 0, 0, 981.7015380859375
122, 0, 0, 983.3535766601562
123, 0, 0, 974.8748779296875
124, 0, 0, 971.143310546875
125, 0, 0, 962.0682983398438
126, 0, 0, 956.0718994140625
127, 0, 0, 962.8552856445312
128, 0, 0, 961.0875244140625
129, 0, 0, 956.8939819335938
130, 0, 0, 949.3071899414062
131, 0, 0, 943.758544921875
132, 0, 0, 939.6090087890625
133, 0, 0, 934.5556030273438
134, 0, 0, 932.3924560546875
135, 0, 0, 929.1287231445312
136, 0, 0, 922.981201171875
137, 0, 0, 922.064453125
138, 0, 0, 922.1911010742188
139, 0, 0, 909.1808471679688
140, 0, 0, 910.9913330078125
141, 0, 0, 905.6829833984375
142, 0, 0, 902.2564697265625
143, 0, 0, 899.4603881835938
144, 0, 0, 894.8512573242188
145, 0, 0, 897.0499267578125
146, 0, 0, 891.2423706054688
147, 0, 0, 881.140625
148, 0, 0, 878.9375610351562
149, 0, 0, 884.283447265625
150, 0, 0, 873.3961791992188
151, 0, 0, 881.9797973632812
152, 0, 0, 869.2938232421875
153, 0, 0, 870.6072998046875
154, 0, 0, 853.7514038085938
155, 0, 0, 864.4510498046875
156, 0, 0, 868.666259765625
157, 0, 0, 851.7096557617188
158, 0, 0, 862.8709106445312
159, 0, 0, 855.8556518554688
160, 0, 0, 854.1384887695312
161, 0, 0, 841.248046875
162, 0, 0, 843.635498046875
163, 0, 0, 839.7513427734375
164, 0, 0, 839.1882934570312
165, 0, 0, 832.0289916992188
166, 0, 0, 833.9789428710938
167, 0, 0, 835.7449951171875
168, 0, 0, 830.1314086914062
169, 0, 0, 832.5059204101562
170, 0, 0, 827.6033935546875
171, 0, 0, 810.4920043945312
172, 0, 0, 818.7965087890625
173, 0, 0, 819.7650146484375
174, 0, 0, 818.6712646484375
175, 0, 0, 812.4989013671875
176, 0, 0, 803.4521484375
177, 0, 0, 811.607666015625
178, 0, 0, 809.7274780273438
179, 0, 0, 804.86474609375
