# TOPAS Version: 3.3.p1
# Parameter File: Test.txt
# Results for scorer MLIC_Scorer
# Scored in component: MLIC
# X in 165 bins of 0.2 cm
# Y in 1 bin  of 10 cm
# Z in 1 bin  of 10 cm
# EnergyDeposit ( MeV ) : Sum   
0, 0, 0, 0
1, 0, 0, 0
2, 0, 0, 0
3, 0, 0, 0
4, 0, 0, 0
5, 0, 0, 0
6, 0, 0, 0
7, 0, 0, 0
8, 0, 0, 0
9, 0, 0, 0
10, 0, 0, 0
11, 0, 0, 0
12, 0, 0, 0
13, 0, 0, 0
14, 0, 0, 0
15, 0, 0, 0
16, 0, 0, 0
17, 0, 0, 0
18, 0, 0, 0
19, 0, 0, 0
20, 0, 0, 0
21, 0, 0, 0
22, 0, 0, 0
23, 0, 0, 0
24, 0, 0, 0
25, 0, 0, 0
26, 0, 0, 0
27, 0, 0, 0
28, 0, 0, 0
29, 0, 0, 0
30, 0, 0, 0
31, 0, 0, 0
32, 0, 0, 0
33, 0, 0, 0
34, 0, 0, 0
35, 0, 0, 0
36, 0, 0, 0
37, 0, 0, 0
38, 0, 0, 0
39, 0, 0, 0
40, 0, 0, 0
41, 0, 0, 0
42, 0, 0, 0
43, 0, 0, 0
44, 0, 0, 0
45, 0, 0, 0
46, 0, 0, 0
47, 0, 0, 0
48, 0, 0, 0
49, 0, 0, 0
50, 0, 0, 0
51, 0, 0, 0
52, 0, 0, 0
53, 0, 0, 0
54, 0, 0, 0
55, 0, 0, 0
56, 0, 0, 0
57, 0, 0, 0
58, 0, 0, 0
59, 0, 0, 0.05913457274436951
60, 0, 0, 0
61, 0, 0, 0
62, 0, 0, 0
63, 0, 0, 0
64, 0, 0, 133.0287170410156
65, 0, 0, 435.7051391601562
66, 0, 0, 1462.51513671875
67, 0, 0, 3134.859619140625
68, 0, 0, 4490.57275390625
69, 0, 0, 5435.3974609375
70, 0, 0, 5324.2138671875
71, 0, 0, 4870.27490234375
72, 0, 0, 4242.38720703125
73, 0, 0, 3744.160400390625
74, 0, 0, 3399.9443359375
75, 0, 0, 3131.01416015625
76, 0, 0, 2928.539794921875
77, 0, 0, 2764.964599609375
78, 0, 0, 2639.59619140625
79, 0, 0, 2518.666015625
80, 0, 0, 2421.47314453125
81, 0, 0, 2331.6474609375
82, 0, 0, 2260.703125
83, 0, 0, 2190.435791015625
84, 0, 0, 2125.72021484375
85, 0, 0, 2078.2236328125
86, 0, 0, 2017.308471679688
87, 0, 0, 1977.646484375
88, 0, 0, 1923.430297851562
89, 0, 0, 1881.523193359375
90, 0, 0, 1850.2080078125
91, 0, 0, 1817.044677734375
92, 0, 0, 1780.641479492188
93, 0, 0, 1754.270874023438
94, 0, 0, 1724.351440429688
95, 0, 0, 1696.432250976562
96, 0, 0, 1663.454467773438
97, 0, 0, 1640.223510742188
98, 0, 0, 1618.941162109375
99, 0, 0, 1589.322998046875
100, 0, 0, 1576.416870117188
101, 0, 0, 1549.173217773438
102, 0, 0, 1531.8828125
103, 0, 0, 1506.197875976562
104, 0, 0, 1488.308471679688
105, 0, 0, 1479.638305664062
106, 0, 0, 1463.494873046875
107, 0, 0, 1449.645263671875
108, 0, 0, 1427.360595703125
109, 0, 0, 1419.03369140625
110, 0, 0, 1406.533203125
111, 0, 0, 1395.0947265625
112, 0, 0, 1376.43798828125
113, 0, 0, 1368.762573242188
114, 0, 0, 1358.644287109375
115, 0, 0, 1343.150390625
116, 0, 0, 1326.884887695312
117, 0, 0, 1321.943359375
118, 0, 0, 1308.18310546875
119, 0, 0, 1301.044921875
120, 0, 0, 1288.036010742188
121, 0, 0, 1276.347290039062
122, 0, 0, 1263.3564453125
123, 0, 0, 1256.292114257812
124, 0, 0, 1241.585693359375
125, 0, 0, 1233.056396484375
126, 0, 0, 1230.160400390625
127, 0, 0, 1218.51318359375
128, 0, 0, 1217.647216796875
129, 0, 0, 1204.872436523438
130, 0, 0, 1196.738403320312
131, 0, 0, 1190.927612304688
132, 0, 0, 1180.034301757812
133, 0, 0, 1166.444091796875
134, 0, 0, 1167.713745117188
135, 0, 0, 1152.962036132812
136, 0, 0, 1155.030395507812
137, 0, 0, 1149.3623046875
138, 0, 0, 1131.61865234375
139, 0, 0, 1130.149169921875
140, 0, 0, 1124.282348632812
141, 0, 0, 1126.400756835938
142, 0, 0, 1114.140625
143, 0, 0, 1104.803100585938
144, 0, 0, 1104.748291015625
145, 0, 0, 1089.252075195312
146, 0, 0, 1090.144287109375
147, 0, 0, 1087.111694335938
148, 0, 0, 1076.380859375
149, 0, 0, 1077.948608398438
150, 0, 0, 1068.706420898438
151, 0, 0, 1062.599365234375
152, 0, 0, 1064.383544921875
153, 0, 0, 1057.92041015625
154, 0, 0, 1053.725463867188
155, 0, 0, 1044.060546875
156, 0, 0, 1037.762084960938
157, 0, 0, 1031.881469726562
158, 0, 0, 1029.2607421875
159, 0, 0, 1020.179504394531
160, 0, 0, 1021.775573730469
161, 0, 0, 1020.463195800781
162, 0, 0, 1018.764404296875
163, 0, 0, 1007.953979492188
164, 0, 0, 1010.119201660156
