# TOPAS Version: 3.3.p1
# Parameter File: Test.txt
# Results for scorer MLIC_Scorer
# Scored in component: MLIC
# X in 165 bins of 0.2 cm
# Y in 1 bin  of 10 cm
# Z in 1 bin  of 10 cm
# EnergyDeposit ( MeV ) : Sum   
0, 0, 0, 0
1, 0, 0, 0
2, 0, 0, 0
3, 0, 0, 0
4, 0, 0, 0
5, 0, 0, 0
6, 0, 0, 0
7, 0, 0, 0
8, 0, 0, 0
9, 0, 0, 0
10, 0, 0, 0
11, 0, 0, 0
12, 0, 0, 0
13, 0, 0, 0
14, 0, 0, 0
15, 0, 0, 0
16, 0, 0, 0
17, 0, 0, 0
18, 0, 0, 0
19, 0, 0, 0
20, 0, 0, 0
21, 0, 0, 0
22, 0, 0, 0
23, 0, 0, 0
24, 0, 0, 0
25, 0, 0, 0
26, 0, 0, 0
27, 0, 0, 0
28, 0, 0, 0
29, 0, 0, 0
30, 0, 0, 0
31, 0, 0, 0
32, 0, 0, 0
33, 0, 0, 0
34, 0, 0, 0
35, 0, 0, 0
36, 0, 0, 0
37, 0, 0, 0
38, 0, 0, 0
39, 0, 0, 0.03634846955537796
40, 0, 0, 0
41, 0, 0, 0
42, 0, 0, 0
43, 0, 0, 0
44, 0, 0, 0
45, 0, 0, 0
46, 0, 0, 0
47, 0, 0, 0
48, 0, 0, 0
49, 0, 0, 0
50, 0, 0, 0
51, 0, 0, 0
52, 0, 0, 0
53, 0, 0, 0
54, 0, 0, 0
55, 0, 0, 0
56, 0, 0, 0
57, 0, 0, 0
58, 0, 0, 0
59, 0, 0, 0
60, 0, 0, 0.03319648280739784
61, 0, 0, 44.46997833251953
62, 0, 0, 87.64346313476562
63, 0, 0, 499.0355834960938
64, 0, 0, 1479.887939453125
65, 0, 0, 2975.525390625
66, 0, 0, 4539.2568359375
67, 0, 0, 5592.52392578125
68, 0, 0, 5283.57421875
69, 0, 0, 4833.41162109375
70, 0, 0, 4270.1796875
71, 0, 0, 3753.613037109375
72, 0, 0, 3398.138916015625
73, 0, 0, 3129.88720703125
74, 0, 0, 2927.369873046875
75, 0, 0, 2761.38134765625
76, 0, 0, 2629.82275390625
77, 0, 0, 2527.201904296875
78, 0, 0, 2423.30224609375
79, 0, 0, 2328.93359375
80, 0, 0, 2257.28271484375
81, 0, 0, 2194.954345703125
82, 0, 0, 2132.720703125
83, 0, 0, 2069.187255859375
84, 0, 0, 2016.585815429688
85, 0, 0, 1969.764404296875
86, 0, 0, 1927.858032226562
87, 0, 0, 1885.136596679688
88, 0, 0, 1860.892822265625
89, 0, 0, 1815.701416015625
90, 0, 0, 1780.3408203125
91, 0, 0, 1748.11376953125
92, 0, 0, 1716.965087890625
93, 0, 0, 1691.858642578125
94, 0, 0, 1659.6552734375
95, 0, 0, 1638.392944335938
96, 0, 0, 1619.419799804688
97, 0, 0, 1596.758666992188
98, 0, 0, 1575.473510742188
99, 0, 0, 1548.048095703125
100, 0, 0, 1529.343505859375
101, 0, 0, 1521.019287109375
102, 0, 0, 1501.660766601562
103, 0, 0, 1480.345947265625
104, 0, 0, 1453.879516601562
105, 0, 0, 1442.714721679688
106, 0, 0, 1433.43359375
107, 0, 0, 1421.532348632812
108, 0, 0, 1403.83056640625
109, 0, 0, 1392.051025390625
110, 0, 0, 1381.410278320312
111, 0, 0, 1370.869506835938
112, 0, 0, 1347.921630859375
113, 0, 0, 1341.129028320312
114, 0, 0, 1325.571533203125
115, 0, 0, 1315.272827148438
116, 0, 0, 1299.33349609375
117, 0, 0, 1297.5986328125
118, 0, 0, 1282.5263671875
119, 0, 0, 1277.7099609375
120, 0, 0, 1263.754150390625
121, 0, 0, 1255.177124023438
122, 0, 0, 1246.845581054688
123, 0, 0, 1224.390502929688
124, 0, 0, 1224.297729492188
125, 0, 0, 1217.346435546875
126, 0, 0, 1204.603637695312
127, 0, 0, 1195.179443359375
128, 0, 0, 1195.107177734375
129, 0, 0, 1190.1591796875
130, 0, 0, 1173.905639648438
131, 0, 0, 1179.14599609375
132, 0, 0, 1160.77392578125
133, 0, 0, 1155.857055664062
134, 0, 0, 1146.350219726562
135, 0, 0, 1146.810668945312
136, 0, 0, 1146.90478515625
137, 0, 0, 1135.395751953125
138, 0, 0, 1129.407592773438
139, 0, 0, 1128.145141601562
140, 0, 0, 1117.168579101562
141, 0, 0, 1107.559326171875
142, 0, 0, 1104.313598632812
143, 0, 0, 1097.579833984375
144, 0, 0, 1094.93115234375
145, 0, 0, 1087.45751953125
146, 0, 0, 1080.0302734375
147, 0, 0, 1073.3779296875
148, 0, 0, 1068.941772460938
149, 0, 0, 1058.027465820312
150, 0, 0, 1060.385620117188
151, 0, 0, 1059.523071289062
152, 0, 0, 1053.434204101562
153, 0, 0, 1044.570434570312
154, 0, 0, 1041.131225585938
155, 0, 0, 1037.552978515625
156, 0, 0, 1035.41650390625
157, 0, 0, 1017.898803710938
158, 0, 0, 1021.054992675781
159, 0, 0, 1020.587585449219
160, 0, 0, 1023.32275390625
161, 0, 0, 1003.741577148438
162, 0, 0, 995.1774291992188
163, 0, 0, 996.9656372070312
164, 0, 0, 999.9398803710938
